timestamp,ch1,ch2,label
1777452834.95582,2134,0,7
1777452834.957758,1971,0,7
1777452834.957881,1719,0,7
1777452834.9582322,1763,0,7
1777452834.9583921,2166,0,7
1777452834.961431,2195,0,7
1777452834.964308,2148,0,7
1777452834.967368,1857,0,7
1777452834.970162,1684,0,7
1777452834.973124,2003,0,7
1777452834.976151,2215,0,7
1777452834.9835021,2190,0,7
1777452834.9839911,1926,0,7
1777452834.986184,1711,0,7
1777452834.9883451,1768,0,7
1777452834.991887,2115,0,7
1777452834.9945102,2264,0,7
1777452834.99721,2173,0,7
1777452835.000134,1878,0,7
1777452835.003126,1697,0,7
1777452835.0100951,1962,0,7
1777452835.0105221,2240,0,7
1777452835.012464,2195,0,7
1777452835.01563,2085,0,7
1777452835.0188649,1923,0,7
1777452835.021226,1691,0,7
1777452835.0241249,2002,0,7
1777452835.030619,2282,0,7
1777452835.031476,2149,0,7
1777452835.034762,1880,0,7
1777452835.036153,1713,0,7
1777452835.0399501,1833,0,7
1777452835.0424802,2267,0,7
1777452835.045214,2205,0,7
1777452835.0481331,2020,0,7
1777452835.0511239,1896,0,7
1777452835.057577,1727,0,7
1777452835.0586612,2110,0,7
1777452835.0629199,2169,0,7
1777452835.064991,2146,0,7
1777452835.067107,1896,0,7
1777452835.070709,1687,0,7
1777452835.072165,1875,0,7
1777452835.075148,2194,0,7
1777452835.08104,2215,0,7
1777452835.082464,2104,0,7
1777452835.086944,1865,0,7
1777452835.087571,1782,0,7
1777452835.0910091,2039,0,7
1777452835.094045,2227,0,7
1777452835.096614,2089,0,7
1777452835.0991738,1970,0,7
1777452835.102129,1710,0,7
1777452835.105124,1781,0,7
1777452835.110636,2171,0,7
1777452835.111535,2277,0,7
1777452835.114152,2064,0,7
1777452835.117675,1789,0,7
1777452835.120383,1693,0,7
1777452835.1238132,1991,0,7
1777452835.1264021,2257,0,7
1777452835.133559,2217,0,7
1777452835.134124,2088,0,7
1777452835.136575,1795,0,7
1777452835.138462,1722,0,7
1777452835.1424909,2125,0,7
1777452835.1459358,2249,0,7
1777452835.147252,2114,0,7
1777452835.1501062,1900,0,7
1777452835.152999,1654,0,7
1777452835.156001,1986,0,7
1777452835.162518,2251,0,7
1777452835.162644,2151,0,7
1777452835.165314,2046,0,7
1777452835.168886,1810,0,7
1777452835.1712809,1776,0,7
1777452835.174792,2065,0,7
1777452835.1773849,2241,0,7
1777452835.180293,2118,0,7
1777452835.185339,1884,0,7
1777452835.187832,1639,0,7
1777452835.190306,1922,0,7
1777452835.192791,2194,0,7
1777452835.1957152,2269,0,7
1777452835.198302,2064,0,7
1777452835.201031,1783,0,7
1777452835.204024,1701,0,7
1777452835.206997,2013,0,7
1777452835.214018,2237,0,7
1777452835.215681,2143,0,7
1777452835.216257,1978,0,7
1777452835.220027,1716,0,7
1777452835.222036,1828,0,7
1777452835.225288,2185,0,7
1777452835.228294,2178,0,7
1777452835.231061,2102,0,7
1777452835.236675,1884,0,7
1777452835.237192,1694,0,7
1777452835.24109,2010,0,7
1777452835.2432861,2244,0,7
1777452835.246783,2162,0,7
1777452835.2492428,2009,0,7
1777452835.252021,1727,0,7
1777452835.255004,1759,0,7
1777452835.258003,2188,0,7
1777452835.2643359,2271,0,7
1777452835.2652612,2090,0,7
1777452835.267318,1904,0,7
1777452835.270116,1679,0,7
1777452835.273181,1932,0,7
1777452835.276671,2240,0,7
1777452835.279237,2247,0,7
1777452835.2856598,2054,0,7
1777452835.286245,1671,0,7
1777452835.2887812,1718,0,7
1777452835.292863,2135,0,7
1777452835.2960231,2277,0,7
1777452835.297678,2177,0,7
1777452835.300092,1964,0,7
1777452835.302995,1695,0,7
1777452835.305994,1861,0,7
1777452835.3090189,2262,0,7
1777452835.315868,2252,0,7
1777452835.316365,2041,0,7
1777452835.3184268,1785,0,7
1777452835.321146,1656,0,7
1777452835.324221,2073,0,7
1777452835.3279638,2224,0,7
1777452835.330522,2192,0,7
1777452835.3375602,1981,0,7
1777452835.338026,1637,0,7
1777452835.34011,1806,0,7
1777452835.342195,2275,0,7
1777452835.345937,2259,0,7
1777452835.34956,2110,0,7
1777452835.350999,1833,0,7
1777452835.3540218,1730,0,7
1777452835.356991,2010,0,7
1777452835.3599942,2280,0,7
1777452835.365416,2198,0,7
1777452835.366272,1905,0,7
1777452835.369833,1685,0,7
1777452835.3740642,1780,0,7
1777452835.375621,2169,0,7
1777452835.378022,2292,0,7
1777452835.381017,2078,0,7
1777452835.3870132,1827,0,7
1777452835.38746,1750,0,7
1777452835.391667,1957,0,7
1777452835.393551,2281,0,7
1777452835.3968902,2223,0,7
1777452835.399221,1927,0,7
1777452835.402017,1692,0,7
1777452835.4049861,1704,0,7
1777452835.407994,2177,0,7
1777452835.413388,2241,0,7
1777452835.416001,2093,0,7
1777452835.417978,1874,0,7
1777452835.4214568,1668,0,7
1777452835.4230862,1910,0,7
1777452835.426016,2288,0,7
1777452835.429622,2214,0,7
1777452835.4321768,2015,0,7
1777452835.434898,1780,0,7
1777452835.4386299,1710,0,7
1777452835.4415748,2078,0,7
1777452835.4447548,2235,0,7
1777452835.448112,2138,0,7
1777452835.450263,1891,0,7
1777452835.4528902,1660,0,7
1777452835.4558668,1816,0,7
1777452835.459685,2218,0,7
1777452835.4647639,2319,0,7
1777452835.4652421,2063,0,7
1777452835.469006,1778,0,7
1777452835.4709802,1716,0,7
1777452835.4739242,2100,0,7
1777452835.476898,2293,0,7
1777452835.479892,2208,0,7
1777452835.482908,1931,0,7
1777452835.489296,1660,0,7
1777452835.489737,1794,0,7
1777452835.493956,2255,0,7
1777452835.495604,2182,0,7
1777452835.4991949,2092,0,7
1777452835.501476,1861,0,7
1777452835.504032,1668,0,7
1777452835.506856,1997,0,7
1777452835.50986,2282,0,7
1777452835.5154638,2164,0,7
1777452835.520185,1997,0,7
1777452835.524014,1718,0,7
1777452835.5257988,1817,0,7
1777452835.528314,2194,0,7
1777452835.5285912,2268,0,7
1777452835.5312798,2152,0,7
1777452835.5390642,1889,0,7
1777452835.539236,1714,0,7
1777452835.543008,1972,0,7
1777452835.543178,2222,0,7
1777452835.548672,2283,0,7
1777452835.5489652,1987,0,7
1777452835.551925,1756,0,7
1777452835.5548851,1761,0,7
1777452835.5578701,2200,0,7
1777452835.5608761,2293,0,7
1777452835.567093,2166,0,7
1777452835.5681422,1991,0,7
1777452835.5703738,1649,0,7
1777452835.574475,1847,0,7
1777452835.577049,2262,0,7
1777452835.579099,2312,0,7
1777452835.582338,1920,0,7
1777452835.5854669,1791,0,7
1777452835.592465,1714,0,7
1777452835.593166,2105,0,7
1777452835.595113,2320,0,7
1777452835.5976472,2259,0,7
1777452835.603466,1982,0,7
1777452835.6038651,1700,0,7
1777452835.606403,1816,0,7
1777452835.609034,2352,0,7
1777452835.6118772,2250,0,7
1777452835.614861,2087,0,7
1777452835.624011,1741,0,7
1777452835.626026,1719,0,7
1777452835.626357,2029,0,7
1777452835.628835,2324,0,7
1777452835.6313338,2223,0,7
1777452835.63486,1963,0,7
1777452835.637415,1725,0,7
1777452835.638881,1859,0,7
1777452835.641985,2250,0,7
1777452835.6496708,2271,0,7
1777452835.649936,2081,0,7
1777452835.653924,1781,0,7
1777452835.6593091,1659,0,7
1777452835.660495,1914,0,7
1777452835.660804,2242,0,7
1777452835.6635158,2182,0,7
1777452835.666162,1961,0,7
1777452835.668873,1765,0,7
1777452835.6718678,1810,0,7
1777452835.674863,2225,0,7
1777452835.6820228,2342,0,7
1777452835.682847,2180,0,7
1777452835.68854,1894,0,7
1777452835.690295,1613,0,7
1777452835.693276,1964,0,7
1777452835.695532,2267,0,7
1777452835.695925,2187,0,7
1777452835.699451,1980,0,7
1777452835.702132,1706,0,7
1777452835.710465,1846,0,7
1777452835.711078,2129,0,7
1777452835.7128131,2358,0,7
1777452835.715281,2182,0,7
1777452835.7199109,1865,0,7
1777452835.722406,1662,0,7
1777452835.722888,1868,0,7
1777452835.725987,2311,0,7
1777452835.728873,2248,0,7
1777452835.731874,1980,0,7
1777452835.734904,1665,0,7
1777452835.7446752,1736,0,7
1777452835.7453902,2074,0,7
1777452835.747087,2296,0,7
1777452835.747336,2180,0,7
1777452835.750704,1928,0,7
1777452835.754411,1674,0,7
1777452835.757043,1964,0,7
1777452835.760237,2322,0,7
1777452835.7618759,2229,0,7
1777452835.764937,1996,0,7
1777452835.7726731,1754,0,7
1777452835.77503,1779,0,7
1777452835.777237,1947,0,7
1777452835.780884,2283,0,7
1777452835.781821,2222,0,7
1777452835.784113,2156,0,7
1777452835.786641,1643,0,7
1777452835.789896,1714,0,7
1777452835.79327,2322,0,7
1777452835.794753,2254,0,7
1777452835.798541,2170,0,7
1777452835.801173,1782,0,7
1777452835.8037791,1606,0,7
1777452835.8067489,2042,0,7
1777452835.817599,2368,0,7
1777452835.817729,2336,0,7
1777452835.8182242,1957,0,7
1777452835.8236852,1721,0,7
1777452835.824605,1812,0,7
1777452835.82763,2214,0,7
1777452835.828037,2310,0,7
1777452835.8309948,2094,0,7
1777452835.8345358,1897,0,7
1777452835.837261,1738,0,7
1777452835.839835,2051,0,7
1777452835.848808,2260,0,7
1777452835.85139,2308,0,7
1777452835.851564,2087,0,7
1777452835.85182,1775,0,7
1777452835.856683,1747,0,7
1777452835.86077,2157,0,7
1777452835.8637812,2320,0,7
1777452835.864,2210,0,7
1777452835.8674061,1970,0,7
1777452835.869998,1751,0,7
1777452835.872771,2011,0,7
1777452835.875732,2373,0,7
1777452835.8787599,2330,0,7
1777452835.887375,2047,0,7
1777452835.8881521,1780,0,7
1777452835.888854,1725,0,7
1777452835.8917718,2153,0,7
1777452835.8947809,2349,0,7
1777452835.897464,2196,0,7
1777452835.900254,1979,0,7
1777452835.903033,1689,0,7
1777452835.906446,1812,0,7
1777452835.909025,2306,0,7
1777452835.9117792,2317,0,7
1777452835.918061,2061,0,7
1777452835.918989,1794,0,7
1777452835.921197,1629,0,7
1777452835.924648,2056,0,7
1777452835.9276092,2316,0,7
1777452835.93011,2203,0,7
1777452835.9328132,1876,0,7
1777452835.9357681,1683,0,7
1777452835.938764,1770,0,7
1777452835.941727,2245,0,7
1777452835.9487202,2311,0,7
1777452835.949304,2107,0,7
1777452835.9511878,1839,0,7
1777452835.954537,1680,0,7
1777452835.959389,1982,0,7
1777452835.961961,2366,0,7
1777452835.9644659,2261,0,7
1777452835.965788,2046,0,7
1777452835.9687371,1715,0,7
1777452835.974575,1830,0,7
1777452835.975534,2317,0,7
1777452835.977765,2377,0,7
1777452835.981406,2283,0,7
1777452835.984389,2010,0,7
1777452835.987296,1756,0,7
1777452835.9898071,2061,0,7
1777452835.9927318,2474,0,7
1777452835.9957361,2454,0,7
1777452835.998728,2203,0,7
1777452836.006164,1911,0,7
1777452836.0062342,1857,0,7
1777452836.008268,2351,0,7
1777452836.011725,2482,0,7
1777452836.0138218,2358,0,7
1777452836.018823,2103,0,7
1777452836.021386,1884,0,7
1777452836.022759,2109,0,7
1777452836.0257258,2530,0,7
1777452836.031109,2557,0,7
1777452836.033251,2362,0,7
1777452836.034903,2222,0,7
1777452836.03878,1963,0,7
1777452836.041075,2357,0,7
1777452836.043828,2571,0,7
1777452836.046767,2536,0,7
1777452836.049747,2310,0,7
1777452836.052734,2019,0,7
1777452836.055731,2123,0,7
1777452836.061146,2580,0,7
1777452836.062065,2636,0,7
1777452836.0653708,2428,0,7
1777452836.069289,2201,0,7
1777452836.071765,2042,0,7
1777452836.074435,2340,0,7
1777452836.0770812,2573,0,7
1777452836.079776,2516,0,7
1777452836.085272,2297,0,7
1777452836.086784,2015,0,7
1777452836.088937,2130,0,7
1777452836.09342,2540,0,7
1777452836.09552,2562,0,7
1777452836.098009,2427,0,7
1777452836.100767,2236,0,7
1777452836.103764,1974,0,7
1777452836.106729,2092,0,7
1777452836.1097338,2464,0,7
1777452836.1165109,2446,0,7
1777452836.1169899,2368,0,7
1777452836.119201,1966,0,7
1777452836.1226869,1994,0,7
1777452836.1255438,2362,0,7
1777452836.128347,2504,0,7
1777452836.130796,2384,0,7
1777452836.133613,2108,0,7
1777452836.140277,1910,0,7
1777452836.141257,2184,0,7
1777452836.143397,2559,0,7
1777452836.146199,2354,0,7
1777452836.149274,2249,0,7
1777452836.152184,1956,0,7
1777452836.154887,2007,0,7
1777452836.15764,2329,0,7
1777452836.160639,2440,0,7
1777452836.163606,2322,0,7
1777452836.166636,2200,0,7
1777452836.1716921,1770,0,7
1777452836.1752288,2098,0,7
1777452836.1773598,2451,0,7
1777452836.17929,2436,0,7
1777452836.182262,2275,0,7
1777452836.1853728,2059,0,7
1777452836.188032,1759,0,7
1777452836.190711,2351,0,7
1777452836.198993,2528,0,7
1777452836.1996229,2334,0,7
1777452836.202037,2156,0,7
1777452836.2037492,1889,0,7
1777452836.205889,2158,0,7
1777452836.208965,2373,0,7
1777452836.212085,2245,0,7
1777452836.214721,2158,0,7
1777452836.217612,2068,0,7
1777452836.220636,1821,0,7
1777452836.2236102,2220,0,7
1777452836.2266922,2431,0,7
1777452836.231724,2384,0,7
1777452836.235179,2075,0,7
1777452836.2369971,1682,0,7
1777452836.239166,1925,0,7
1777452836.242215,2255,0,7
1777452836.2453508,2405,0,7
1777452836.248099,2147,0,7
1777452836.250746,1924,0,7
1777452836.253609,1937,0,7
1777452836.259393,2231,0,7
1777452836.259989,2433,0,7
1777452836.264447,2294,0,7
1777452836.266541,2424,0,7
1777452836.2692428,1712,0,7
1777452836.272318,1907,0,7
1777452836.275058,2290,0,7
1777452836.277663,2460,0,7
1777452836.280604,2206,0,7
1777452836.2836149,2286,0,7
1777452836.287041,2265,0,7
1777452836.2931561,2195,0,7
1777452836.29505,2895,0,7
1777452836.2968361,2378,0,7
1777452836.299697,2243,0,7
1777452836.3028648,2202,0,7
1777452836.308127,2076,0,7
1777452836.3083038,2596,0,7
1777452836.3110569,2728,0,7
1777452836.313751,2458,0,7
1777452836.3210082,2080,0,7
1777452836.321666,1867,0,7
1777452836.324809,2186,0,7
1777452836.326902,2663,0,7
1777452836.32922,2419,0,7
1777452836.3321862,2182,0,7
1777452836.335412,2162,0,7
1777452836.338193,1994,0,7
1777452836.340822,2403,0,7
1777452836.34364,2645,0,7
1777452836.3465972,2586,0,7
1777452836.3496041,2491,0,7
1777452836.356457,2005,0,7
1777452836.356572,2195,0,7
1777452836.35902,2554,0,7
1777452836.362058,2619,0,7
1777452836.3660622,2345,0,7
1777452836.369344,2204,0,7
1777452836.372048,2060,0,7
1777452836.373605,2353,0,7
1777452836.3766289,2522,0,7
1777452836.3829272,2503,0,7
1777452836.38308,2271,0,7
1777452836.387358,2037,0,7
1777452836.389096,2059,0,7
1777452836.3953438,2500,0,7
1777452836.3958411,2497,0,7
1777452836.398561,2381,0,7
1777452836.4009368,2049,0,7
1777452836.403635,1838,0,7
1777452836.4065988,2099,0,7
1777452836.409645,2500,0,7
1777452836.416109,2387,0,7
1777452836.4167502,2119,0,7
1777452836.4217448,2092,0,7
1777452836.4223099,1845,0,7
1777452836.4261508,2239,0,7
1777452836.4293299,2388,0,7
1777452836.431923,2245,0,7
1777452836.433627,1998,0,7
1777452836.4366012,1987,0,7
1777452836.4420931,2067,0,7
1777452836.443573,2420,0,7
1777452836.445642,2539,0,7
1777452836.449918,2235,0,7
1777452836.4521952,1978,0,7
1777452836.455948,2091,0,7
1777452836.458336,2507,0,7
1777452836.460916,2417,0,7
1777452836.463634,2390,0,7
1777452836.467337,2092,0,7
1777452836.469898,1981,0,7
1777452836.476809,2180,0,7
1777452836.4774,2623,0,7
1777452836.479779,2508,0,7
1777452836.482456,2203,0,7
1777452836.486718,2029,0,7
1777452836.490198,1794,0,7
1777452836.490628,2137,0,7
1777452836.4938822,2336,0,7
1777452836.496626,2350,0,7
1777452836.503573,2127,0,7
1777452836.504158,1972,0,7
1777452836.5065222,2156,0,7
1777452836.509053,2318,0,7
1777452836.513727,2214,0,7
1777452836.5177479,2179,0,7
1777452836.5187998,2239,0,7
1777452836.521738,1771,0,7
1777452836.523477,1825,0,7
1777452836.526586,2301,0,7
1777452836.529511,2258,0,7
1777452836.532484,1977,0,7
1777452836.539297,1938,0,7
1777452836.5402849,1894,0,7
1777452836.542464,2338,0,7
1777452836.544899,2453,0,7
1777452836.548985,2129,0,7
1777452836.552479,2036,0,7
1777452836.554979,1854,0,7
1777452836.556492,2007,0,7
1777452836.559505,2288,0,7
1777452836.565886,2259,0,7
1777452836.566493,2065,0,7
1777452836.568852,1986,0,7
1777452836.572481,1945,0,7
1777452836.57548,1917,0,7
1777452836.5789828,2356,0,7
1777452836.581611,2272,0,7
1777452836.584279,1886,0,7
1777452836.586856,1657,0,7
1777452836.589546,1947,0,7
1777452836.592503,2194,0,7
1777452836.598725,2129,0,7
1777452836.5992901,2035,0,7
1777452836.605282,1874,0,7
1777452836.607887,1831,0,7
1777452836.613328,2041,0,7
1777452836.613815,2225,0,7
1777452836.615964,2245,0,7
1777452836.6167839,1957,0,7
1777452836.619482,1745,0,7
1777452836.622508,1850,0,7
1777452836.628344,2184,0,7
1777452836.6290119,2269,0,7
1777452836.6317341,2104,0,7
1777452836.635773,1890,0,7
1777452836.639052,1763,0,7
1777452836.642585,2064,0,7
1777452836.645598,2143,0,7
1777452836.646989,2133,0,7
1777452836.6496189,2006,0,7
1777452836.652523,1764,0,7
1777452836.6554859,1908,0,7
1777452836.662933,2275,0,7
1777452836.6634948,2239,0,7
1777452836.666961,2088,0,7
1777452836.669194,1833,0,7
1777452836.671683,1774,0,7
1777452836.674446,2030,0,7
1777452836.677813,2318,0,7
1777452836.680662,2263,0,7
1777452836.682503,2083,0,7
1777452836.6856692,1817,0,7
1777452836.691042,1769,0,7
1777452836.6921039,2210,0,7
1777452836.695912,2454,0,7
1777452836.6976168,2189,0,7
1777452836.700875,1839,0,7
1777452836.704243,1735,0,7
1777452836.706899,2048,0,7
1777452836.7097049,2208,0,7
1777452836.712505,2292,0,7
1777452836.715476,2077,0,7
1777452836.718501,1854,0,7
1777452836.72432,1851,0,7
1777452836.725323,2164,0,7
1777452836.7284338,2260,0,7
1777452836.7307289,2216,0,7
1777452836.736126,1907,0,7
1777452836.740045,1879,0,7
1777452836.740334,1984,0,7
1777452836.743229,2294,0,7
1777452836.745705,2199,0,7
1777452836.748661,2085,0,7
1777452836.754983,1873,0,7
1777452836.7556438,1883,0,7
1777452836.7577322,2092,0,7
1777452836.7617862,2232,0,7
1777452836.764561,2246,0,7
1777452836.7679439,1905,0,7
1777452836.7705338,1700,0,7
1777452836.7731571,1946,0,7
1777452836.775739,2166,0,7
1777452836.778507,2287,0,7
1777452836.7814689,2199,0,7
1777452836.7881658,1791,0,7
1777452836.7892969,1658,0,7
1777452836.791457,2043,0,7
1777452836.794029,2292,0,7
1777452836.798142,2249,0,7
1777452836.8014688,1918,0,7
1777452836.8042262,1819,0,7
1777452836.805599,1793,0,7
1777452836.808377,2169,0,7
1777452836.8139331,2217,0,7
1777452836.815348,2092,0,7
1777452836.817739,1905,0,7
1777452836.8217962,1707,0,7
1777452836.828056,1921,0,7
1777452836.828326,2181,0,7
1777452836.830902,2259,0,7
1777452836.832383,2038,0,7
1777452836.835434,1842,0,7
1777452836.8383539,1767,0,7
1777452836.841381,2135,0,7
1777452836.848781,2364,0,7
1777452836.849487,2137,0,7
1777452836.851938,1977,0,7
1777452836.8545768,1729,0,7
1777452836.857245,1956,0,7
1777452836.8622909,2193,0,7
1777452836.862417,2178,0,7
1777452836.8657951,1933,0,7
1777452836.868361,1794,0,7
1777452836.8746932,1704,0,7
1777452836.876153,2089,0,7
1777452836.878021,2164,0,7
1777452836.881299,2062,0,7
1777452836.884604,1834,0,7
1777452836.888034,1669,0,7
1777452836.890056,1858,0,7
1777452836.89263,2331,0,7
1777452836.895375,2091,0,7
1777452836.8983638,1961,0,7
1777452836.901355,1754,0,7
1777452836.9075332,1669,0,7
1777452836.9080389,1928,0,7
1777452836.9104152,2136,0,7
1777452836.913409,2034,0,7
1777452836.91665,1761,0,7
1777452836.91998,1556,0,7
1777452836.9225621,1746,0,7
1777452836.925371,2165,0,7
1777452836.93275,2062,0,7
1777452836.9328718,1866,0,7
1777452836.936228,1635,0,7
1777452836.938679,1654,0,7
1777452836.940974,1934,0,7
1777452836.946346,2132,0,7
1777452836.946521,1937,0,7
1777452836.9498382,1616,0,7
1777452836.9524648,1468,0,7
1777452836.955352,1735,0,7
1777452836.9583318,1864,0,7
1777452836.9657972,1798,0,7
1777452836.967456,1781,0,7
1777452836.969431,1624,0,7
1777452836.9723148,1314,0,7
1777452836.97695,1588,0,7
1777452836.980814,1857,0,7
1777452836.981316,1841,0,7
1777452836.984035,1725,0,7
1777452836.985364,1413,0,7
1777452836.988443,1422,0,7
1777452836.995649,1808,0,7
1777452836.998167,1836,0,7
1777452836.998773,1755,0,7
1777452837.001971,1578,0,7
1777452837.0091982,1285,0,7
1777452837.0095518,1456,0,7
1777452837.009793,1815,0,7
1777452837.012415,1821,0,7
1777452837.0153449,1594,0,7
1777452837.018343,1374,0,7
1777452837.021336,1287,0,7
1777452837.0245929,1723,0,7
1777452837.0310242,1944,0,7
1777452837.031647,1773,0,7
1777452837.0386822,1563,0,7
1777452837.04123,1302,0,7
1777452837.0414689,1511,0,7
1777452837.04487,1912,0,7
1777452837.0454578,1994,0,7
1777452837.048342,1825,0,7
1777452837.051342,1508,0,7
1777452837.0715451,1360,0,7
1777452837.072397,1711,0,7
1777452837.0750551,2018,0,7
1777452837.075184,1872,0,7
1777452837.075244,1653,0,7
1777452837.075294,1446,0,7
1777452837.075341,1539,0,7
1777452837.075388,1916,0,7
1777452837.078424,2080,0,7
1777452837.081346,1858,0,7
1777452837.084352,1603,0,7
1777452837.087349,1444,0,7
1777452837.097991,1746,0,7
1777452837.101098,2030,0,7
1777452837.101794,2005,0,7
1777452837.1020532,1787,0,7
1777452837.10338,1572,0,7
1777452837.1072042,1545,0,7
1777452837.111347,1966,0,7
1777452837.1117,2109,0,7
1777452837.114249,1960,0,7
1777452837.117221,1739,0,7
1777452837.120221,1478,0,7
1777452837.127295,1738,0,7
1777452837.128547,2095,0,7
1777452837.131058,2128,0,7
1777452837.133943,1888,0,7
1777452837.136032,1579,0,7
1777452837.1459332,1655,0,7
1777452837.146283,1926,0,7
1777452837.146351,2174,0,7
1777452837.1476831,2060,0,7
1777452837.15028,1786,0,7
1777452837.1532319,1540,0,7
1777452837.15622,1748,0,7
1777452837.159217,2179,0,7
1777452837.166058,2160,0,7
1777452837.166749,1996,0,7
1777452837.170178,1694,0,7
1777452837.1726341,1651,0,7
1777452837.1751318,1979,0,7
1777452837.178415,2186,0,7
1777452837.182239,2097,0,7
1777452837.185429,1887,0,7
1777452837.186819,1633,0,7
1777452837.189383,1722,0,7
1777452837.199946,2175,0,7
1777452837.200774,2193,0,7
1777452837.202967,2023,0,7
1777452837.205794,1800,0,7
1777452837.206505,1620,0,7
1777452837.208732,1984,0,7
1777452837.2121239,2249,0,7
1777452837.216259,2198,0,7
1777452837.216751,1902,0,7
1777452837.219309,1742,0,7
1777452837.222215,1740,0,7
1777452837.225211,2172,0,7
1777452837.2282171,2234,0,7
1777452837.2312179,2063,0,7
1777452837.2402198,1806,0,7
1777452837.2403681,1628,0,7
1777452837.2405279,1923,0,7
1777452837.244482,2233,0,7
1777452837.260639,2217,0,7
1777452837.2608252,1957,0,7
1777452837.2609012,1771,0,7
1777452837.2609851,1759,0,7
1777452837.261086,2137,0,7
1777452837.261208,2251,0,7
1777452837.264213,2135,0,7
1777452837.278634,1780,0,7
1777452837.2906098,1646,0,7
1777452837.290835,1899,0,7
1777452837.290941,2278,0,7
1777452837.2910662,2176,0,7
1777452837.291125,2063,0,7
1777452837.29123,1729,0,7
1777452837.291287,1723,0,7
1777452837.291337,2151,0,7
1777452837.294595,2309,0,7
1777452837.2972329,2158,0,7
1777452837.304817,1920,0,7
1777452837.304876,1628,0,7
1777452837.312659,1878,0,7
1777452837.313437,2282,0,7
1777452837.3142111,2261,0,7
1777452837.3162172,2066,0,7
1777452837.31935,1818,0,7
1777452837.321676,1711,0,7
1777452837.325263,1992,0,7
1777452837.329571,2298,0,7
1777452837.330306,2219,0,7
1777452837.333825,1962,0,7
1777452837.3365471,1657,0,7
1777452837.339262,1851,0,7
1777452837.34771,2333,0,7
1777452837.349066,2301,0,7
1777452837.34925,2109,0,7
1777452837.352937,1855,0,7
1777452837.354553,1730,0,7
1777452837.3595269,2016,0,7
1777452837.364012,2265,0,7
1777452837.3643079,2290,0,7
1777452837.367427,1981,0,7
1777452837.3692522,1734,0,7
1777452837.372239,1747,0,7
1777452837.375212,2202,0,7
1777452837.3782358,2377,0,7
1777452837.38128,2092,0,7
1777452837.387059,1898,0,7
1777452837.3878112,1726,0,7
1777452837.391399,1951,0,7
1777452837.3949618,2286,0,7
1777452837.3976672,2252,0,7
1777452837.3997009,2008,0,7
1777452837.403512,1734,0,7
1777452837.406865,1769,0,7
1777452837.4082382,2178,0,7
1777452837.411199,2254,0,7
1777452837.4187489,2185,0,7
1777452837.42023,1937,0,7
1777452837.421626,1722,0,7
1777452837.42379,1921,0,7
1777452837.4263139,2279,0,7
1777452837.429589,2267,0,7
1777452837.4356081,2101,0,7
1777452837.435788,1805,0,7
1777452837.438976,1705,0,7
1777452837.4415622,2138,0,7
1777452837.444139,2240,0,7
1777452837.447113,2192,0,7
1777452837.450113,2041,0,7
1777452837.458137,1622,0,7
1777452837.458279,1821,0,7
1777452837.459827,2306,0,7
1777452837.4625468,2316,0,7
1777452837.4674292,2031,0,7
1777452837.4691489,1723,0,7
1777452837.4714859,1779,0,7
1777452837.475261,2077,0,7
1777452837.4788039,2168,0,7
1777452837.480161,2239,0,7
1777452837.483114,2027,0,7
1777452837.4914508,1643,0,7
1777452837.495633,1755,0,7
1777452837.495967,2293,0,7
1777452837.496292,2439,0,7
1777452837.499222,2083,0,7
1777452837.5013819,1766,0,7
1777452837.5046022,1658,0,7
1777452837.5086799,2076,0,7
1777452837.511766,2321,0,7
1777452837.51311,2312,0,7
1777452837.516116,2086,0,7
1777452837.51912,1622,0,7
1777452837.522125,1704,0,7
1777452837.5250921,2230,0,7
1777452837.532186,2326,0,7
1777452837.532885,2052,0,7
1777452837.535597,1849,0,7
1777452837.539159,1744,0,7
1777452837.5412538,1786,0,7
1777452837.543881,2199,0,7
1777452837.547721,2240,0,7
1777452837.550924,2026,0,7
1777452837.5524118,2027,0,7
1777452837.555091,1706,0,7
1777452837.5634959,2242,0,7
1777452837.564234,2342,0,7
1777452837.564405,2297,0,7
1777452837.567245,2097,0,7
1777452837.571199,1632,0,7
1777452837.5737238,2031,0,7
1777452837.580821,2325,0,7
1777452837.581117,2364,0,7
1777452837.5846221,2247,0,7
1777452837.5850828,1787,0,7
1777452837.588116,2075,0,7
1777452837.5911,2032,0,7
1777452837.594143,2269,0,7
1777452837.597095,2337,0,7
1777452837.607811,2054,0,7
1777452837.610522,1730,0,7
1777452837.610925,1780,0,7
1777452837.6114361,2330,0,7
1777452837.6163478,2318,0,7
1777452837.617234,2218,0,7
1777452837.624811,1837,0,7
1777452837.625126,1873,0,7
1777452837.625437,2008,0,7
1777452837.628578,2299,0,7
1777452837.63011,2335,0,7
1777452837.6330922,2003,0,7
1777452837.642335,1625,0,7
1777452837.644934,1827,0,7
1777452837.645082,2333,0,7
1777452837.6454558,2418,0,7
1777452837.6488729,2096,0,7
1777452837.653651,1854,0,7
1777452837.657505,1635,0,7
1777452837.657708,2101,0,7
1777452837.660911,2309,0,7
1777452837.663574,2126,0,7
1777452837.6661088,2037,0,7
1777452837.6690822,1644,0,7
1777452837.6721332,1723,0,7
1777452837.6750789,2204,0,7
1777452837.682477,2406,0,7
1777452837.683889,2165,0,7
1777452837.6859,1938,0,7
1777452837.688983,1571,0,7
1777452837.691207,2091,0,7
1777452837.6944818,2416,0,7
1777452837.6985369,2360,0,7
1777452837.699114,2152,0,7
1777452837.702497,1892,0,7
1777452837.705106,1911,0,7
1777452837.713686,2308,0,7
1777452837.713823,2375,0,7
1777452837.715035,2291,0,7
1777452837.71738,2083,0,7
1777452837.720722,1807,0,7
1777452837.7232902,2150,0,7
1777452837.729148,2407,0,7
1777452837.729426,2518,0,7
1777452837.732388,2232,0,7
1777452837.735111,2060,0,7
1777452837.73811,1871,0,7
1777452837.741079,2289,0,7
1777452837.744108,2518,0,7
1777452837.751056,2283,0,7
1777452837.751654,2277,0,7
1777452837.754127,1954,0,7
1777452837.756253,1942,0,7
1777452837.761118,2515,0,7
1777452837.764597,2387,0,7
1777452837.765104,2285,0,7
1777452837.768481,2126,0,7
1777452837.77126,1894,0,7
1777452837.7789419,2410,0,7
1777452837.780759,2500,0,7
1777452837.78257,2367,0,7
1777452837.7846458,2450,0,7
1777452837.786877,1772,0,7
1777452837.790729,2064,0,7
1777452837.7971132,2511,0,7
1777452837.798033,2611,0,7
1777452837.798142,2182,0,7
1777452837.800956,2054,0,7
1777452837.804783,1824,0,7
1777452837.8074281,2061,0,7
1777452837.8100538,2493,0,7
1777452837.818943,2466,0,7
1777452837.819752,2126,0,7
1777452837.8205519,1997,0,7
1777452837.823612,1987,0,7
1777452837.8267741,2294,0,7
1777452837.829102,2490,0,7
1777452837.8323462,2471,0,7
1777452837.8365471,2051,0,7
1777452837.836994,1770,0,7
1777452837.84062,2136,0,7
1777452837.843271,2414,0,7
1777452837.846211,2381,0,7
1777452837.8521972,2093,0,7
1777452837.85305,1923,0,7
1777452837.8565938,1919,0,7
1777452837.8593762,2139,0,7
1777452837.862172,2595,0,7
1777452837.8641238,2299,0,7
1777452837.867486,2060,0,7
1777452837.8704882,1834,0,7
1777452837.873101,2076,0,7
1777452837.8759959,2466,0,7
1777452837.878954,2398,0,7
1777452837.8819761,2116,0,7
1777452837.8891609,2009,0,7
1777452837.8897321,1892,0,7
1777452837.89392,2192,0,7
1777452837.89461,2392,0,7
1777452837.902197,2308,0,7
1777452837.902425,2198,0,7
1777452837.905053,1802,0,7
1777452837.906365,1819,0,7
1777452837.908978,2207,0,7
1777452837.916251,2441,0,7
1777452837.917257,2332,0,7
1777452837.919213,1731,0,7
1777452837.9225469,1774,0,7
1777452837.924586,2218,0,7
1777452837.929636,2404,0,7
1777452837.930052,2248,0,7
1777452837.933366,2058,0,7
1777452837.9360251,2105,0,7
1777452837.9389591,1989,0,7
1777452837.94259,2379,0,7
1777452837.949692,2470,0,7
1777452837.950714,2241,0,7
1777452837.9513412,2048,0,7
1777452837.955646,2115,0,7
1777452837.957827,2253,0,7
1777452837.960316,2533,0,7
1777452837.966332,2357,0,7
1777452837.9664671,2204,0,7
1777452837.969035,1936,0,7
1777452837.971981,2062,0,7
1777452837.977205,2533,0,7
1777452837.9800599,2375,0,7
1777452837.982592,2092,0,7
1777452837.9847171,2183,0,7
1777452837.990052,2162,0,7
1777452837.990298,2285,0,7
1777452837.993085,2344,0,7
1777452837.9959638,2425,0,7
1777452837.9989781,2433,0,7
1777452838.001963,2089,0,7
1777452838.004976,1983,0,7
1777452838.0116282,2451,0,7
1777452838.012726,2532,0,7
1777452838.0147169,2281,0,7
1777452838.017356,2487,0,7
1777452838.0252612,2298,0,7
1777452838.025635,2113,0,7
1777452838.026056,2364,0,7
1777452838.029634,2534,0,7
1777452838.032256,2341,0,7
1777452838.039556,2342,0,7
1777452838.0410051,2098,0,7
1777452838.0411232,2197,0,7
1777452838.045194,2488,0,7
1777452838.047318,2606,0,7
1777452838.0500321,2296,0,7
1777452838.053633,2240,0,7
1777452838.056316,2287,0,7
1777452838.058887,2719,0,7
1777452838.061863,2655,0,7
1777452838.064833,2654,0,7
1777452838.0678341,2381,0,7
1777452838.073534,2063,0,7
1777452838.07417,2347,0,7
1777452838.079521,2609,0,7
1777452838.0801458,2569,0,7
1777452838.083961,2336,0,7
1777452838.0873432,2201,0,7
1777452838.090065,1948,0,7
1777452838.092724,2490,0,7
1777452838.095335,2710,0,7
1777452838.100773,2641,0,7
1777452838.101664,1960,0,7
1777452838.105218,2008,0,7
1777452838.107478,2158,0,7
1777452838.110514,2474,0,7
1777452838.1138408,2330,0,7
1777452838.116092,2198,0,7
1777452838.1190422,1800,0,7
1777452838.121875,1566,0,7
1777452838.1248581,2335,0,7
1777452838.1278322,2195,0,7
1777452838.134511,2192,0,7
1777452838.135565,2090,0,7
1777452838.1379101,1695,0,7
1777452838.140364,1741,0,7
1777452838.144435,2271,0,7
1777452838.1480079,2270,0,7
1777452838.150225,2113,0,7
1777452838.1518521,1895,0,7
1777452838.1548438,1810,0,7
1777452838.1634738,2034,0,7
1777452838.166906,2293,0,7
1777452838.168389,2282,0,7
1777452838.170012,2057,0,7
1777452838.17103,1792,0,7
1777452838.176461,1906,0,7
1777452838.17659,2281,0,7
1777452838.179533,2291,0,7
1777452838.182076,2107,0,7
1777452838.184823,1837,0,7
1777452838.187829,1789,0,7
1777452838.1908429,2155,0,7
1777452838.197937,2394,0,7
1777452838.1992629,2091,0,7
1777452838.200522,1934,0,7
1777452838.20293,1860,0,7
1777452838.207495,2095,0,7
1777452838.209121,2154,0,7
1777452838.215435,2216,0,7
1777452838.215787,2218,0,7
1777452838.2181911,2030,0,7
1777452838.2208588,2048,0,7
1777452838.223851,2098,0,7
1777452838.2297752,2355,0,7
1777452838.229913,2320,0,7
1777452838.23333,1976,0,7
1777452838.237708,1881,0,7
1777452838.244267,1914,0,7
1777452838.244664,2352,0,7
1777452838.244877,2291,0,7
1777452838.248149,2575,0,7
1777452838.250849,1790,0,7
1777452838.2538571,1852,0,7
1777452838.256833,2073,0,7
1777452838.2598631,2384,0,7
1777452838.266974,2378,0,7
1777452838.2691982,2238,0,7
1777452838.269388,1614,0,7
1777452838.272511,1756,0,7
1777452838.276312,2406,0,7
1777452838.279784,2442,0,7
1777452838.282003,2343,0,7
1777452838.2838159,2195,0,7
1777452838.286837,2079,0,7
1777452838.2967942,2057,0,7
1777452838.297068,2328,0,7
1777452838.297419,2441,0,7
1777452838.299731,2133,0,7
1777452838.3020108,1668,0,7
1777452838.305482,1821,0,7
1777452838.3093278,2243,0,7
1777452838.3115149,2255,0,7
1777452838.314135,2146,0,7
1777452838.316855,1982,0,7
1777452838.319828,1797,0,7
1777452838.322853,1932,0,7
1777452838.3295648,2140,0,7
1777452838.3305962,2383,0,7
1777452838.333038,2360,0,7
1777452838.336031,1896,0,7
1777452838.3382468,1861,0,7
1777452838.343523,2052,0,7
1777452838.3439019,2184,0,7
1777452838.347162,2202,0,7
1777452838.349817,2077,0,7
1777452838.357307,1949,0,7
1777452838.358287,1755,0,7
1777452838.358916,2133,0,7
1777452838.3636632,2227,0,7
1777452838.3654459,2127,0,7
1777452838.3709,2047,0,7
1777452838.371116,1725,0,7
1777452838.373858,2018,0,7
1777452838.376816,2312,0,7
1777452838.3798442,2297,0,7
1777452838.382825,2118,0,7
1777452838.385825,1857,0,7
1777452838.390835,1915,0,7
1777452838.3940759,2388,0,7
1777452838.396271,2400,0,7
1777452838.399337,2287,0,7
1777452838.401189,1917,0,7
1777452838.4046469,1792,0,7
1777452838.407587,2058,0,7
1777452838.4101498,2359,0,7
1777452838.4128041,2285,0,7
1777452838.418345,2119,0,7
1777452838.418899,1917,0,7
1777452838.423501,1805,0,7
1777452838.426112,2153,0,7
1777452838.4279628,2491,0,7
1777452838.431433,2357,0,7
1777452838.434135,2075,0,7
1777452838.436727,1856,0,7
1777452838.439701,1953,0,7
1777452838.442723,2226,0,7
1777452838.445693,2415,0,7
1777452838.4516501,2126,0,7
1777452838.451776,1948,0,7
1777452838.4547808,1863,0,7
1777452838.461678,2112,0,7
1777452838.4653,2404,0,7
1777452838.465705,2169,0,7
1777452838.467859,2115,0,7
1777452838.46968,1843,0,7
1777452838.472685,1901,0,7
1777452838.480265,2313,0,7
1777452838.4809349,2392,0,7
1777452838.483281,2213,0,7
1777452838.4866078,1911,0,7
1777452838.4908538,1963,0,7
1777452838.494546,2108,0,7
1777452838.49554,2384,0,7
1777452838.498026,2263,0,7
1777452838.499736,2274,0,7
1777452838.5026948,1899,0,7
1777452838.506366,1880,0,7
1777452838.508972,2201,0,7
1777452838.516177,2199,0,7
1777452838.519399,2260,0,7
1777452838.519712,1959,0,7
1777452838.524394,1828,0,7
1777452838.525027,2058,0,7
1777452838.5314062,2398,0,7
1777452838.5319092,2083,0,7
1777452838.534794,2075,0,7
1777452838.536145,1881,0,7
1777452838.53881,1848,0,7
1777452838.547362,2166,0,7
1777452838.548033,2231,0,7
1777452838.549293,2173,0,7
1777452838.551171,1925,0,7
1777452838.55494,1874,0,7
1777452838.557255,2002,0,7
1777452838.563593,2302,0,7
1777452838.5637178,2276,0,7
1777452838.5669918,2129,0,7
1777452838.568684,1879,0,7
1777452838.571693,1813,0,7
1777452838.574694,1975,0,7
1777452838.577697,2321,0,7
1777452838.580698,2205,0,7
1777452838.5909278,1964,0,7
1777452838.591286,1770,0,7
1777452838.593305,1834,0,7
1777452838.594651,2140,0,7
1777452838.596193,2227,0,7
1777452838.6035469,2083,0,7
1777452838.60398,1889,0,7
1777452838.606986,1732,0,7
1777452838.608626,2111,0,7
1777452838.611368,2290,0,7
1777452838.6189382,2232,0,7
1777452838.619736,1985,0,7
1777452838.620001,1852,0,7
1777452838.6253078,1820,0,7
1777452838.626535,2217,0,7
1777452838.6313548,2250,0,7
1777452838.635318,2032,0,7
1777452838.635725,1956,0,7
1777452838.6389172,1735,0,7
1777452838.640693,1921,0,7
1777452838.6436899,2351,0,7
1777452838.646691,2288,0,7
1777452838.649687,1919,0,7
1777452838.652867,1700,0,7
1777452838.6589959,1764,0,7
1777452838.6596649,2151,0,7
1777452838.663051,2269,0,7
1777452838.666486,2097,0,7
1777452838.668637,1833,0,7
1777452838.675167,1635,0,7
1777452838.675638,1851,0,7
1777452838.678802,2202,0,7
1777452838.680178,2292,0,7
1777452838.682801,1963,0,7
1777452838.691359,1707,0,7
1777452838.694945,1658,0,7
1777452838.6952782,1909,0,7
1777452838.6956449,2166,0,7
1777452838.698515,2136,0,7
1777452838.703844,1952,0,7
1777452838.704052,1577,0,7
1777452838.708402,1811,0,7
1777452838.7116501,2101,0,7
1777452838.7129989,2105,0,7
1777452838.715598,1863,0,7
1777452838.718564,1675,0,7
1777452838.721578,1691,0,7
1777452838.725239,2232,0,7
1777452838.732329,2147,0,7
1777452838.733113,2061,0,7
1777452838.735064,1993,0,7
1777452838.737377,1689,0,7
1777452838.743138,1588,0,7
1777452838.74388,2031,0,7
1777452838.74613,2265,0,7
1777452838.7505422,1851,0,7
1777452838.753549,1664,0,7
1777452838.754909,1542,0,7
1777452838.7575748,1884,0,7
1777452838.7663412,2041,0,7
1777452838.767085,2038,0,7
1777452838.768277,1700,0,7
1777452838.770184,1597,0,7
1777452838.7737322,1648,0,7
1777452838.775688,1882,0,7
1777452838.7790248,1990,0,7
1777452838.785683,1927,0,7
1777452838.7861938,1673,0,7
1777452838.7877,1605,0,7
1777452838.790594,1764,0,7
1777452838.793576,2102,0,7
1777452838.796572,2032,0,7
1777452838.7996778,1690,0,7
1777452838.808778,1450,0,7
1777452838.809767,1469,0,7
1777452838.8132749,1856,0,7
1777452838.8155992,2038,0,7
1777452838.8163042,1861,0,7
1777452838.818597,1701,0,7
1777452838.822365,1354,0,7
1777452838.826279,1707,0,7
1777452838.826617,2014,0,7
1777452838.829746,2018,0,7
1777452838.832588,1677,0,7
1777452838.835584,1501,0,7
1777452838.842416,1506,0,7
1777452838.843157,1851,0,7
1777452838.846216,1975,0,7
1777452838.848691,1886,0,7
1777452838.8508239,1598,0,7
1777452838.8545,1349,0,7
1777452838.858294,1558,0,7
1777452838.8608289,1948,0,7
1777452838.8625762,1952,0,7
1777452838.8655832,1796,0,7
1777452838.868576,1501,0,7
1777452838.871551,1440,0,7
1777452838.8745852,1752,0,7
1777452838.881383,1988,0,7
1777452838.8819368,1889,0,7
1777452838.885206,1659,0,7
1777452838.88751,1372,0,7
1777452838.893033,1509,0,7
1777452838.893265,1909,0,7
1777452838.897023,2020,0,7
1777452838.900169,1842,0,7
1777452838.90158,1536,0,7
1777452838.904587,1379,0,7
1777452838.911166,1712,0,7
1777452838.911792,2007,0,7
1777452838.914952,1975,0,7
1777452838.917242,1734,0,7
1777452838.920594,1452,0,7
1777452838.9225888,1480,0,7
1777452838.926451,1970,0,7
1777452838.929448,2087,0,7
1777452838.932033,1907,0,7
1777452838.934604,1687,0,7
1777452838.937588,1466,0,7
1777452838.940598,1783,0,7
1777452838.948447,2118,0,7
1777452838.948556,2073,0,7
1777452838.952193,1821,0,7
1777452838.955083,1521,0,7
1777452838.955743,1527,0,7
1777452838.964021,2019,0,7
1777452838.964409,2118,0,7
1777452838.9646568,1919,0,7
1777452838.9687161,1739,0,7
1777452838.970583,1549,0,7
1777452838.978197,1833,0,7
1777452838.978305,2153,0,7
1777452838.979903,2179,0,7
1777452838.983814,2030,0,7
1777452838.9858508,1685,0,7
1777452838.991384,1626,0,7
1777452838.991677,1992,0,7
1777452838.9949949,2177,0,7
1777452838.997579,2106,0,7
1777452839.0005481,1849,0,7
1777452839.003548,1556,0,7
1777452839.010925,1796,0,7
1777452839.0113971,2193,0,7
1777452839.014177,2244,0,7
1777452839.016623,1923,0,7
1777452839.0187478,1709,0,7
1777452839.0266209,1631,0,7
1777452839.0274718,2008,0,7
1777452839.027574,2216,0,7
1777452839.030563,2137,0,7
1777452839.0386848,1914,0,7
1777452839.039419,1590,0,7
1777452839.040097,1756,0,7
1777452839.042613,2270,0,7
1777452839.0456052,2267,0,7
1777452839.049533,2076,0,7
1777452839.052883,1786,0,7
1777452839.055111,1638,0,7
1777452839.0577002,1987,0,7
1777452839.060443,2295,0,7
1777452839.06345,2256,0,7
1777452839.066431,1967,0,7
1777452839.074065,1661,0,7
1777452839.074185,1754,0,7
1777452839.077284,2219,0,7
1777452839.079347,2181,0,7
1777452839.081473,2040,0,7
1777452839.087507,1838,0,7
1777452839.08785,1652,0,7
1777452839.090653,1881,0,7
1777452839.093466,2280,0,7
1777452839.100991,2212,0,7
1777452839.101986,2031,0,7
1777452839.104548,1705,0,7
1777452839.107562,1708,0,7
1777452839.109757,2174,0,7
1777452839.111657,2299,0,7
1777452839.1150668,2138,0,7
1777452839.117964,1838,0,7
1777452839.12061,1637,0,7
1777452839.123455,1944,0,7
1777452839.126464,2210,0,7
1777452839.129429,2231,0,7
1777452839.136072,2074,0,7
1777452839.138776,1747,0,7
1777452839.138964,1695,0,7
1777452839.142207,2052,0,7
1777452839.1492841,2254,0,7
1777452839.14942,2203,0,7
1777452839.1520698,1917,0,7
1777452839.1534579,1646,0,7
1777452839.156459,1881,0,7
1777452839.162762,2311,0,7
1777452839.1657238,2283,0,7
1777452839.165982,2081,0,7
1777452839.1701682,1739,0,7
1777452839.172874,1667,0,7
1777452839.176215,2076,0,7
1777452839.178852,2302,0,7
1777452839.180473,2187,0,7
1777452839.1834419,1932,0,7
1777452839.1864178,1651,0,7
1777452839.189415,1841,0,7
1777452839.1967292,2282,0,7
1777452839.1976929,2322,0,7
1777452839.200021,2094,0,7
1777452839.2020102,1843,0,7
1777452839.20659,1685,0,7
1777452839.209976,1986,0,7
1777452839.2104561,2305,0,7
1777452839.213415,2235,0,7
1777452839.216446,1984,0,7
1777452839.223665,1730,0,7
1777452839.226207,1805,0,7
1777452839.226572,2241,0,7
1777452839.2285812,2297,0,7
1777452839.236403,2195,0,7
1777452839.236639,1894,0,7
1777452839.239525,1630,0,7
1777452839.240872,1935,0,7
1777452839.243465,2310,0,7
1777452839.246453,2293,0,7
1777452839.24945,2009,0,7
1777452839.258788,1783,0,7
1777452839.2593448,1729,0,7
1777452839.259475,2110,0,7
1777452839.261476,2275,0,7
1777452839.2651908,2192,0,7
1777452839.268204,1955,0,7
1777452839.271523,1647,0,7
1777452839.2743711,1891,0,7
1777452839.277044,2304,0,7
1777452839.279789,2310,0,7
1777452839.285236,2093,0,7
1777452839.2882078,1789,0,7
1777452839.288424,1699,0,7
1777452839.2921531,2105,0,7
1777452839.298652,2315,0,7
1777452839.2990122,2220,0,7
1777452839.301239,1930,0,7
1777452839.303881,1670,0,7
1777452839.306488,1887,0,7
1777452839.309452,2220,0,7
1777452839.312423,2317,0,7
1777452839.318541,2110,0,7
1777452839.319168,1808,0,7
1777452839.322452,1656,0,7
1777452839.3254669,2019,0,7
1777452839.329273,2304,0,7
1777452839.3326972,2194,0,7
1777452839.335474,1976,0,7
1777452839.336778,1727,0,7
1777452839.339455,1784,0,7
1777452839.345377,2184,0,7
1777452839.346394,2270,0,7
1777452839.3488472,2114,0,7
1777452839.352534,1823,0,7
1777452839.355795,1640,0,7
1777452839.359164,1945,0,7
1777452839.361901,2338,0,7
1777452839.363466,2239,0,7
1777452839.366304,2007,0,7
1777452839.369332,1707,0,7
1777452839.372303,1746,0,7
1777452839.37965,2181,0,7
1777452839.380269,2334,0,7
1777452839.382292,2124,0,7
1777452839.3858628,1851,0,7
1777452839.388915,1643,0,7
1777452839.392223,1962,0,7
1777452839.394907,2341,0,7
1777452839.396384,2276,0,7
1777452839.399325,1997,0,7
1777452839.4049861,1715,0,7
1777452839.406066,1715,0,7
1777452839.4085681,2175,0,7
1777452839.413527,2263,0,7
1777452839.415294,2174,0,7
1777452839.418658,1899,0,7
1777452839.4214542,1662,0,7
1777452839.424035,1886,0,7
1777452839.4266,2366,0,7
1777452839.429336,2312,0,7
1777452839.4323258,2016,0,7
1777452839.43995,1848,0,7
1777452839.440951,1662,0,7
1777452839.4425962,2042,0,7
1777452839.4445949,2330,0,7
1777452839.447673,2188,0,7
1777452839.452767,1976,0,7
1777452839.455439,1636,0,7
1777452839.4567869,1819,0,7
1777452839.459359,2264,0,7
1777452839.468054,2343,0,7
1777452839.46884,2090,0,7
1777452839.470939,1796,0,7
1777452839.473121,1768,0,7
1777452839.4755032,2031,0,7
1777452839.478281,2235,0,7
1777452839.481605,2229,0,7
1777452839.4841962,1923,0,7
1777452839.486764,1712,0,7
1777452839.4893692,1747,0,7
1777452839.492331,2262,0,7
1777452839.49534,2283,0,7
1777452839.501226,2075,0,7
1777452839.502669,1829,0,7
1777452839.5048,1619,0,7
1777452839.507617,2019,0,7
1777452839.511691,2332,0,7
1777452839.515591,2409,0,7
1777452839.518768,2099,0,7
1777452839.519298,1702,0,7
1777452839.5223029,1681,0,7
1777452839.52893,2290,0,7
1777452839.5296168,2309,0,7
1777452839.5329201,2213,0,7
1777452839.5354052,1983,0,7
1777452839.537646,1615,0,7
1777452839.541368,2134,0,7
1777452839.545515,2386,0,7
1777452839.548193,2255,0,7
1777452839.549653,2129,0,7
1777452839.552317,1958,0,7
1777452839.555295,1885,0,7
1777452839.558302,2191,0,7
1777452839.561292,2327,0,7
1777452839.568888,2383,0,7
1777452839.5696461,2076,0,7
1777452839.573555,1762,0,7
1777452839.573926,2089,0,7
1777452839.576297,2436,0,7
1777452839.5795908,2344,0,7
1777452839.586605,2210,0,7
1777452839.586926,1939,0,7
1777452839.590254,1903,0,7
1777452839.5916538,2276,0,7
1777452839.5942972,2271,0,7
1777452839.597306,2378,0,7
1777452839.603771,2075,0,7
1777452839.605263,1822,0,7
1777452839.608348,2009,0,7
1777452839.610759,2329,0,7
1777452839.612875,2410,0,7
1777452839.620947,2319,0,7
1777452839.621383,1941,0,7
1777452839.621674,1824,0,7
1777452839.625004,2150,0,7
1777452839.627682,2516,0,7
1777452839.6303182,2430,0,7
1777452839.6333299,2105,0,7
1777452839.6363351,1898,0,7
1777452839.6392992,2050,0,7
1777452839.645927,2437,0,7
1777452839.647149,2515,0,7
1777452839.649494,2361,0,7
1777452839.65259,2330,0,7
1777452839.655206,1830,0,7
1777452839.6581602,2328,0,7
1777452839.662007,2538,0,7
1777452839.6645708,2531,0,7
1777452839.666325,2273,0,7
1777452839.6692,2116,0,7
1777452839.677242,2027,0,7
1777452839.679233,2455,0,7
1777452839.682018,2699,0,7
1777452839.682643,2587,0,7
1777452839.6867929,2175,0,7
1777452839.688668,2055,0,7
1777452839.691387,2282,0,7
1777452839.695424,2810,0,7
1777452839.698449,2723,0,7
1777452839.699779,2659,0,7
1777452839.7023559,2109,0,7
1777452839.705209,2395,0,7
1777452839.708172,2542,0,7
1777452839.711429,2849,0,7
1777452839.716869,2674,0,7
1777452839.7178292,2530,0,7
1777452839.722749,2186,0,7
1777452839.723356,2335,0,7
1777452839.726838,2709,0,7
1777452839.7302122,2711,0,7
1777452839.732873,2393,0,7
1777452839.735452,2143,0,7
1777452839.738425,2118,0,7
1777452839.743988,2334,0,7
1777452839.744647,2599,0,7
1777452839.7472608,2369,0,7
1777452839.750846,2345,0,7
1777452839.7538161,2131,0,7
1777452839.757527,2075,0,7
1777452839.760027,2466,0,7
1777452839.762592,2518,0,7
1777452839.765267,2222,0,7
1777452839.768203,2093,0,7
1777452839.771163,1818,0,7
1777452839.777303,2130,0,7
1777452839.778682,2413,0,7
1777452839.7804081,2265,0,7
1777452839.784083,2150,0,7
1777452839.7870998,1950,0,7
1777452839.790772,2002,0,7
1777452839.793378,2282,0,7
1777452839.7951932,2392,0,7
1777452839.7981691,2057,0,7
1777452839.80578,1991,0,7
1777452839.806426,1720,0,7
1777452839.808387,1883,0,7
1777452839.8116019,2273,0,7
1777452839.815,2257,0,7
1777452839.82142,2194,0,7
1777452839.821921,1687,0,7
1777452839.822276,1709,0,7
1777452839.82546,2265,0,7
1777452839.828201,2384,0,7
1777452839.831163,2050,0,7
1777452839.8341691,2054,0,7
1777452839.8371682,1728,0,7
1777452839.843552,1899,0,7
1777452839.844123,2358,0,7
1777452839.847557,2117,0,7
1777452839.8499289,2002,0,7
1777452839.854073,1791,0,7
1777452839.85762,1663,0,7
1777452839.8581991,1999,0,7
1777452839.861281,2321,0,7
1777452839.864157,2135,0,7
1777452839.871069,1990,0,7
1777452839.871186,1610,0,7
1777452839.8738408,1791,0,7
1777452839.8769898,2125,0,7
1777452839.8805509,2277,0,7
1777452839.883848,2102,0,7
1777452839.8864708,1764,0,7
1777452839.88819,1636,0,7
1777452839.891192,1997,0,7
1777452839.894186,2159,0,7
1777452839.897158,2040,0,7
1777452839.9036071,1957,0,7
1777452839.903811,1928,0,7
1777452839.909292,1795,0,7
1777452839.910937,1948,0,7
1777452839.9154618,2055,0,7
1777452839.91946,2072,0,7
1777452839.9199722,1989,0,7
1777452839.922704,1583,0,7
1777452839.924166,1773,0,7
1777452839.9271638,2050,0,7
1777452839.933645,2020,0,7
1777452839.9347992,2102,0,7
1777452839.937104,1576,0,7
1777452839.944608,1943,0,7
1777452839.94515,2054,0,7
1777452839.9491022,2230,0,7
1777452839.949484,1973,0,7
1777452839.9525208,1944,0,7
1777452839.954157,1766,0,7
1777452839.95717,1828,0,7
1777452839.960164,2195,0,7
1777452839.963156,2296,0,7
1777452839.966507,2336,0,7
1777452839.9741518,1309,0,7
1777452839.974923,1470,0,7
1777452839.975637,2113,0,7
1777452839.9783401,2442,0,7
1777452839.9821508,2311,0,7
1777452839.9843898,1851,0,7
1777452839.990922,1652,0,7
1777452839.9912388,1782,0,7
1777452839.994045,2326,0,7
1777452839.996894,2463,0,7
1777452839.9997,2238,0,7
1777452840.009106,1885,0,7
1777452840.01217,1651,0,7
1777452840.012429,2019,0,7
1777452840.012734,2441,0,7
1777452840.015614,2320,0,7
1777452840.0171762,1976,0,7
1777452840.020947,1729,0,7
1777452840.025275,1991,0,7
1777452840.028664,2329,0,7
1777452840.029087,2367,0,7
1777452840.032214,2363,0,7
1777452840.03513,1958,0,7
1777452840.038049,1898,0,7
1777452840.041034,2289,0,7
1777452840.0441458,2615,0,7
1777452840.05136,2330,0,7
1777452840.053529,2167,0,7
1777452840.058799,1932,0,7
1777452840.06081,2133,0,7
1777452840.062567,2386,0,7
1777452840.065346,2409,0,7
1777452840.065622,2316,0,7
1777452840.069987,2089,0,7
1777452840.0736141,1949,0,7
1777452840.074063,2223,0,7
1777452840.077065,2564,0,7
1777452840.080044,2507,0,7
1777452840.086716,2296,0,7
1777452840.088068,2045,0,7
1777452840.093788,1909,0,7
1777452840.094434,2197,0,7
1777452840.0958421,2481,0,7
1777452840.099902,2377,0,7
1777452840.104309,2206,0,7
1777452840.104436,1696,0,7
1777452840.107512,1979,0,7
1777452840.110176,2447,0,7
1777452840.113034,2410,0,7
1777452840.1160371,2300,0,7
1777452840.11903,2052,0,7
1777452840.129099,1918,0,7
1777452840.131146,2344,0,7
1777452840.1319711,2466,0,7
1777452840.134022,2336,0,7
1777452840.139008,2305,0,7
1777452840.1411378,1925,0,7
1777452840.143425,2112,0,7
1777452840.143735,2566,0,7
1777452840.148226,2674,0,7
1777452840.151665,2445,0,7
1777452840.152031,2253,0,7
1777452840.155822,2139,0,7
1777452840.165465,2554,0,7
1777452840.1667252,2800,0,7
1777452840.1670241,2288,0,7
1777452840.169305,2427,0,7
1777452840.1730728,2050,0,7
1777452840.1737652,2268,0,7
1777452840.178048,2712,0,7
1777452840.182147,2401,0,7
1777452840.182492,2509,0,7
1777452840.185567,2030,0,7
1777452840.1881979,2192,0,7
1777452840.191038,2705,0,7
1777452840.1940238,2110,0,7
1777452840.197046,2275,0,7
1777452840.200036,2431,0,7
1777452840.207254,1880,0,7
1777452840.2075279,1886,0,7
1777452840.209263,2563,0,7
1777452840.225651,2380,0,7
1777452840.226753,2509,0,7
1777452840.226827,2209,0,7
1777452840.2269208,1864,0,7
1777452840.2270138,1994,0,7
1777452840.227084,2382,0,7
1777452840.230027,2328,0,7
1777452840.239296,2253,0,7
1777452840.24321,1925,0,7
1777452840.2452722,1879,0,7
1777452840.2465851,2194,0,7
1777452840.247406,2370,0,7
1777452840.252379,2368,0,7
1777452840.252661,2107,0,7
1777452840.260437,1844,0,7
1777452840.2606459,2073,0,7
1777452840.260881,2331,0,7
1777452840.263545,2233,0,7
1777452840.266452,2132,0,7
1777452840.269087,1942,0,7
1777452840.2719302,1830,0,7
1777452840.281864,2249,0,7
1777452840.282548,2345,0,7
1777452840.283322,2266,0,7
1777452840.285596,2095,0,7
1777452840.2882361,1678,0,7
1777452840.291255,1959,0,7
1777452840.294676,2285,0,7
1777452840.298882,2337,0,7
1777452840.299684,2166,0,7
1777452840.302803,1921,0,7
1777452840.3054101,1856,0,7
1777452840.3080041,2116,0,7
1777452840.314647,2379,0,7
1777452840.315902,2356,0,7
1777452840.3193421,2054,0,7
1777452840.321878,1807,0,7
1777452840.3246038,1956,0,7
1777452840.327945,2245,0,7
1777452840.332008,2287,0,7
1777452840.3322492,2147,0,7
1777452840.335448,2055,0,7
1777452840.338034,1731,0,7
1777452840.340912,2088,0,7
1777452840.343912,2329,0,7
1777452840.346915,2197,0,7
1777452840.354929,2117,0,7
1777452840.355051,1941,0,7
1777452840.357207,1962,0,7
1777452840.3592682,2395,0,7
1777452840.362118,2119,0,7
1777452840.3652139,2157,0,7
1777452840.371089,2050,0,7
1777452840.371412,1910,0,7
1777452840.3743849,1972,0,7
1777452840.376966,2276,0,7
1777452840.379929,2464,0,7
1777452840.388673,2152,0,7
1777452840.389302,1726,0,7
1777452840.3910358,1708,0,7
1777452840.393871,2160,0,7
1777452840.3954,2365,0,7
1777452840.398867,2219,0,7
1777452840.402814,1958,0,7
1777452840.4053,1798,0,7
1777452840.406922,1974,0,7
1777452840.409933,2371,0,7
1777452840.412926,2263,0,7
1777452840.415933,2122,0,7
1777452840.418925,1931,0,7
1777452840.4253309,1890,0,7
1777452840.425487,2134,0,7
1777452840.4291992,2306,0,7
1777452840.432124,2243,0,7
1777452840.434093,1982,0,7
1777452840.4409258,1800,0,7
1777452840.441053,1864,0,7
1777452840.444094,2247,0,7
1777452840.44592,2390,0,7
1777452840.4489322,2090,0,7
1777452840.456169,1884,0,7
1777452840.457684,1767,0,7
1777452840.459543,2143,0,7
1777452840.462804,2298,0,7
1777452840.4643662,2356,0,7
1777452840.467287,2073,0,7
1777452840.47102,1853,0,7
1777452840.473769,1964,0,7
1777452840.476334,2095,0,7
1777452840.478945,2292,0,7
1777452840.481932,2239,0,7
1777452840.484938,1886,0,7
1777452840.490606,1878,0,7
1777452840.4912379,1965,0,7
1777452840.495774,2312,0,7
1777452840.4978921,2229,0,7
1777452840.500573,1923,0,7
1777452840.504041,1803,0,7
1777452840.506861,1802,0,7
1777452840.5096588,2191,0,7
1777452840.518135,2262,0,7
1777452840.521527,2105,0,7
1777452840.52192,1979,0,7
1777452840.5222569,1732,0,7
1777452840.5265212,1959,0,7
1777452840.5278668,2208,0,7
1777452840.533178,2213,0,7
1777452840.5335438,2039,0,7
1777452840.536374,1735,0,7
1777452840.538965,1668,0,7
1777452840.541903,2091,0,7
1777452840.544929,2263,0,7
1777452840.5479019,2198,0,7
1777452840.552789,1963,0,7
1777452840.554246,1667,0,7
1777452840.557046,1886,0,7
1777452840.56041,2095,0,7
1777452840.564068,2211,0,7
1777452840.567702,2066,0,7
1777452840.570282,1781,0,7
1777452840.5718179,1635,0,7
1777452840.5747972,1973,0,7
1777452840.58145,2191,0,7
1777452840.5820212,2097,0,7
1777452840.5850399,1985,0,7
1777452840.587522,1673,0,7
1777452840.591579,1788,0,7
1777452840.5950232,2089,0,7
1777452840.597827,2226,0,7
1777452840.599134,2027,0,7
1777452840.601814,1779,0,7
1777452840.6047812,1574,0,7
1777452840.607777,1884,0,7
1777452840.614971,2262,0,7
1777452840.615977,2031,0,7
1777452840.618444,1812,0,7
1777452840.6204832,1618,0,7
1777452840.625122,1783,0,7
1777452840.6286469,2056,0,7
1777452840.628848,2130,0,7
1777452840.632191,1988,0,7
1777452840.634877,1882,0,7
1777452840.642012,1591,0,7
1777452840.643103,1913,0,7
1777452840.644984,2224,0,7
1777452840.647549,1964,0,7
1777452840.6516988,1798,0,7
1777452840.655218,1729,0,7
1777452840.657911,1783,0,7
1777452840.659266,1978,0,7
1777452840.661831,2123,0,7
1777452840.664802,2045,0,7
1777452840.6677718,1886,0,7
1777452840.675832,1558,0,7
1777452840.6759622,1882,0,7
1777452840.6784792,2179,0,7
1777452840.6809652,2019,0,7
1777452840.68329,1826,0,7
1777452840.689065,1900,0,7
1777452840.689187,1509,0,7
1777452840.691932,1964,0,7
1777452840.694773,2136,0,7
1777452840.701851,1902,0,7
1777452840.7023518,1943,0,7
1777452840.7055,1866,0,7
1777452840.707894,1399,0,7
1777452840.7099662,2038,0,7
1777452840.7157,2092,0,7
1777452840.715965,1871,0,7
1777452840.719077,1489,0,7
1777452840.721778,1411,0,7
1777452840.7248042,1735,0,7
1777452840.727793,2031,0,7
1777452840.730783,1704,0,7
1777452840.739323,1846,0,7
1777452840.741106,1668,0,7
1777452840.7413518,1536,0,7
1777452840.743872,1705,0,7
1777452840.746433,1978,0,7
1777452840.751945,1768,0,7
1777452840.752171,1523,0,7
1777452840.755429,1324,0,7
1777452840.757993,1510,0,7
1777452840.765311,1724,0,7
1777452840.765793,1802,0,7
1777452840.768234,1560,0,7
1777452840.770271,1239,0,7
1777452840.774722,1241,0,7
1777452840.778154,1755,0,7
1777452840.780477,1825,0,7
1777452840.7818081,1721,0,7
1777452840.784771,1431,0,7
1777452840.787789,1105,0,7
1777452840.790774,1569,0,7
1777452840.7991319,1875,0,7
1777452840.7998369,1818,0,7
1777452840.8014138,1598,0,7
1777452840.803518,1314,0,7
1777452840.808036,1281,0,7
1777452840.811708,1703,0,7
1777452840.812015,1866,0,7
1777452840.815274,1753,0,7
1777452840.817834,1519,0,7
1777452840.825296,1243,0,7
1777452840.825906,1519,0,7
1777452840.8278332,1932,0,7
1777452840.8302631,1887,0,7
1777452840.8342552,1643,0,7
1777452840.8376791,1364,0,7
1777452840.840538,1364,0,7
1777452840.841859,1731,0,7
1777452840.844784,1904,0,7
1777452840.847778,1819,0,7
1777452840.8507872,1582,0,7
1777452840.8583639,1327,0,7
1777452840.859929,1493,0,7
1777452840.8615448,1906,0,7
1777452840.864025,1913,0,7
1777452840.866247,1683,0,7
1777452840.871839,1444,0,7
1777452840.8720489,1365,0,7
1777452840.875425,1754,0,7
1777452840.877995,1946,0,7
1777452840.885891,1921,0,7
1777452840.887918,1584,0,7
1777452840.8881931,1358,0,7
1777452840.89068,1502,0,7
1777452840.8931699,1889,0,7
1777452840.898444,1978,0,7
1777452840.8988469,1830,0,7
1777452840.902045,1540,0,7
1777452840.904842,1353,0,7
1777452840.9078069,1727,0,7
1777452840.9107761,2008,0,7
1777452840.917712,2014,0,7
1777452840.9187148,1724,0,7
1777452840.92149,1433,0,7
1777452840.924054,1559,0,7
1777452840.926211,1942,0,7
1777452840.931796,2109,0,7
1777452840.932108,1902,0,7
1777452840.934931,1665,0,7
1777452840.937794,1460,0,7
1777452840.946272,1800,0,7
1777452840.946838,2119,0,7
1777452840.947575,2068,0,7
1777452840.953587,1876,0,7
1777452840.954818,1500,0,7
1777452840.957292,1537,0,7
1777452840.960886,1990,0,7
1777452840.9631329,2004,0,7
1777452840.964808,2133,0,7
1777452840.967678,1762,0,7
1777452840.970677,1483,0,7
1777452840.973676,1746,0,7
1777452840.98175,2155,0,7
1777452840.9819121,2143,0,7
1777452840.9843981,1948,0,7
1777452840.986319,1585,0,7
1777452840.9910982,1578,0,7
1777452840.9946802,1937,0,7
1777452840.9948008,2164,0,7
1777452840.998163,2078,0,7
1777452841.000727,1812,0,7
1777452841.0074081,1561,0,7
1777452841.008338,1781,0,7
1777452841.010816,2171,0,7
1777452841.013345,2194,0,7
1777452841.0176342,2016,0,7
1777452841.0212228,1715,0,7
1777452841.021769,1601,0,7
1777452841.024914,1990,0,7
1777452841.0276768,2209,0,7
1777452841.030655,2146,0,7
1777452841.034477,1889,0,7
1777452841.041261,1616,0,7
1777452841.041963,1737,0,7
1777452841.0450182,2121,0,7
1777452841.0482292,2225,0,7
1777452841.048854,2040,0,7
1777452841.052491,1760,0,7
1777452841.056383,1693,0,7
1777452841.059505,1953,0,7
1777452841.060792,2186,0,7
1777452841.063818,2202,0,7
1777452841.0709288,1959,0,7
1777452841.071753,1682,0,7
1777452841.0752718,1719,0,7
1777452841.077454,2205,0,7
1777452841.079743,2243,0,7
1777452841.081944,2071,0,7
1777452841.0882401,1908,0,7
1777452841.088567,1671,0,7
1777452841.091787,1884,0,7
1777452841.093677,2225,0,7
1777452841.096653,2217,0,7
1777452841.099652,1990,0,7
1777452841.1026812,1685,0,7
1777452841.105978,1738,0,7
1777452841.112114,2068,0,7
1777452841.112874,2315,0,7
1777452841.115893,2165,0,7
1777452841.118001,1837,0,7
1777452841.122675,1651,0,7
1777452841.12644,1863,0,7
1777452841.126981,2234,0,7
1777452841.129996,2236,0,7
1777452841.13268,2023,0,7
1777452841.135853,1752,0,7
1777452841.141545,1736,0,7
1777452841.142194,2059,0,7
1777452841.1447098,2288,0,7
1777452841.148015,2233,0,7
1777452841.151419,1969,0,7
1777452841.154956,1639,0,7
1777452841.157703,1821,0,7
1777452841.1596491,2253,0,7
1777452841.162704,2276,0,7
1777452841.165663,2051,0,7
1777452841.168875,1786,0,7
1777452841.176836,1632,0,7
1777452841.177598,1980,0,7
1777452841.1784031,2219,0,7
1777452841.1808372,2169,0,7
1777452841.184138,1946,0,7
1777452841.188082,1652,0,7
1777452841.191589,1763,0,7
1777452841.194437,2224,0,7
1777452841.1957529,2274,0,7
1777452841.198643,2150,0,7
1777452841.204313,1818,0,7
1777452841.205287,1650,0,7
1777452841.2081332,1973,0,7
1777452841.2110798,2274,0,7
1777452841.215084,2281,0,7
1777452841.218488,1955,0,7
1777452841.220736,1716,0,7
1777452841.2233322,1723,0,7
1777452841.225912,2192,0,7
1777452841.228682,2256,0,7
1777452841.2316532,2161,0,7
1777452841.238444,1799,0,7
1777452841.239069,1610,0,7
1777452841.240885,1938,0,7
1777452841.245049,2221,0,7
1777452841.247298,2174,0,7
1777452841.252919,2065,0,7
1777452841.253143,1773,0,7
1777452841.255928,1776,0,7
1777452841.258678,2108,0,7
1777452841.26575,2274,0,7
1777452841.2671108,2217,0,7
1777452841.267659,1922,0,7
1777452841.272185,1653,0,7
1777452841.2743602,1894,0,7
1777452841.279872,2322,0,7
1777452841.2801971,2219,0,7
1777452841.282999,2044,0,7
1777452841.2857118,1815,0,7
1777452841.288641,1698,0,7
1777452841.29166,2071,0,7
1777452841.294642,2344,0,7
1777452841.3014898,2157,0,7
1777452841.302022,1997,0,7
1777452841.304723,1589,0,7
1777452841.3074298,1895,0,7
1777452841.3101351,2356,0,7
1777452841.315222,2239,0,7
1777452841.315678,2073,0,7
1777452841.318848,1866,0,7
1777452841.321665,1656,0,7
1777452841.3281212,2136,0,7
1777452841.328672,2430,0,7
1777452841.3313842,2217,0,7
1777452841.3338602,1842,0,7
1777452841.338384,1882,0,7
1777452841.341921,1832,0,7
1777452841.344088,2201,0,7
1777452841.345658,2288,0,7
1777452841.3486521,2139,0,7
1777452841.351661,1893,0,7
1777452841.354505,1651,0,7
1777452841.361574,2003,0,7
1777452841.362144,2327,0,7
1777452841.3649511,2350,0,7
1777452841.367392,2067,0,7
1777452841.369652,1788,0,7
1777452841.37801,1812,0,7
1777452841.37809,2272,0,7
1777452841.378509,2364,0,7
1777452841.381572,2184,0,7
1777452841.388968,1958,0,7
1777452841.3905659,1699,0,7
1777452841.39287,2019,0,7
1777452841.3958,2212,0,7
1777452841.397409,2286,0,7
1777452841.4007602,2126,0,7
1777452841.4052129,1726,0,7
1777452841.4071429,1747,0,7
1777452841.408554,2155,0,7
1777452841.411514,2386,0,7
1777452841.41452,2207,0,7
1777452841.417512,2031,0,7
1777452841.4261818,1615,0,7
1777452841.426384,1982,0,7
1777452841.429795,2324,0,7
1777452841.4326699,2386,0,7
1777452841.432847,2166,0,7
1777452841.440825,1840,0,7
1777452841.441254,1674,0,7
1777452841.441632,2099,0,7
1777452841.444944,2523,0,7
1777452841.447576,2293,0,7
1777452841.460039,2051,0,7
1777452841.461725,1771,0,7
1777452841.462452,1915,0,7
1777452841.465798,2381,0,7
1777452841.465964,2390,0,7
1777452841.466209,2078,0,7
1777452841.470309,1997,0,7
1777452841.472922,1837,0,7
1777452841.474526,2070,0,7
1777452841.47753,2542,0,7
1777452841.480536,2351,0,7
1777452841.4835231,2107,0,7
1777452841.486569,1831,0,7
1777452841.4940128,2027,0,7
1777452841.4985542,2255,0,7
1777452841.499233,2563,0,7
1777452841.499854,2198,0,7
1777452841.5026171,1962,0,7
1777452841.5097651,1803,0,7
1777452841.510047,2144,0,7
1777452841.510643,2433,0,7
1777452841.5143292,2411,0,7
1777452841.517026,2224,0,7
1777452841.526119,1859,0,7
1777452841.526759,1953,0,7
1777452841.5291789,2392,0,7
1777452841.529451,2560,0,7
1777452841.532886,2306,0,7
1777452841.5376399,2074,0,7
1777452841.541593,2133,0,7
1777452841.541926,2121,0,7
1777452841.5451488,2565,0,7
1777452841.5465322,2444,0,7
1777452841.549508,2291,0,7
1777452841.5525131,2253,0,7
1777452841.555511,2213,0,7
1777452841.558524,2658,0,7
1777452841.565054,2777,0,7
1777452841.565734,2728,0,7
1777452841.574007,2627,0,7
1777452841.576939,2441,0,7
1777452841.577313,2564,0,7
1777452841.5815759,2955,0,7
1777452841.582659,2992,0,7
1777452841.583046,2575,0,7
1777452841.585958,2409,0,7
1777452841.588685,2401,0,7
1777452841.591509,2790,0,7
1777452841.5981739,2975,0,7
1777452841.600412,3030,0,7
1777452841.600592,2632,0,7
1777452841.6051688,2410,0,7
1777452841.606863,2622,0,7
1777452841.61048,2983,0,7
1777452841.614603,2913,0,7
1777452841.617686,2699,0,7
1777452841.619064,2505,0,7
1777452841.6217,2344,0,7
1777452841.624528,2346,0,7
1777452841.6275141,2743,0,7
1777452841.63052,2631,0,7
1777452841.638166,2405,0,7
1777452841.6388638,2169,0,7
1777452841.642834,2236,0,7
1777452841.6454148,2584,0,7
1777452841.646181,2610,0,7
1777452841.64946,2420,0,7
1777452841.65557,2303,0,7
1777452841.656018,2059,0,7
1777452841.6592221,2268,0,7
1777452841.6605692,2606,0,7
1777452841.663512,2511,0,7
1777452841.6757991,2202,0,7
1777452841.676097,1994,0,7
1777452841.6765099,2200,0,7
1777452841.680068,2401,0,7
1777452841.680285,2529,0,7
1777452841.682749,2444,0,7
1777452841.684989,2090,0,7
1777452841.689288,2012,0,7
1777452841.692889,2145,0,7
1777452841.693503,2350,0,7
1777452841.696523,2418,0,7
1777452841.6995049,2401,0,7
1777452841.7025049,1908,0,7
1777452841.705528,1877,0,7
1777452841.71475,2171,0,7
1777452841.716088,2340,0,7
1777452841.7208471,2378,0,7
1777452841.7217221,2035,0,7
1777452841.722676,1885,0,7
1777452841.725178,2028,0,7
1777452841.732296,2278,0,7
1777452841.732897,2341,0,7
1777452841.733477,2222,0,7
1777452841.736917,2088,0,7
1777452841.738528,1882,0,7
1777452841.7415192,2073,0,7
1777452841.752061,2306,0,7
1777452841.754375,2354,0,7
1777452841.7571158,2091,0,7
1777452841.7591522,1754,0,7
1777452841.76001,1959,0,7
1777452841.7608662,2409,0,7
1777452841.7643251,2456,0,7
1777452841.768726,2320,0,7
1777452841.769284,1988,0,7
1777452841.773153,1875,0,7
1777452841.774529,2127,0,7
1777452841.7775202,2211,0,7
1777452841.780513,2220,0,7
1777452841.783529,2120,0,7
1777452841.786506,2034,0,7
1777452841.7945101,1799,0,7
1777452841.795278,2388,0,7
1777452841.798076,2317,0,7
1777452841.7984269,2139,0,7
1777452841.802985,2193,0,7
1777452841.806901,1884,0,7
1777452841.810959,2068,0,7
1777452841.811456,2271,0,7
1777452841.814754,2278,0,7
1777452841.816402,2110,0,7
1777452841.819402,1975,0,7
1777452841.827588,1941,0,7
1777452841.829296,2559,0,7
1777452841.831276,2232,0,7
1777452841.831546,2177,0,7
1777452841.835808,2012,0,7
1777452841.837549,1714,0,7
1777452841.844121,1926,0,7
1777452841.8443258,2374,0,7
1777452841.847015,2311,0,7
1777452841.8496351,2298,0,7
1777452841.852438,2241,0,7
1777452841.855583,2022,0,7
1777452841.858426,2130,0,7
1777452841.867948,2552,0,7
1777452841.8686552,2448,0,7
1777452841.870234,2158,0,7
1777452841.872681,1814,0,7
1777452841.875799,2155,0,7
1777452841.876394,2405,0,7
1777452841.885003,2391,0,7
1777452841.88515,2300,0,7
1777452841.885505,2095,0,7
1777452841.888552,2123,0,7
1777452841.891408,2292,0,7
1777452841.8944042,2417,0,7
1777452841.90045,2414,0,7
1777452841.900655,2180,0,7
1777452841.904073,1872,0,7
1777452841.906602,2181,0,7
1777452841.910385,2329,0,7
1777452841.916151,2478,0,7
1777452841.916362,2381,0,7
1777452841.919342,2105,0,7
1777452841.9219148,1874,0,7
1777452841.924489,2251,0,7
1777452841.927383,2272,0,7
1777452841.930408,2507,0,7
1777452841.938339,2084,0,7
1777452841.94006,1952,0,7
1777452841.940722,2000,0,7
1777452841.943253,2131,0,7
1777452841.946017,2347,0,7
1777452841.951105,2053,0,7
1777452841.9549289,1901,0,7
1777452841.955146,1881,0,7
1777452841.958264,2109,0,7
1777452841.9608479,2450,0,7
1777452841.963426,2240,0,7
1777452841.969697,2229,0,7
1777452841.97135,1972,0,7
1777452841.973759,1867,0,7
1777452841.97666,2246,0,7
1777452841.978688,2320,0,7
1777452841.981738,2093,0,7
1777452841.986018,1936,0,7
1777452841.988513,1777,0,7
1777452841.9904041,1982,0,7
1777452841.993391,2344,0,7
1777452841.996379,2289,0,7
1777452841.999382,2267,0,7
1777452842.008022,1854,0,7
1777452842.009115,1795,0,7
1777452842.0093088,2148,0,7
1777452842.01333,2280,0,7
1777452842.014839,2590,0,7
1777452842.017907,1980,0,7
1777452842.0214589,1899,0,7
1777452842.024431,1757,0,7
1777452842.027016,2541,0,7
1777452842.029584,2270,0,7
1777452842.036319,2117,0,7
1777452842.036871,2224,0,7
1777452842.039723,1803,0,7
1777452842.042183,2434,0,7
1777452842.044409,1879,0,7
1777452842.050022,2369,0,7
1777452842.050403,2134,0,7
1777452842.053695,1951,0,7
1777452842.056406,1911,0,7
1777452842.059377,2165,0,7
1777452842.0623732,2290,0,7
1777452842.070011,2154,0,7
1777452842.070663,1806,0,7
1777452842.07256,1868,0,7
1777452842.076397,2057,0,7
1777452842.079173,2343,0,7
1777452842.084809,2224,0,7
1777452842.084992,2121,0,7
1777452842.087934,2045,0,7
1777452842.08941,1869,0,7
1777452842.0923991,2078,0,7
1777452842.098793,2406,0,7
1777452842.0999439,2080,0,7
1777452842.101589,1896,0,7
1777452842.1055832,1907,0,7
1777452842.111507,2208,0,7
1777452842.1115909,2316,0,7
1777452842.11426,2286,0,7
1777452842.116825,2154,0,7
1777452842.1194088,1891,0,7
1777452842.122373,1914,0,7
1777452842.125383,2135,0,7
1777452842.132185,2135,0,7
1777452842.132294,2165,0,7
1777452842.1353269,1962,0,7
1777452842.1374311,1634,0,7
1777452842.140568,1849,0,7
1777452842.145608,2337,0,7
1777452842.148321,2283,0,7
1777452842.149632,2124,0,7
1777452842.152439,1869,0,7
1777452842.160466,1823,0,7
1777452842.161134,2148,0,7
1777452842.162804,2243,0,7
1777452842.165292,2150,0,7
1777452842.1677592,2175,0,7
1777452842.172889,1720,0,7
1777452842.173387,2042,0,7
1777452842.1764731,2219,0,7
1777452842.179273,2203,0,7
1777452842.1822631,2044,0,7
1777452842.185266,1845,0,7
1777452842.192769,1718,0,7
1777452842.19337,1979,0,7
1777452842.196173,2208,0,7
1777452842.198826,2400,0,7
1777452842.200421,2073,0,7
1777452842.2035751,1763,0,7
1777452842.2071922,1865,0,7
1777452842.21035,2271,0,7
1777452842.2130291,2326,0,7
1777452842.2159302,2320,0,7
1777452842.222163,1821,0,7
1777452842.2232242,1785,0,7
1777452842.2251751,2063,0,7
1777452842.227665,2320,0,7
1777452842.2317572,2313,0,7
1777452842.235302,2070,0,7
1777452842.2375538,1701,0,7
1777452842.239285,1861,0,7
1777452842.2422552,2143,0,7
1777452842.245248,2226,0,7
1777452842.248255,2204,0,7
1777452842.255991,1967,0,7
1777452842.257119,1790,0,7
1777452842.258883,2047,0,7
1777452842.261805,2451,0,7
1777452842.263948,2251,0,7
1777452842.269156,2021,0,7
1777452842.269459,1939,0,7
1777452842.272747,2058,0,7
1777452842.2753239,2240,0,7
1777452842.283305,2187,0,7
1777452842.283842,2244,0,7
1777452842.284414,2080,0,7
1777452842.288861,1833,0,7
1777452842.2909818,1927,0,7
1777452842.296244,2209,0,7
1777452842.296562,2239,0,7
1777452842.299412,2110,0,7
1777452842.302263,1918,0,7
1777452842.305265,1848,0,7
1777452842.3082528,2229,0,7
1777452842.311296,2189,0,7
1777452842.319378,2245,0,7
1777452842.319638,2094,0,7
1777452842.321816,1755,0,7
1777452842.323663,1817,0,7
1777452842.3299992,2214,0,7
1777452842.330243,2237,0,7
1777452842.332863,2183,0,7
1777452842.335653,1939,0,7
1777452842.343359,1757,0,7
1777452842.34348,2059,0,7
1777452842.346312,2345,0,7
1777452842.348773,2284,0,7
1777452842.3504698,2063,0,7
1777452842.35628,1779,0,7
1777452842.3564212,1789,0,7
1777452842.359819,2231,0,7
1777452842.3623931,2247,0,7
1777452842.36527,2217,0,7
1777452842.368269,1812,0,7
1777452842.37126,1646,0,7
1777452842.377505,2003,0,7
1777452842.3780758,2224,0,7
1777452842.3803399,2242,0,7
1777452842.3840792,2020,0,7
1777452842.3870971,1806,0,7
1777452842.390495,1764,0,7
1777452842.393294,2133,0,7
1777452842.395898,2294,0,7
1777452842.398706,2197,0,7
1777452842.4045088,1804,0,7
1777452842.406014,1661,0,7
1777452842.407607,1850,0,7
1777452842.411648,2154,0,7
1777452842.4174411,2156,0,7
1777452842.417863,1902,0,7
1777452842.420723,1721,0,7
1777452842.422258,1768,0,7
1777452842.4252899,2049,0,7
1777452842.4282439,2205,0,7
1777452842.431249,2000,0,7
1777452842.43872,1849,0,7
1777452842.439786,1694,0,7
1777452842.44092,1897,0,7
1777452842.445303,2180,0,7
1777452842.447218,2174,0,7
1777452842.44958,1999,0,7
1777452842.453037,1832,0,7
1777452842.455905,1757,0,7
1777452842.4584892,2065,0,7
1777452842.4658072,2202,0,7
1777452842.466418,2123,0,7
1777452842.469353,1945,0,7
1777452842.471031,1684,0,7
1777452842.475958,1755,0,7
1777452842.479294,2200,0,7
1777452842.479606,2162,0,7
1777452842.482347,2069,0,7
1777452842.4852638,1976,0,7
1777452842.488241,1658,0,7
1777452842.4912362,1903,0,7
1777452842.499101,2176,0,7
1777452842.499299,2224,0,7
1777452842.502729,2002,0,7
1777452842.504894,1655,0,7
1777452842.5070632,1763,0,7
1777452842.5134048,2147,0,7
1777452842.513694,2257,0,7
1777452842.516945,2140,0,7
1777452842.518257,1831,0,7
1777452842.521121,1683,0,7
1777452842.528899,1955,0,7
1777452842.5305212,2199,0,7
1777452842.532368,2216,0,7
1777452842.534549,1987,0,7
1777452842.536621,1719,0,7
1777452842.543543,1742,0,7
1777452842.591718,2194,0,7
1777452842.591807,2141,0,7
1777452842.5918589,2026,0,7
1777452842.591907,1994,0,7
1777452842.591955,1650,0,7
1777452842.592001,1898,0,7
1777452842.5920472,2207,0,7
1777452842.592094,2115,0,7
1777452842.59214,2005,0,7
1777452842.5921862,1772,0,7
1777452842.592233,1681,0,7
1777452842.592525,2018,0,7
1777452842.5927382,2214,0,7
1777452842.592851,1966,0,7
1777452842.592973,1804,0,7
1777452842.593035,1678,0,7
1777452842.593127,1857,0,7
1777452842.593218,2185,0,7
1777452842.5961668,2252,0,7
1777452842.6030731,2004,0,7
1777452842.603916,1640,0,7
1777452842.607446,1653,0,7
1777452842.6108959,2154,0,7
1777452842.6116118,2196,0,7
1777452842.616452,2085,0,7
1777452842.620565,1868,0,7
1777452842.62076,1619,0,7
1777452842.623318,1703,0,7
1777452842.626139,2128,0,7
1777452842.629118,2218,0,7
1777452842.632149,2013,0,7
1777452842.635131,1769,0,7
1777452842.645557,1646,0,7
1777452842.6464891,1913,0,7
1777452842.649188,2197,0,7
1777452842.649374,2127,0,7
1777452842.652406,1934,0,7
1777452842.654442,1635,0,7
1777452842.657731,1738,0,7
1777452842.661723,2079,0,7
1777452842.662163,2149,0,7
1777452842.665719,2016,0,7
1777452842.668295,1779,0,7
1777452842.671295,1627,0,7
1777452842.678288,1857,0,7
1777452842.6789708,2211,0,7
1777452842.681419,2201,0,7
1777452842.684387,1950,0,7
1777452842.686579,1702,0,7
1777452842.689812,1660,0,7
1777452842.693845,2062,0,7
1777452842.696383,2213,0,7
1777452842.698145,2133,0,7
1777452842.701143,1900,0,7
1777452842.70415,1694,0,7
1777452842.707145,1871,0,7
1777452842.710127,2189,0,7
1777452842.715111,2255,0,7
1777452842.717351,2085,0,7
1777452842.7192042,1752,0,7
1777452842.722655,1805,0,7
1777452842.725683,2148,0,7
1777452842.729121,2219,0,7
1777452842.731873,2156,0,7
1777452842.734486,1952,0,7
1777452842.7425091,1714,0,7
1777452842.742676,1842,0,7
1777452842.743598,2217,0,7
1777452842.7474618,2289,0,7
1777452842.749165,2119,0,7
1777452842.752139,1856,0,7
1777452842.755432,1762,0,7
1777452842.758425,2116,0,7
1777452842.761102,2319,0,7
1777452842.764113,2240,0,7
1777452842.767738,1975,0,7
1777452842.770388,1710,0,7
1777452842.777201,1834,0,7
1777452842.777984,2191,0,7
1777452842.7795892,2265,0,7
1777452842.784398,2199,0,7
1777452842.78786,1840,0,7
1777452842.7901728,1717,0,7
1777452842.794366,1987,0,7
1777452842.794709,2316,0,7
1777452842.797887,2282,0,7
1777452842.800687,2035,0,7
1777452842.80421,1789,0,7
1777452842.810839,1858,0,7
1777452842.811716,2213,0,7
1777452842.812522,2323,0,7
1777452842.8152971,2188,0,7
1777452842.819045,1921,0,7
1777452842.823515,1713,0,7
1777452842.8277829,2013,0,7
1777452842.828198,2238,0,7
1777452842.831444,2211,0,7
1777452842.833123,2089,0,7
1777452842.83611,1827,0,7
1777452842.839118,1824,0,7
1777452842.842101,2139,0,7
1777452842.850395,2337,0,7
1777452842.851613,2195,0,7
1777452842.853434,1942,0,7
1777452842.855826,1728,0,7
1777452842.858519,1947,0,7
1777452842.8609412,2258,0,7
1777452842.864619,2276,0,7
1777452842.8685849,2040,0,7
1777452842.86935,1856,0,7
1777452842.872567,1802,0,7
1777452842.875225,2128,0,7
1777452842.878122,2305,0,7
1777452842.8865888,2238,0,7
1777452842.8873641,1969,0,7
1777452842.8880472,1726,0,7
1777452842.8923578,1868,0,7
1777452842.894679,2283,0,7
1777452842.902933,2307,0,7
1777452842.903353,2099,0,7
1777452842.903648,1800,0,7
1777452842.906795,1703,0,7
1777452842.90815,2045,0,7
1777452842.9110541,2289,0,7
1777452842.914009,2227,0,7
1777452842.9169862,1981,0,7
1777452842.919999,1688,0,7
1777452842.92684,1863,0,7
1777452842.927534,2207,0,7
1777452842.9309099,2283,0,7
1777452842.933325,2148,0,7
1777452842.9351318,1878,0,7
1777452842.939581,1719,0,7
1777452842.9436748,2001,0,7
1777452842.944067,2269,0,7
1777452842.9476979,2208,0,7
1777452842.950161,2009,0,7
1777452842.959566,1771,0,7
1777452842.9598458,1792,0,7
1777452842.9629178,2190,0,7
1777452842.963218,2314,0,7
1777452842.965203,2182,0,7
1777452842.968395,1891,0,7
1777452842.975532,1697,0,7
1777452842.975769,1981,0,7
1777452842.9790149,2294,0,7
1777452842.980356,2279,0,7
1777452842.983131,2085,0,7
1777452842.985995,1812,0,7
1777452842.988993,1749,0,7
1777452842.991997,2141,0,7
1777452843.000192,2294,0,7
1777452843.001036,2170,0,7
1777452843.0039492,1923,0,7
1777452843.004416,1685,0,7
1777452843.0081458,1927,0,7
1777452843.0109189,2262,0,7
1777452843.016872,2250,0,7
1777452843.0171149,2072,0,7
1777452843.020402,1848,0,7
1777452843.022,1771,0,7
1777452843.024995,2154,0,7
1777452843.03234,2289,0,7
1777452843.034236,2165,0,7
1777452843.034854,1951,0,7
1777452843.040262,1738,0,7
1777452843.0405471,1889,0,7
1777452843.048735,2301,0,7
1777452843.049058,2286,0,7
1777452843.049406,2122,0,7
1777452843.052615,1872,0,7
1777452843.0550458,1781,0,7
1777452843.058005,2125,0,7
1777452843.0610518,2256,0,7
1777452843.06398,2176,0,7
1777452843.0672908,1994,0,7
1777452843.074684,1728,0,7
1777452843.076032,1826,0,7
1777452843.077915,2209,0,7
1777452843.080988,2279,0,7
1777452843.0832078,2151,0,7
1777452843.090605,1905,0,7
1777452843.090976,1719,0,7
1777452843.0911832,2012,0,7
1777452843.094058,2299,0,7
1777452843.096986,2247,0,7
1777452843.105288,2058,0,7
1777452843.106536,1749,0,7
1777452843.107717,1765,0,7
1777452843.110346,2207,0,7
1777452843.113606,2316,0,7
1777452843.11652,2148,0,7
1777452843.120107,1904,0,7
1777452843.12423,1733,0,7
1777452843.1246772,1984,0,7
1777452843.127209,2283,0,7
1777452843.130002,2250,0,7
1777452843.13299,2028,0,7
1777452843.1359801,1763,0,7
1777452843.138983,1776,0,7
1777452843.1486,2153,0,7
1777452843.149947,2242,0,7
1777452843.150078,2167,0,7
1777452843.1527739,1943,0,7
1777452843.1555111,1680,0,7
1777452843.157761,1888,0,7
1777452843.1614661,2283,0,7
1777452843.165768,2305,0,7
1777452843.166293,2056,0,7
1777452843.169495,1887,0,7
1777452843.172124,1792,0,7
1777452843.174999,2072,0,7
1777452843.1818419,2255,0,7
1777452843.182681,2203,0,7
1777452843.1857548,1966,0,7
1777452843.188789,1814,0,7
1777452843.191479,1892,0,7
1777452843.198348,2187,0,7
1777452843.198791,2262,0,7
1777452843.199348,2076,0,7
1777452843.202433,1896,0,7
1777452843.2051132,1824,0,7
1777452843.207907,2067,0,7
1777452843.210907,2240,0,7
1777452843.2138822,2175,0,7
1777452843.2228649,2063,0,7
1777452843.2234838,1700,0,7
1777452843.224172,1872,0,7
1777452843.2276638,2169,0,7
1777452843.230798,2261,0,7
1777452843.2324102,2195,0,7
1777452843.236094,1902,0,7
1777452843.240032,1619,0,7
1777452843.242582,1997,0,7
1777452843.243913,2350,0,7
1777452843.2469099,2204,0,7
1777452843.254845,1956,0,7
1777452843.25615,1768,0,7
1777452843.2562518,1871,0,7
1777452843.259131,2152,0,7
1777452843.261953,2473,0,7
1777452843.266773,2065,0,7
1777452843.2707121,1864,0,7
1777452843.270933,1791,0,7
1777452843.2745879,1947,0,7
1777452843.277161,2323,0,7
1777452843.2798889,2249,0,7
1777452843.28289,2125,0,7
1777452843.285859,1805,0,7
1777452843.293269,1617,0,7
1777452843.293976,2116,0,7
1777452843.2971678,2420,0,7
1777452843.300205,2256,0,7
1777452843.302328,2024,0,7
1777452843.305558,1715,0,7
1777452843.309181,1974,0,7
1777452843.312429,2330,0,7
1777452843.312885,2346,0,7
1777452843.315882,2167,0,7
1777452843.324207,1892,0,7
1777452843.3248188,1901,0,7
1777452843.3257768,2147,0,7
1777452843.329431,2328,0,7
1777452843.331321,2312,0,7
1777452843.335131,2053,0,7
1777452843.3388631,1759,0,7
1777452843.341398,1859,0,7
1777452843.3428822,2330,0,7
1777452843.346565,2322,0,7
1777452843.349133,2200,0,7
1777452843.351878,1884,0,7
1777452843.354878,1679,0,7
1777452843.361651,2074,0,7
1777452843.3618162,2282,0,7
1777452843.3651588,2278,0,7
1777452843.3679738,1977,0,7
1777452843.3710022,1701,0,7
1777452843.3730922,1895,0,7
1777452843.376876,2257,0,7
1777452843.38002,2300,0,7
1777452843.381877,2141,0,7
1777452843.384877,2021,0,7
1777452843.3917708,1894,0,7
1777452843.391901,1966,0,7
1777452843.3950348,2355,0,7
1777452843.3983061,2309,0,7
1777452843.400233,2094,0,7
1777452843.4062378,1842,0,7
1777452843.406365,1813,0,7
1777452843.4093592,2217,0,7
1777452843.411935,2271,0,7
1777452843.414881,2290,0,7
1777452843.417883,2096,0,7
1777452843.420886,1709,0,7
1777452843.427297,1979,0,7
1777452843.427445,2248,0,7
1777452843.430635,2361,0,7
1777452843.435201,2157,0,7
1777452843.441364,1827,0,7
1777452843.4418712,1800,0,7
1777452843.4424052,2224,0,7
1777452843.4454331,2348,0,7
1777452843.448103,2170,0,7
1777452843.4508538,2002,0,7
1777452843.456797,1766,0,7
1777452843.4577038,1971,0,7
1777452843.460144,2271,0,7
1777452843.4635851,2319,0,7
1777452843.467069,2116,0,7
1777452843.47056,1945,0,7
1777452843.472775,1786,0,7
1777452843.475358,2156,0,7
1777452843.4779232,2381,0,7
1777452843.480761,2286,0,7
1777452843.483747,2049,0,7
1777452843.4898849,1766,0,7
1777452843.491094,1948,0,7
1777452843.4941099,2298,0,7
1777452843.496578,2333,0,7
1777452843.50085,2173,0,7
1777452843.504123,1991,0,7
1777452843.5063019,1826,0,7
1777452843.507756,2128,0,7
1777452843.510728,2348,0,7
1777452843.517395,2319,0,7
1777452843.518419,2096,0,7
1777452843.520637,1860,0,7
1777452843.52427,1973,0,7
1777452843.527243,2327,0,7
1777452843.5306938,2409,0,7
1777452843.5332701,2337,0,7
1777452843.534753,1978,0,7
1777452843.537753,1813,0,7
1777452843.5407581,2011,0,7
1777452843.543722,2413,0,7
1777452843.5519319,2329,0,7
1777452843.553004,2065,0,7
1777452843.554642,1862,0,7
1777452843.5571032,1934,0,7
1777452843.561402,2222,0,7
1777452843.5646589,2319,0,7
1777452843.564956,2266,0,7
1777452843.568767,2035,0,7
1777452843.571393,1841,0,7
1777452843.5790741,1945,0,7
1777452843.5804842,2293,0,7
1777452843.582191,2360,0,7
1777452843.584852,2178,0,7
1777452843.5865889,1847,0,7
1777452843.589157,1904,0,7
1777452843.5927382,2137,0,7
1777452843.5953732,2419,0,7
1777452843.597954,2204,0,7
1777452843.600756,2050,0,7
1777452843.603734,1822,0,7
1777452843.606724,1912,0,7
1777452843.614154,2359,0,7
1777452843.6147451,2247,0,7
1777452843.617087,2138,0,7
1777452843.6194298,1844,0,7
1777452843.622144,1809,0,7
1777452843.627338,2172,0,7
1777452843.627774,2378,0,7
1777452843.630929,2358,0,7
1777452843.6337469,1898,0,7
1777452843.6411872,1724,0,7
1777452843.64181,1924,0,7
1777452843.64431,2333,0,7
1777452843.646789,2373,0,7
1777452843.649377,2131,0,7
1777452843.6544461,1837,0,7
1777452843.65486,1744,0,7
1777452843.658278,2081,0,7
1777452843.6610172,2464,0,7
1777452843.663732,2363,0,7
1777452843.6667259,2004,0,7
1777452843.669767,1798,0,7
1777452843.672794,1753,0,7
1777452843.679193,2186,0,7
1777452843.680925,2236,0,7
1777452843.6851578,2099,0,7
1777452843.68584,1937,0,7
1777452843.688225,1762,0,7
1777452843.693588,1942,0,7
1777452843.693931,2399,0,7
1777452843.697324,2208,0,7
1777452843.699902,2263,0,7
1777452843.708847,1893,0,7
1777452843.709575,1771,0,7
1777452843.711949,2263,0,7
1777452843.7121,2257,0,7
1777452843.715307,2131,0,7
1777452843.718679,1929,0,7
1777452843.724571,1764,0,7
1777452843.724724,1970,0,7
1777452843.727296,2322,0,7
1777452843.729859,2391,0,7
1777452843.7327418,2151,0,7
1777452843.735755,1936,0,7
1777452843.7414951,1869,0,7
1777452843.742031,2188,0,7
1777452843.745137,2309,0,7
1777452843.748481,2260,0,7
1777452843.752053,2004,0,7
1777452843.755465,1849,0,7
1777452843.757654,2073,0,7
1777452843.760229,2158,0,7
1777452843.7629051,2318,0,7
1777452843.76961,2238,0,7
1777452843.7706912,2048,0,7
1777452843.7734761,1635,0,7
1777452843.776372,2220,0,7
1777452843.778482,2577,0,7
1777452843.783423,2389,0,7
1777452843.783755,2546,0,7
1777452843.787046,1657,0,7
1777452843.789678,2213,0,7
1777452843.7926168,2561,0,7
1777452843.795625,2506,0,7
1777452843.7986681,2285,0,7
1777452843.804287,2031,0,7
1777452843.804828,2050,0,7
1777452843.80979,2199,0,7
1777452843.8119009,2327,0,7
1777452843.814141,2414,0,7
1777452843.817405,2278,0,7
1777452843.8196218,2046,0,7
1777452843.822626,2201,0,7
1777452843.825814,2463,0,7
1777452843.830893,2551,0,7
1777452843.834486,2234,0,7
1777452843.8346229,2088,0,7
1777452843.838742,1954,0,7
1777452843.842864,2228,0,7
1777452843.8471198,2494,0,7
1777452843.847334,2464,0,7
1777452843.849911,2268,0,7
1777452843.852639,1999,0,7
1777452843.8556428,1835,0,7
1777452843.8586292,2347,0,7
1777452843.861595,2593,0,7
1777452843.869952,2383,0,7
1777452843.871192,1897,0,7
1777452843.874652,1974,0,7
1777452843.8749938,2064,0,7
1777452843.877864,2401,0,7
1777452843.8812668,2393,0,7
1777452843.8839931,2216,0,7
1777452843.887977,2027,0,7
1777452843.890673,1972,0,7
1777452843.8919969,2201,0,7
1777452843.894599,2375,0,7
1777452843.901506,2422,0,7
1777452843.9020648,2053,0,7
1777452843.905232,1820,0,7
1777452843.907694,2040,0,7
1777452843.909858,2405,0,7
1777452843.915274,2224,0,7
1777452843.915615,2092,0,7
1777452843.918855,2083,0,7
1777452843.921643,2030,0,7
1777452843.924596,2139,0,7
1777452843.927597,2447,0,7
1777452843.930818,2207,0,7
1777452843.935903,2050,0,7
1777452843.937661,1936,0,7
1777452843.941364,2067,0,7
1777452843.9436648,2484,0,7
1777452843.946883,2486,0,7
1777452843.950551,2278,0,7
1777452843.953551,2054,0,7
1777452843.954867,1905,0,7
1777452843.9576352,2128,0,7
1777452843.964255,2498,0,7
1777452843.964788,2492,0,7
1777452843.967145,2065,0,7
1777452843.97085,2007,0,7
1777452843.973925,2161,0,7
1777452843.977334,2525,0,7
1777452843.979889,2493,0,7
1777452843.981621,2959,0,7
1777452843.984612,1781,0,7
1777452843.9875982,1846,0,7
1777452843.990623,2277,0,7
1777452843.999049,2578,0,7
1777452844.0018601,2333,0,7
1777452844.002044,2123,0,7
1777452844.004365,1815,0,7
1777452844.006399,2149,0,7
1777452844.0094888,2349,0,7
1777452844.013168,2322,0,7
1777452844.016212,2400,0,7
1777452844.017596,2074,0,7
1777452844.0206048,1833,0,7
1777452844.027379,2223,0,7
1777452844.029494,2390,0,7
1777452844.030786,2188,0,7
1777452844.032901,2066,0,7
1777452844.037052,2074,0,7
1777452844.0394611,2020,0,7
1777452844.041663,2173,0,7
1777452844.045538,2222,0,7
1777452844.048794,2148,0,7
1777452844.050499,2186,0,7
1777452844.053498,1761,0,7
1777452844.056473,1857,0,7
1777452844.059474,2477,0,7
1777452844.06253,2410,0,7
1777452844.0682812,2221,0,7
1777452844.069628,1950,0,7
1777452844.0726101,1977,0,7
1777452844.075656,1959,0,7
1777452844.078045,2438,0,7
1777452844.083584,2206,0,7
1777452844.083667,2043,0,7
1777452844.086679,1759,0,7
1777452844.089499,1950,0,7
1777452844.092559,2168,0,7
1777452844.099336,2298,0,7
1777452844.0994701,2131,0,7
1777452844.1021252,2052,0,7
1777452844.105171,1842,0,7
1777452844.110123,2062,0,7
1777452844.114004,2294,0,7
1777452844.114341,2189,0,7
1777452844.117086,2112,0,7
1777452844.119652,1794,0,7
1777452844.122496,1892,0,7
1777452844.1254861,2214,0,7
1777452844.128464,2311,0,7
1777452844.135733,2198,0,7
1777452844.136826,1977,0,7
1777452844.139221,1822,0,7
1777452844.142804,2062,0,7
1777452844.1454852,2218,0,7
1777452844.151137,2320,0,7
1777452844.151438,2049,0,7
1777452844.1542342,1845,0,7
1777452844.1555479,1878,0,7
1777452844.158489,2218,0,7
1777452844.164772,2408,0,7
1777452844.1653602,2248,0,7
1777452844.167897,2025,0,7
1777452844.171469,1872,0,7
1777452844.174628,2087,0,7
1777452844.18063,2357,0,7
1777452844.1807091,2251,0,7
1777452844.182488,2065,0,7
1777452844.185487,1866,0,7
1777452844.188503,1899,0,7
1777452844.1914911,2187,0,7
1777452844.198161,2388,0,7
1777452844.198666,2231,0,7
1777452844.201442,2142,0,7
1777452844.204135,1863,0,7
1777452844.211761,1867,0,7
1777452844.212013,2308,0,7
1777452844.2125142,2496,0,7
1777452844.2156029,2146,0,7
1777452844.2184892,1781,0,7
1777452844.225287,1825,0,7
1777452844.2255008,2075,0,7
1777452844.228458,2300,0,7
1777452844.2308521,2228,0,7
1777452844.2350342,2149,0,7
1777452844.238444,1807,0,7
1777452844.2406552,1968,0,7
1777452844.242495,2360,0,7
1777452844.2454998,2376,0,7
1777452844.248501,2143,0,7
1777452844.251463,1991,0,7
1777452844.258699,1872,0,7
1777452844.259236,2091,0,7
1777452844.261921,2323,0,7
1777452844.2646139,2207,0,7
1777452844.266777,2033,0,7
1777452844.272037,1804,0,7
1777452844.272501,1993,0,7
1777452844.275689,2248,0,7
1777452844.2783659,2286,0,7
1777452844.28508,2177,0,7
1777452844.285623,2024,0,7
1777452844.2882822,1869,0,7
1777452844.291114,1948,0,7
1777452844.294901,2324,0,7
1777452844.298248,2344,0,7
1777452844.3003619,2171,0,7
1777452844.302371,1949,0,7
1777452844.3053539,1841,0,7
1777452844.3083498,2045,0,7
1777452844.311349,2308,0,7
1777452844.319216,2302,0,7
1777452844.321932,2070,0,7
1777452844.322239,1787,0,7
1777452844.329855,1847,0,7
1777452844.330098,2192,0,7
1777452844.330267,2319,0,7
1777452844.333885,2240,0,7
1777452844.336755,1860,0,7
1777452844.338331,1813,0,7
1777452844.341354,2111,0,7
1777452844.351296,2299,0,7
1777452844.353467,2205,0,7
1777452844.354178,1987,0,7
1777452844.3554041,1800,0,7
1777452844.35919,1815,0,7
1777452844.362988,2210,0,7
1777452844.365325,2230,0,7
1777452844.366085,2143,0,7
1777452844.3687282,1884,0,7
1777452844.371337,1634,0,7
1777452844.374341,2029,0,7
1777452844.378148,2295,0,7
1777452844.384591,2098,0,7
1777452844.386451,1957,0,7
1777452844.388541,1733,0,7
1777452844.392311,1853,0,7
1777452844.3930008,2098,0,7
1777452844.40127,2238,0,7
1777452844.401628,2098,0,7
1777452844.401943,1883,0,7
1777452844.4049652,1751,0,7
1777452844.407616,1996,0,7
1777452844.4103522,2220,0,7
1777452844.41716,2143,0,7
1777452844.41799,2022,0,7
1777452844.420912,1857,0,7
1777452844.42353,1791,0,7
1777452844.425636,2078,0,7
1777452844.433065,2145,0,7
1777452844.433613,2179,0,7
1777452844.43612,1888,0,7
1777452844.437498,1633,0,7
1777452844.440342,1820,0,7
1777452844.443339,2196,0,7
1777452844.446344,2254,0,7
1777452844.4493408,1990,0,7
1777452844.458484,1691,0,7
1777452844.459154,1769,0,7
1777452844.4612732,2139,0,7
1777452844.463845,2263,0,7
1777452844.4646661,2173,0,7
1777452844.4736168,1885,0,7
1777452844.474157,1804,0,7
1777452844.474713,1879,0,7
1777452844.477908,2107,0,7
1777452844.479331,1982,0,7
1777452844.482332,1954,0,7
1777452844.4892092,1954,0,7
1777452844.4904451,1699,0,7
1777452844.492098,1972,0,7
1777452844.495925,2201,0,7
1777452844.498465,2089,0,7
1777452844.5057359,1945,0,7
1777452844.506371,1679,0,7
1777452844.506761,1875,0,7
1777452844.5099058,2168,0,7
1777452844.512337,2089,0,7
1777452844.5153291,1988,0,7
1777452844.51832,1794,0,7
1777452844.521347,1711,0,7
1777452844.530216,1925,0,7
1777452844.5309749,2275,0,7
1777452844.532126,2107,0,7
1777452844.534073,1918,0,7
1777452844.536872,1682,0,7
1777452844.54005,1745,0,7
1777452844.542368,2068,0,7
1777452844.546159,2180,0,7
1777452844.5494149,2074,0,7
1777452844.5521212,1718,0,7
1777452844.554749,1640,0,7
1777452844.5621278,1870,0,7
1777452844.5628102,2152,0,7
1777452844.563657,1991,0,7
1777452844.568557,1804,0,7
1777452844.570909,1616,0,7
1777452844.572742,1688,0,7
1777452844.5787961,2162,0,7
1777452844.579075,2150,0,7
1777452844.582247,1986,0,7
1777452844.584859,1839,0,7
1777452844.587477,1598,0,7
1777452844.590216,1842,0,7
1777452844.593222,2152,0,7
1777452844.602186,2102,0,7
1777452844.604029,1869,0,7
1777452844.604269,1700,0,7
1777452844.606903,1634,0,7
1777452844.608981,2000,0,7
1777452844.612746,2261,0,7
1777452844.616031,2031,0,7
1777452844.6200142,1845,0,7
1777452844.620527,1745,0,7
1777452844.623871,1732,0,7
1777452844.6265118,2019,0,7
1777452844.629225,2062,0,7
1777452844.6363468,1957,0,7
1777452844.638299,1699,0,7
1777452844.6408992,1579,0,7
1777452844.64338,1956,0,7
1777452844.647396,2084,0,7
1777452844.650346,2040,0,7
1777452844.650765,1882,0,7
1777452844.654936,1557,0,7
1777452844.657578,1782,0,7
1777452844.659229,2037,0,7
1777452844.6622562,2107,0,7
1777452844.665257,1861,0,7
1777452844.6682508,1757,0,7
1777452844.6712372,1584,0,7
1777452844.677684,1790,0,7
1777452844.6789088,1959,0,7
1777452844.6822479,1976,0,7
1777452844.684895,1913,0,7
1777452844.687171,1607,0,7
1777452844.691023,1642,0,7
1777452844.694916,2221,0,7
1777452844.6953568,2026,0,7
1777452844.698314,1759,0,7
1777452844.701236,1731,0,7
1777452844.704211,1596,0,7
1777452844.710227,1834,0,7
1777452844.711554,2210,0,7
1777452844.7145228,1917,0,7
1777452844.716921,1884,0,7
1777452844.7203488,1761,0,7
1777452844.722555,1427,0,7
1777452844.726277,1929,0,7
1777452844.728811,2072,0,7
1777452844.731393,1884,0,7
1777452844.734234,1643,0,7
1777452844.7372139,1360,0,7
1777452844.7402492,1615,0,7
1777452844.748524,1903,0,7
1777452844.748694,1891,0,7
1777452844.749896,1761,0,7
1777452844.752734,1638,0,7
1777452844.755983,1526,0,7
1777452844.760447,1804,0,7
1777452844.764245,2044,0,7
1777452844.764382,1869,0,7
1777452844.7674491,1628,0,7
1777452844.7701051,1346,0,7
1777452844.773268,1559,0,7
1777452844.778326,1912,0,7
1777452844.7802129,1973,0,7
1777452844.782599,1776,0,7
1777452844.786131,1437,0,7
1777452844.790016,1377,0,7
1777452844.7938209,1747,0,7
1777452844.7941198,2007,0,7
1777452844.7976801,1887,0,7
1777452844.800237,1604,0,7
1777452844.803088,1343,0,7
1777452844.8061042,1508,0,7
1777452844.809105,1864,0,7
1777452844.816606,1968,0,7
1777452844.81725,1753,0,7
1777452844.8205838,1461,0,7
1777452844.822926,1371,0,7
1777452844.824372,1706,0,7
1777452844.8284428,1957,0,7
1777452844.8318028,1926,0,7
1777452844.8340611,1647,0,7
1777452844.836637,1373,0,7
1777452844.8392,1433,0,7
1777452844.8446841,1889,0,7
1777452844.8456771,1975,0,7
1777452844.848186,1800,0,7
1777452844.851155,1549,0,7
1777452844.854395,1368,0,7
1777452844.8576572,1656,0,7
1777452844.8601952,1945,0,7
1777452844.863093,1938,0,7
1777452844.866096,1763,0,7
1777452844.8691049,1476,0,7
1777452844.87659,1461,0,7
1777452844.8776479,1871,0,7
1777452844.878198,1992,0,7
1777452844.882995,1898,0,7
1777452844.884435,1629,0,7
1777452844.892095,1398,0,7
1777452844.892436,1687,0,7
1777452844.893097,2090,0,7
1777452844.89638,2053,0,7
1777452844.899122,1807,0,7
1777452844.906643,1588,0,7
1777452844.9077618,1553,0,7
1777452844.909973,1887,0,7
1777452844.9124968,2103,0,7
1777452844.914836,2022,0,7
1777452844.9171221,1737,0,7
1777452844.920424,1492,0,7
1777452844.923309,1665,0,7
1777452844.9261062,2125,0,7
1777452844.929085,2130,0,7
1777452844.932081,1888,0,7
1777452844.935083,1684,0,7
1777452844.940126,1536,0,7
1777452844.943226,1889,0,7
1777452844.9458141,2134,0,7
1777452844.947933,2106,0,7
1777452844.9501162,1842,0,7
1777452844.9534678,1566,0,7
1777452844.956149,1686,0,7
1777452844.959096,2048,0,7
1777452844.9662552,2178,0,7
1777452844.9673228,1980,0,7
1777452844.9696991,1679,0,7
1777452844.972193,1524,0,7
1777452844.974329,1921,0,7
1777452844.9796832,2216,0,7
1777452844.980109,2151,0,7
1777452844.9833229,1945,0,7
1777452844.98595,1696,0,7
1777452844.9889421,1677,0,7
1777452844.991939,2106,0,7
1777452844.999282,2198,0,7
1777452844.9994838,2080,0,7
1777452845.001407,1772,0,7
1777452845.005436,1618,0,7
1777452845.0070982,1878,0,7
1777452845.012919,2217,0,7
1777452845.013209,2228,0,7
1777452845.016,1980,0,7
1777452845.018946,1688,0,7
1777452845.026291,1723,0,7
1777452845.027283,2116,0,7
1777452845.02988,2184,0,7
1777452845.0318878,2145,0,7
1777452845.0364401,1882,0,7
1777452845.0398772,1632,0,7
1777452845.040158,1869,0,7
1777452845.043466,2196,0,7
1777452845.0460339,2224,0,7
1777452845.048981,2018,0,7
1777452845.0519412,1744,0,7
1777452845.0602171,1655,0,7
1777452845.060828,2061,0,7
1777452845.06185,2287,0,7
1777452845.065742,2124,0,7
1777452845.067959,1901,0,7
1777452845.070166,1661,0,7
1777452845.07376,1895,0,7
1777452845.076596,2212,0,7
1777452845.079205,2296,0,7
1777452845.0819871,2075,0,7
1777452845.086729,1808,0,7
1777452845.090318,1615,0,7
1777452845.0923688,2008,0,7
1777452845.0944471,2291,0,7
1777452845.0972009,2188,0,7
1777452845.1005719,1998,0,7
1777452845.1037388,1629,0,7
1777452845.1064808,1759,0,7
1777452845.1091578,2187,0,7
1777452845.111951,2303,0,7
1777452845.114987,2147,0,7
1777452845.121336,1865,0,7
1777452845.122439,1622,0,7
1777452845.1248472,1986,0,7
1777452845.127519,2316,0,7
1777452845.131679,2252,0,7
1777452845.134979,2012,0,7
1777452845.1376798,1774,0,7
1777452845.1389928,1782,0,7
1777452845.141963,2200,0,7
1777452845.148211,2366,0,7
1777452845.149194,2265,0,7
1777452845.151233,1914,0,7
1777452845.154921,1498,0,7
1777452845.157876,1882,0,7
1777452845.161209,2325,0,7
1777452845.163451,2284,0,7
1777452845.1661,2031,0,7
1777452845.1689699,1684,0,7
1777452845.1719391,1754,0,7
1777452845.174967,2219,0,7
1777452845.1812742,2465,0,7
1777452845.1818008,2354,0,7
1777452845.184293,2035,0,7
1777452845.18809,1688,0,7
1777452845.191288,2054,0,7
1777452845.1946418,2416,0,7
1777452845.196834,2302,0,7
1777452845.1994271,2155,0,7
1777452845.201996,1826,0,7
1777452845.208142,1773,0,7
1777452845.208309,2222,0,7
1777452845.2111518,2634,0,7
1777452845.214731,2129,0,7
1777452845.2178051,1940,0,7
1777452845.221132,1855,0,7
1777452845.223943,2033,0,7
1777452845.226512,2408,0,7
1777452845.229098,2432,0,7
1777452845.231848,2149,0,7
1777452845.234815,1877,0,7
1777452845.2424169,1828,0,7
1777452845.242581,2247,0,7
1777452845.245473,2324,0,7
1777452845.2478778,2198,0,7
1777452845.250061,2179,0,7
1777452845.2556522,1768,0,7
1777452845.255849,1840,0,7
1777452845.2592409,2351,0,7
1777452845.261929,2431,0,7
1777452845.268854,2464,0,7
1777452845.269878,1916,0,7
1777452845.272314,1710,0,7
1777452845.275708,2065,0,7
1777452845.277178,2370,0,7
1777452845.282721,2359,0,7
1777452845.2829618,2193,0,7
1777452845.286298,1686,0,7
1777452845.2888699,1966,0,7
1777452845.291824,2183,0,7
1777452845.294815,2287,0,7
1777452845.297837,2304,0,7
1777452845.3045492,2048,0,7
1777452845.306761,1781,0,7
1777452845.3098052,1926,0,7
1777452845.3109062,2289,0,7
1777452845.317722,2383,0,7
1777452845.318156,2112,0,7
1777452845.320641,1845,0,7
1777452845.322089,1861,0,7
1777452845.324831,2279,0,7
1777452845.332202,2411,0,7
1777452845.3332942,2296,0,7
1777452845.3342662,1881,0,7
1777452845.337396,1899,0,7
1777452845.3423538,2161,0,7
1777452845.345959,2308,0,7
1777452845.3461592,2480,0,7
1777452845.348877,2195,0,7
1777452845.351829,2059,0,7
1777452845.354815,1847,0,7
1777452845.357829,2314,0,7
1777452845.36094,2493,0,7
1777452845.3666189,2400,0,7
1777452845.367098,2157,0,7
1777452845.372046,1979,0,7
1777452845.3737202,2151,0,7
1777452845.3766139,2517,0,7
1777452845.3827379,2604,0,7
1777452845.382886,2294,0,7
1777452845.3854039,1987,0,7
1777452845.3925278,2042,0,7
1777452845.3931851,2385,0,7
1777452845.394536,2403,0,7
1777452845.397887,2374,0,7
1777452845.4001238,2250,0,7
1777452845.402873,1929,0,7
1777452845.406306,2030,0,7
1777452845.4091399,2423,0,7
1777452845.411932,2633,0,7
1777452845.414832,2458,0,7
1777452845.417825,2077,0,7
1777452845.420835,1772,0,7
1777452845.4286568,2097,0,7
1777452845.430337,2630,0,7
1777452845.430701,2507,0,7
1777452845.434418,2056,0,7
1777452845.4359732,1960,0,7
1777452845.441822,1968,0,7
1777452845.44205,2364,0,7
1777452845.445172,2510,0,7
1777452845.4478168,2227,0,7
1777452845.4616709,2095,0,7
1777452845.462367,1847,0,7
1777452845.4640808,2054,0,7
1777452845.464709,2406,0,7
1777452845.4653661,2359,0,7
1777452845.467359,2202,0,7
1777452845.470912,1950,0,7
1777452845.473135,2028,0,7
1777452845.47489,2205,0,7
1777452845.4778419,2344,0,7
1777452845.480762,2267,0,7
1777452845.483729,1899,0,7
1777452845.491457,1721,0,7
1777452845.492526,1911,0,7
1777452845.493589,2197,0,7
1777452845.497302,2361,0,7
1777452845.499007,2069,0,7
1777452845.502222,1894,0,7
1777452845.505729,1903,0,7
1777452845.508574,2233,0,7
1777452845.5111601,2283,0,7
1777452845.518316,2205,0,7
1777452845.519275,2114,0,7
1777452845.520766,1742,0,7
1777452845.524336,1699,0,7
1777452845.5291781,2232,0,7
1777452845.5330062,2319,0,7
1777452845.5332842,2089,0,7
1777452845.535928,1891,0,7
1777452845.537693,1716,0,7
1777452845.540713,2162,0,7
1777452845.5437171,2196,0,7
1777452845.546706,2150,0,7
1777452845.554741,2079,0,7
1777452845.555381,1665,0,7
1777452845.557444,1878,0,7
1777452845.559607,2269,0,7
1777452845.5625868,2137,0,7
1777452845.5676758,1903,0,7
1777452845.5678668,1909,0,7
1777452845.571349,1765,0,7
1777452845.573934,1869,0,7
1777452845.581512,2393,0,7
1777452845.582137,2075,0,7
1777452845.5831811,2007,0,7
1777452845.58709,1813,0,7
1777452845.589296,1816,0,7
1777452845.59514,1960,0,7
1777452845.5952551,2417,0,7
1777452845.597984,2122,0,7
1777452845.6007712,2037,0,7
1777452845.603727,1544,0,7
1777452845.606705,1828,0,7
1777452845.609716,2132,0,7
1777452845.616249,2173,0,7
1777452845.617263,2142,0,7
1777452845.6193259,1787,0,7
1777452845.62306,1856,0,7
1777452845.626101,1921,0,7
1777452845.629515,2254,0,7
1777452845.632298,2307,0,7
1777452845.633713,1935,0,7
1777452845.636692,1901,0,7
1777452845.6429608,1798,0,7
1777452845.6431081,2353,0,7
1777452845.646306,2292,0,7
1777452845.650201,2314,0,7
1777452845.653342,1940,0,7
1777452845.656739,1747,0,7
1777452845.659658,2305,0,7
1777452845.661013,2574,0,7
1777452845.663724,2148,0,7
1777452845.666721,1977,0,7
1777452845.6696908,1636,0,7
1777452845.6773279,2092,0,7
1777452845.677917,2343,0,7
1777452845.680814,2485,0,7
1777452845.683719,2377,0,7
1777452845.6854231,1960,0,7
1777452845.6908002,2033,0,7
1777452845.690975,2245,0,7
1777452845.6937332,2614,0,7
1777452845.696691,2284,0,7
1777452845.703962,2311,0,7
1777452845.7040799,1944,0,7
1777452845.7070541,1951,0,7
1777452845.7096052,2316,0,7
1777452845.712228,2543,0,7
1777452845.717223,2296,0,7
1777452845.717727,2020,0,7
1777452845.720875,1877,0,7
1777452845.723606,2144,0,7
1777452845.726576,2589,0,7
1777452845.7295702,2365,0,7
1777452845.73649,2048,0,7
1777452845.7370172,1788,0,7
1777452845.739093,1983,0,7
1777452845.742363,2326,0,7
1777452845.745107,2431,0,7
1777452845.7511868,2304,0,7
1777452845.7512488,2174,0,7
1777452845.7538571,1973,0,7
1777452845.760959,2008,0,7
1777452845.76288,2287,0,7
1777452845.76319,2465,0,7
1777452845.766641,2371,0,7
1777452845.774092,1934,0,7
1777452845.774768,1858,0,7
1777452845.7751749,2268,0,7
1777452845.777985,2454,0,7
1777452845.780611,2206,0,7
1777452845.783566,2022,0,7
1777452845.786564,1911,0,7
1777452845.7898061,2125,0,7
1777452845.796234,2453,0,7
1777452845.796462,2303,0,7
1777452845.799041,2060,0,7
1777452845.802024,1922,0,7
1777452845.806297,1896,0,7
1777452845.810097,2230,0,7
1777452845.810598,2555,0,7
1777452845.814495,2189,0,7
1777452845.817111,2082,0,7
1777452845.826988,2005,0,7
1777452845.829941,2006,0,7
1777452845.831147,2284,0,7
1777452845.83141,2589,0,7
1777452845.833018,2161,0,7
1777452845.8389492,2094,0,7
1777452845.839287,1797,0,7
1777452845.842144,2691,0,7
1777452845.843561,2313,0,7
1777452845.846563,2388,0,7
1777452845.849565,1885,0,7
1777452845.8525708,1764,0,7
1777452845.860866,1865,0,7
1777452845.862102,2296,0,7
1777452845.867763,2452,0,7
1777452845.869344,2387,0,7
1777452845.875075,1952,0,7
1777452845.875136,1630,0,7
1777452845.875175,2223,0,7
1777452845.877834,2588,0,7
1777452845.879776,2554,0,7
1777452845.882626,2155,0,7
1777452845.9064581,1934,0,7
1777452845.906585,1839,0,7
1777452845.906643,2283,0,7
1777452845.906694,2552,0,7
1777452845.906743,2399,0,7
1777452845.9067929,2087,0,7
1777452845.9069178,1996,0,7
1777452845.906999,2211,0,7
1777452845.909753,2351,0,7
1777452845.912564,2315,0,7
1777452845.9157188,2440,0,7
1777452845.919161,2058,0,7
1777452845.92708,1924,0,7
1777452845.928021,2305,0,7
1777452845.930995,2560,0,7
1777452845.931348,2560,0,7
1777452845.934546,2291,0,7
1777452845.9374762,1932,0,7
1777452845.9405282,2234,0,7
1777452845.944639,2494,0,7
1777452845.947967,2539,0,7
1777452845.948422,2398,0,7
1777452845.951437,2112,0,7
1777452845.9599319,2054,0,7
1777452845.960799,2288,0,7
1777452845.962673,2472,0,7
1777452845.964981,2386,0,7
1777452845.969694,2209,0,7
1777452845.973793,1982,0,7
1777452845.974064,2194,0,7
1777452845.978552,2513,0,7
1777452845.9789069,2537,0,7
1777452845.982081,2276,0,7
1777452845.9847412,2193,0,7
1777452845.987448,2113,0,7
1777452845.990447,2446,0,7
1777452845.993427,2656,0,7
1777452846.0025852,2496,0,7
1777452846.0034518,2324,0,7
1777452846.006517,2089,0,7
1777452846.00704,2172,0,7
1777452846.009472,2524,0,7
1777452846.013431,2587,0,7
1777452846.020093,2346,0,7
1777452846.020637,2097,0,7
1777452846.020913,1970,0,7
1777452846.0239732,2369,0,7
1777452846.026623,2426,0,7
1777452846.029439,2509,0,7
1777452846.036729,2266,0,7
1777452846.0380301,2061,0,7
1777452846.039902,2047,0,7
1777452846.043,2337,0,7
1777452846.044707,2484,0,7
1777452846.048141,2258,0,7
1777452846.052547,2077,0,7
1777452846.055721,1858,0,7
1777452846.057097,2128,0,7
1777452846.060332,2259,0,7
1777452846.063749,2246,0,7
1777452846.065492,2118,0,7
1777452846.068436,2041,0,7
1777452846.0808918,1926,0,7
1777452846.081258,2190,0,7
1777452846.081612,2312,0,7
1777452846.081732,2283,0,7
1777452846.084786,2208,0,7
1777452846.088798,1849,0,7
1777452846.091506,1931,0,7
1777452846.095925,2353,0,7
1777452846.09642,2293,0,7
1777452846.099668,2121,0,7
1777452846.1014342,1893,0,7
1777452846.1044328,1911,0,7
1777452846.1135218,2151,0,7
1777452846.11499,2317,0,7
1777452846.115734,2171,0,7
1777452846.1207411,2027,0,7
1777452846.122224,1789,0,7
1777452846.122457,1928,0,7
1777452846.1310139,2264,0,7
1777452846.1314418,2354,0,7
1777452846.131936,2067,0,7
1777452846.135178,1911,0,7
1777452846.1378078,1850,0,7
1777452846.140459,2150,0,7
1777452846.1434329,2290,0,7
1777452846.1464262,2232,0,7
1777452846.157312,2080,0,7
1777452846.158897,1855,0,7
1777452846.1591759,1768,0,7
1777452846.161709,2256,0,7
1777452846.164186,2438,0,7
1777452846.16664,2209,0,7
1777452846.169035,1910,0,7
1777452846.175692,1686,0,7
1777452846.176105,2031,0,7
1777452846.1765099,2306,0,7
1777452846.179992,2289,0,7
1777452846.1826901,2110,0,7
1777452846.1954,1730,0,7
1777452846.19605,1853,0,7
1777452846.1962738,2237,0,7
1777452846.1993668,2310,0,7
1777452846.200225,2214,0,7
1777452846.2010188,1969,0,7
1777452846.205591,1781,0,7
1777452846.2099872,2058,0,7
1777452846.210429,2242,0,7
1777452846.2135959,2182,0,7
1777452846.215326,2205,0,7
1777452846.218347,1881,0,7
1777452846.2213619,1644,0,7
1777452846.2243142,2047,0,7
1777452846.2273412,2355,0,7
1777452846.234577,2208,0,7
1777452846.235332,1859,0,7
1777452846.2388759,1737,0,7
1777452846.241015,1848,0,7
1777452846.2432609,2184,0,7
1777452846.247456,2287,0,7
1777452846.2515368,2169,0,7
1777452846.251673,1961,0,7
1777452846.254791,1710,0,7
1777452846.257407,1955,0,7
1777452846.260299,2280,0,7
1777452846.2668428,2222,0,7
1777452846.267971,2010,0,7
1777452846.270726,1647,0,7
1777452846.273816,1768,0,7
1777452846.275567,2232,0,7
1777452846.279362,2252,0,7
1777452846.2833679,1873,0,7
1777452846.285905,1686,0,7
1777452846.2873359,1833,0,7
1777452846.2903051,1923,0,7
1777452846.293304,2107,0,7
1777452846.296308,2049,0,7
1777452846.299297,1902,0,7
1777452846.306675,1757,0,7
1777452846.307298,1849,0,7
1777452846.310622,2035,0,7
1777452846.3126268,2242,0,7
1777452846.315338,2077,0,7
1777452846.322782,1844,0,7
1777452846.3229172,1600,0,7
1777452846.323384,1853,0,7
1777452846.3269079,2243,0,7
1777452846.329498,1872,0,7
1777452846.337617,1778,0,7
1777452846.3383622,1534,0,7
1777452846.341582,1653,0,7
1777452846.34169,2112,0,7
1777452846.345504,2076,0,7
1777452846.3496408,1918,0,7
1777452846.3536751,1598,0,7
1777452846.3538618,1496,0,7
1777452846.357002,1787,0,7
1777452846.3595798,2062,0,7
1777452846.362326,2092,0,7
1777452846.36533,1753,0,7
1777452846.36833,1500,0,7
1777452846.3748858,1489,0,7
1777452846.375499,1835,0,7
1777452846.3779788,2098,0,7
1777452846.38116,1914,0,7
1777452846.384542,1640,0,7
1777452846.3879838,1391,0,7
1777452846.390518,1547,0,7
1777452846.392329,1943,0,7
1777452846.395329,1995,0,7
1777452846.4008389,1751,0,7
1777452846.402349,1498,0,7
1777452846.4043741,1423,0,7
1777452846.4078279,1807,0,7
1777452846.410736,2029,0,7
1777452846.414054,1958,0,7
1777452846.41676,1691,0,7
1777452846.4193401,1430,0,7
1777452846.422326,1665,0,7
1777452846.4253,2020,0,7
1777452846.428502,2078,0,7
1777452846.4333801,1900,0,7
1777452846.436587,1606,0,7
1777452846.439203,1458,0,7
1777452846.4409332,1768,0,7
1777452846.443459,2060,0,7
1777452846.447074,2028,0,7
1777452846.450212,1757,0,7
1777452846.452789,1494,0,7
1777452846.455297,1624,0,7
1777452846.462742,2064,0,7
1777452846.463966,2111,0,7
1777452846.465874,1885,0,7
1777452846.468544,1693,0,7
1777452846.4707851,1568,0,7
1777452846.476363,1812,0,7
1777452846.4766011,2082,0,7
1777452846.479423,2146,0,7
1777452846.482207,1898,0,7
1777452846.485205,1578,0,7
1777452846.4881668,1638,0,7
1777452846.49118,2042,0,7
1777452846.497824,2118,0,7
1777452846.4984698,2041,0,7
1777452846.50102,1796,0,7
1777452846.503964,1500,0,7
1777452846.507909,1770,0,7
1777452846.5113332,2103,0,7
1777452846.5141382,2114,0,7
1777452846.5154612,1907,0,7
1777452846.518188,1758,0,7
1777452846.525059,1729,0,7
1777452846.52525,2145,0,7
1777452846.527773,2264,0,7
1777452846.5314429,2049,0,7
1777452846.537786,1775,0,7
1777452846.538028,1703,0,7
1777452846.540283,1821,0,7
1777452846.54288,2176,0,7
1777452846.5454469,2132,0,7
1777452846.548212,1938,0,7
1777452846.551213,1738,0,7
1777452846.558364,1682,0,7
1777452846.559468,2092,0,7
1777452846.561412,2161,0,7
1777452846.5638552,2224,0,7
1777452846.568077,1904,0,7
1777452846.5715232,1582,0,7
1777452846.574498,1885,0,7
1777452846.57518,2186,0,7
1777452846.578215,2197,0,7
1777452846.5855749,1989,0,7
1777452846.586591,1748,0,7
1777452846.5883,1645,0,7
1777452846.591241,1948,0,7
1777452846.595223,2278,0,7
1777452846.598797,2220,0,7
1777452846.599217,1927,0,7
1777452846.6023538,1606,0,7
1777452846.605173,1799,0,7
1777452846.6081998,2225,0,7
1777452846.6111639,2245,0,7
1777452846.618882,2096,0,7
1777452846.619426,1882,0,7
1777452846.6223009,1629,0,7
1777452846.6252851,1922,0,7
1777452846.6274529,2223,0,7
1777452846.629408,2198,0,7
1777452846.632826,1953,0,7
1777452846.635839,1717,0,7
1777452846.63844,1724,0,7
1777452846.645362,2160,0,7
1777452846.646219,2234,0,7
1777452846.6483688,2099,0,7
1777452846.65028,1900,0,7
1777452846.6545768,1709,0,7
1777452846.65807,1894,0,7
1777452846.660933,2308,0,7
1777452846.6622841,2377,0,7
1777452846.66508,2098,0,7
1777452846.668065,1742,0,7
1777452846.6710541,1684,0,7
1777452846.6803641,2096,0,7
1777452846.680518,2280,0,7
1777452846.6819358,2150,0,7
1777452846.6835752,1911,0,7
1777452846.6862369,1652,0,7
1777452846.690391,1854,0,7
1777452846.693805,2300,0,7
1777452846.696521,2102,0,7
1777452846.698076,2038,0,7
1777452846.701049,1775,0,7
1777452846.707639,1738,0,7
1777452846.708225,2033,0,7
1777452846.710788,2264,0,7
1777452846.714289,2118,0,7
1777452846.717312,1914,0,7
1777452846.72066,1679,0,7
1777452846.723367,1812,0,7
1777452846.725077,2220,0,7
1777452846.728041,2172,0,7
1777452846.731088,2010,0,7
1777452846.734056,1725,0,7
1777452846.740839,1664,0,7
1777452846.742215,1977,0,7
1777452846.743902,2263,0,7
1777452846.746478,2194,0,7
1777452846.75052,1984,0,7
1777452846.753655,1716,0,7
1777452846.7561631,1778,0,7
1777452846.758059,2181,0,7
1777452846.765224,2285,0,7
1777452846.7657769,2090,0,7
1777452846.769126,1799,0,7
1777452846.7719932,1568,0,7
1777452846.774177,1894,0,7
1777452846.779296,2210,0,7
1777452846.779736,2169,0,7
1777452846.782351,1958,0,7
1777452846.785044,1679,0,7
1777452846.788064,1709,0,7
1777452846.791036,2034,0,7
1777452846.79408,2272,0,7
1777452846.800245,2153,0,7
1777452846.801274,1913,0,7
1777452846.804862,1665,0,7
1777452846.807169,1909,0,7
1777452846.809929,2267,0,7
1777452846.8132942,2261,0,7
1777452846.8160589,1936,0,7
1777452846.818645,1700,0,7
1777452846.821653,1720,0,7
1777452846.828449,2090,0,7
1777452846.830173,2201,0,7
1777452846.830315,2174,0,7
1777452846.833557,1893,0,7
1777452846.8398058,1638,0,7
1777452846.8400981,1865,0,7
1777452846.84247,2267,0,7
1777452846.845091,2251,0,7
1777452846.848078,2019,0,7
1777452846.8510568,1774,0,7
1777452846.8541088,1707,0,7
1777452846.8599849,2102,0,7
1777452846.861089,2243,0,7
1777452846.863704,2142,0,7
1777452846.867021,1936,0,7
1777452846.870529,1658,0,7
1777452846.874132,1892,0,7
1777452846.876995,2201,0,7
1777452846.8783438,2230,0,7
1777452846.881064,2063,0,7
1777452846.889796,1810,0,7
1777452846.890506,1722,0,7
1777452846.8917,2014,0,7
1777452846.893379,2370,0,7
1777452846.897413,2198,0,7
1777452846.9002922,1935,0,7
1777452846.903748,1641,0,7
1777452846.906374,1751,0,7
1777452846.907949,2203,0,7
1777452846.910964,2269,0,7
1777452846.9139478,2090,0,7
1777452846.916922,1846,0,7
1777452846.924629,1669,0,7
1777452846.925156,1962,0,7
1777452846.927706,2277,0,7
1777452846.930193,2247,0,7
1777452846.932658,2029,0,7
1777452846.938142,1682,0,7
1777452846.93837,1744,0,7
1777452846.940994,2202,0,7
1777452846.943944,2273,0,7
1777452846.9469051,2114,0,7
1777452846.95172,1882,0,7
1777452846.9541938,1683,0,7
1777452846.956604,1834,0,7
1777452846.96096,2278,0,7
1777452846.964447,2298,0,7
1777452846.964979,2031,0,7
1777452846.968129,1736,0,7
1777452846.970933,1760,0,7
1777452846.973919,2151,0,7
1777452846.976907,2306,0,7
1777452846.97992,2175,0,7
1777452846.985466,1950,0,7
1777452846.9870331,1677,0,7
1777452846.988928,1849,0,7
1777452846.9923189,2283,0,7
1777452846.998958,2270,0,7
1777452846.999711,2069,0,7
1777452847.003655,1787,0,7
1777452847.00393,1705,0,7
1777452847.006928,2097,0,7
1777452847.013952,2281,0,7
1777452847.0150442,2209,0,7
1777452847.0174038,1974,0,7
1777452847.019563,1682,0,7
1777452847.022933,1843,0,7
1777452847.0281138,2322,0,7
1777452847.0283132,2409,0,7
1777452847.0311968,2120,0,7
1777452847.0339708,1754,0,7
1777452847.036948,1660,0,7
1777452847.0399182,1978,0,7
1777452847.042924,2261,0,7
1777452847.0496168,2205,0,7
1777452847.050763,1983,0,7
1777452847.052896,1667,0,7
1777452847.0560288,1767,0,7
1777452847.058418,2243,0,7
1777452847.063586,2338,0,7
1777452847.064043,2188,0,7
1777452847.067348,1906,0,7
1777452847.069956,1703,0,7
1777452847.073094,2033,0,7
1777452847.0786529,2354,0,7
1777452847.0792372,2217,0,7
1777452847.083891,2028,0,7
1777452847.088157,1722,0,7
1777452847.0883,1736,0,7
1777452847.0917969,2133,0,7
1777452847.0946,2292,0,7
1777452847.0973141,2093,0,7
1777452847.100041,1835,0,7
1777452847.102941,1606,0,7
1777452847.1059399,1975,0,7
1777452847.1135979,2312,0,7
1777452847.114256,2278,0,7
1777452847.1177018,2083,0,7
1777452847.119827,1804,0,7
1777452847.1217432,1784,0,7
1777452847.128382,2156,0,7
1777452847.128581,2305,0,7
1777452847.131249,2182,0,7
1777452847.13297,1910,0,7
1777452847.13594,1662,0,7
1777452847.143538,1903,0,7
1777452847.14417,2285,0,7
1777452847.146008,2209,0,7
1777452847.148055,2063,0,7
1777452847.152595,1759,0,7
1777452847.156207,1726,0,7
1777452847.158962,2059,0,7
1777452847.1602812,2284,0,7
1777452847.1629398,2268,0,7
1777452847.165796,1966,0,7
1777452847.1687949,1708,0,7
1777452847.176536,1832,0,7
1777452847.1770759,2308,0,7
1777452847.179873,2278,0,7
1777452847.182559,2100,0,7
1777452847.1843069,1781,0,7
1777452847.19027,1703,0,7
1777452847.190428,2041,0,7
1777452847.193341,2295,0,7
1777452847.195921,2191,0,7
1777452847.203119,1990,0,7
1777452847.204057,1686,0,7
1777452847.2063239,1865,0,7
1777452847.208572,2273,0,7
1777452847.215901,2307,0,7
1777452847.216147,2115,0,7
1777452847.218494,1940,0,7
1777452847.219834,1803,0,7
1777452847.222792,1945,0,7
1777452847.2258172,2277,0,7
1777452847.228791,2244,0,7
1777452847.235625,1998,0,7
1777452847.2365131,1698,0,7
1777452847.238241,1735,0,7
1777452847.241287,2196,0,7
1777452847.2443058,2304,0,7
1777452847.2473972,2133,0,7
1777452847.249911,1903,0,7
1777452847.252811,1735,0,7
1777452847.259862,1978,0,7
1777452847.2606459,2322,0,7
1777452847.26207,2255,0,7
1777452847.265602,2072,0,7
1777452847.267937,1767,0,7
1777452847.2709901,1749,0,7
1777452847.274098,2148,0,7
1777452847.276814,2303,0,7
1777452847.279808,2218,0,7
1777452847.282808,1925,0,7
1777452847.288872,1706,0,7
1777452847.289336,1903,0,7
1777452847.292728,2262,0,7
1777452847.295037,2261,0,7
1777452847.2997508,2140,0,7
1777452847.30163,1837,0,7
1777452847.304184,1693,0,7
1777452847.3112562,2058,0,7
1777452847.311324,2324,0,7
1777452847.313889,2238,0,7
1777452847.316952,1942,0,7
1777452847.323184,1638,0,7
1777452847.323401,1829,0,7
1777452847.326097,2288,0,7
1777452847.3277838,2287,0,7
1777452847.330771,2105,0,7
1777452847.333785,1864,0,7
1777452847.336909,1741,0,7
1777452847.34366,2065,0,7
1777452847.3459048,2300,0,7
1777452847.346143,2221,0,7
1777452847.3495302,1968,0,7
1777452847.35243,1652,0,7
1777452847.3579469,1804,0,7
1777452847.358176,2278,0,7
1777452847.360849,2290,0,7
1777452847.368043,2108,0,7
1777452847.368642,1863,0,7
1777452847.370898,1648,0,7
1777452847.37287,2012,0,7
1777452847.377141,2338,0,7
1777452847.380352,2263,0,7
1777452847.38338,2012,0,7
1777452847.3847811,1754,0,7
1777452847.387805,1773,0,7
1777452847.390789,2280,0,7
1777452847.3937862,2282,0,7
1777452847.401355,2151,0,7
1777452847.402575,1924,0,7
1777452847.405143,1626,0,7
1777452847.408889,1957,0,7
1777452847.409607,2279,0,7
1777452847.4128242,2245,0,7
1777452847.416445,2030,0,7
1777452847.41945,1786,0,7
1777452847.4209018,1773,0,7
1777452847.423668,2183,0,7
1777452847.431815,2332,0,7
1777452847.433621,2165,0,7
1777452847.435999,1914,0,7
1777452847.438447,1696,0,7
1777452847.4415228,1899,0,7
1777452847.444927,2296,0,7
1777452847.445815,2308,0,7
1777452847.4484951,2045,0,7
1777452847.451137,1757,0,7
1777452847.453759,1744,0,7
1777452847.456834,2128,0,7
1777452847.459719,2350,0,7
1777452847.4669561,2239,0,7
1777452847.4671628,1975,0,7
1777452847.472076,1675,0,7
1777452847.473301,1944,0,7
1777452847.477531,2257,0,7
1777452847.481348,2312,0,7
1777452847.4816158,2050,0,7
1777452847.484975,1808,0,7
1777452847.486654,1736,0,7
1777452847.489661,2030,0,7
1777452847.4962041,2263,0,7
1777452847.499109,2243,0,7
1777452847.50175,2026,0,7
1777452847.503422,1751,0,7
1777452847.505143,1820,0,7
1777452847.5114722,2250,0,7
1777452847.5116842,2313,0,7
1777452847.514953,2125,0,7
1777452847.516661,1874,0,7
1777452847.51966,1704,0,7
1777452847.522665,2021,0,7
1777452847.526382,2361,0,7
1777452847.537306,2303,0,7
1777452847.539242,2020,0,7
1777452847.539397,1729,0,7
1777452847.539615,1847,0,7
1777452847.542546,2260,0,7
1777452847.545299,2345,0,7
1777452847.552212,2167,0,7
1777452847.552719,1908,0,7
1777452847.5529542,1702,0,7
1777452847.556127,1970,0,7
1777452847.558972,2317,0,7
1777452847.561656,2305,0,7
1777452847.569005,2047,0,7
1777452847.570296,1780,0,7
1777452847.571535,1733,0,7
1777452847.573765,2176,0,7
1777452847.5771031,2299,0,7
1777452847.581567,2172,0,7
1777452847.586016,1935,0,7
1777452847.586396,1740,0,7
1777452847.5897448,1949,0,7
1777452847.5916538,2282,0,7
1777452847.59465,2302,0,7
1777452847.5976498,2084,0,7
1777452847.6006532,1786,0,7
1777452847.61007,1773,0,7
1777452847.610934,2105,0,7
1777452847.614043,2301,0,7
1777452847.61453,2187,0,7
1777452847.617642,1983,0,7
1777452847.619931,1680,0,7
1777452847.627764,1902,0,7
1777452847.6283069,2305,0,7
1777452847.628601,2296,0,7
1777452847.631781,2065,0,7
1777452847.633663,1874,0,7
1777452847.637096,1747,0,7
1777452847.645607,2068,0,7
1777452847.6469991,2317,0,7
1777452847.648917,2211,0,7
1777452847.6492732,1980,0,7
1777452847.652204,1730,0,7
1777452847.657621,1850,0,7
1777452847.662174,2289,0,7
1777452847.662624,2296,0,7
1777452847.665767,2164,0,7
1777452847.6670961,1864,0,7
1777452847.669699,1698,0,7
1777452847.672565,2015,0,7
1777452847.675544,2238,0,7
1777452847.678569,2255,0,7
1777452847.6851761,2070,0,7
1777452847.685826,1739,0,7
1777452847.688066,1779,0,7
1777452847.692598,2225,0,7
1777452847.6947808,2326,0,7
1777452847.698014,2232,0,7
1777452847.702029,1899,0,7
1777452847.702729,1682,0,7
