timestamp,ch1,ch2,label
1789468364.062447,2043,2879,8
1789468364.062479,2046,2879,8
1789468364.0645509,2102,2881,8
1789468364.066842,2124,2879,8
1789468364.068415,2073,2879,8
1789468364.071282,2041,2879,8
1789468364.073625,2087,2880,8
1789468364.0749152,2096,2880,8
1789468364.0762,2070,2880,8
1789468364.078748,2071,2879,8
1789468364.080062,2107,2881,8
1789468364.082647,2087,2880,8
1789468364.084055,2061,2877,8
1789468364.0863721,2040,2878,8
1789468364.088917,2052,2878,8
1789468364.090057,2094,2879,8
1789468364.0923579,2113,2881,8
1789468364.094761,2078,2879,8
1789468364.096046,2085,2878,8
1789468364.0985851,2124,2879,8
1789468364.1006331,2093,2879,8
1789468364.102699,2030,2878,8
1789468364.104043,2034,2879,8
1789468364.106359,2084,2879,8
1789468364.108413,2110,2880,8
1789468364.110954,2056,2877,8
1789468364.11224,2051,2879,8
1789468364.114781,2059,2876,8
1789468364.116072,2164,2880,8
1789468364.1183748,2111,2879,8
1789468364.120455,2070,2879,8
1789468364.1227572,2019,2878,8
1789468364.12497,2106,2880,8
1789468364.126359,2139,2881,8
1789468364.1301749,2085,2878,8
1789468364.131268,2071,2881,8
1789468364.133718,2077,2880,8
1789468364.135426,2076,2879,8
1789468364.137303,2071,2880,8
1789468364.1396842,2089,2879,8
1789468364.140987,2102,2879,8
1789468364.142275,2073,2877,8
1789468364.144767,2059,2877,8
1789468364.147077,2080,2878,8
1789468364.148368,2102,2880,8
1789468364.150437,2088,2879,8
1789468364.152513,2055,2877,8
1789468364.154571,2057,2879,8
1789468364.15665,2069,2879,8
1789468364.1587148,2072,2878,8
1789468364.160052,2076,2878,8
1789468364.162598,2089,2879,8
1789468364.164914,2106,2880,8
1789468364.1662002,2064,2880,8
1789468364.168612,2036,2879,8
1789468364.1710012,2158,2878,8
1789468364.172061,2111,2879,8
1789468364.1741388,2086,2880,8
1789468364.1764429,2028,2878,8
1789468364.1789818,2106,2881,8
1789468364.180265,2110,2880,8
1789468364.182328,2161,2879,8
1789468364.1846368,2093,2880,8
1789468364.186944,1985,2876,8
1789468364.1882298,1981,2879,8
1789468364.190537,2091,2881,8
1789468364.193059,2141,2881,8
1789468364.194344,2074,2878,8
1789468364.1964002,2078,2880,8
1789468364.198705,2116,2880,8
1789468364.2010062,2111,2879,8
1789468364.2022898,2070,2879,8
1789468364.204839,2096,2879,8
1789468364.206906,2135,2880,8
1789468364.208193,2085,2881,8
1789468364.210357,1999,2877,8
1789468364.212899,2022,2877,8
1789468364.214185,2114,2879,8
1789468364.216248,2149,2880,8
1789468364.2185469,2108,2879,8
1789468364.223213,2073,2880,8
1789468364.223969,2097,2878,8
1789468364.224368,2112,2880,8
1789468364.227446,2071,2878,8
1789468364.228796,2088,2878,8
1789468364.230111,2068,2877,8
1789468364.232605,2072,2881,8
1789468364.234679,2098,2879,8
1789468364.236056,2069,2878,8
1789468364.2383711,2086,2880,8
1789468364.240822,2107,2880,8
1789468364.2429252,2071,2878,8
1789468364.244027,2064,2878,8
1789468364.24617,2098,2880,8
1789468364.248481,2114,2880,8
1789468364.251023,2069,2880,8
1789468364.25231,2017,2879,8
1789468364.2547252,2092,2879,8
1789468364.256022,2101,2879,8
1789468364.2583349,2082,2880,8
1789468364.260501,2086,2879,8
1789468364.262804,2152,2880,8
1789468364.2640882,2049,2877,8
1789468364.266627,2121,2880,8
1789468364.268935,2060,2878,8
1789468364.270057,2046,2878,8
1789468364.272558,2068,2878,8
1789468364.27497,2100,2880,8
1789468364.27602,2055,2877,8
1789468364.278323,2046,2879,8
1789468364.280415,2030,2879,8
1789468364.282954,2144,2881,8
1789468364.2842371,2112,2879,8
1789468364.2866921,2036,2878,8
1789468364.2889931,2081,2879,8
1789468364.290277,2117,2879,8
1789468364.2961469,2080,2880,8
1789468364.296594,2062,2879,8
1789468364.2970371,2097,2880,8
1789468364.298356,2138,2881,8
1789468364.301226,2097,2879,8
1789468364.302913,2033,2879,8
1789468364.305644,2099,2878,8
1789468364.306944,2088,2879,8
1789468364.308206,2051,2878,8
1789468364.3107479,2051,2878,8
1789468364.316134,2119,2881,8
1789468364.316923,2106,2880,8
1789468364.3173969,2135,2879,8
1789468364.318666,2083,2880,8
1789468364.320429,2044,2879,8
1789468364.323552,2079,2880,8
1789468364.326093,2090,2880,8
1789468364.326266,2035,2878,8
1789468364.328568,2054,2878,8
1789468364.331116,2106,2880,8
1789468364.332155,2120,2879,8
1789468364.334234,2084,2880,8
1789468364.336451,2066,2880,8
1789468364.3387551,2060,2879,8
1789468364.340123,2053,2879,8
1789468364.342674,2087,2878,8
1789468364.345217,2091,2878,8
1789468364.346273,2098,2881,8
1789468364.348534,2094,2879,8
1789468364.3510761,2102,2878,8
1789468364.352119,2075,2879,8
1789468364.354232,2087,2879,8
1789468364.356333,2089,2880,8
1789468364.358631,2078,2878,8
1789468364.360779,2043,2878,8
1789468364.363084,2073,2879,8
1789468364.364135,2103,2881,8
1789468364.366674,2091,2878,8
1789468364.3687732,2052,2878,8
1789468364.371079,2048,2879,8
1789468364.3723662,2074,2878,8
1789468364.374665,2123,2880,8
1789468364.376906,2073,2879,8
1789468364.38179,2078,2879,8
1789468364.383001,2100,2880,8
1789468364.383478,2099,2880,8
1789468364.386194,2084,2878,8
1789468364.386627,2047,2878,8
1789468364.389127,2073,2880,8
1789468364.391884,2145,2880,8
1789468364.3931992,2095,2880,8
1789468364.394488,2035,2879,8
1789468364.396789,1993,2878,8
1789468364.402427,2001,2878,8
1789468364.402564,2058,2880,8
1789468364.403585,2038,2879,8
1789468364.4048152,2213,2879,8
1789468364.40627,2128,2880,8
1789468364.409407,2092,2880,8
1789468364.41236,2084,2880,8
1789468364.412535,2128,2881,8
1789468364.4150798,2140,2879,8
1789468364.416157,2154,2880,8
1789468364.41846,2048,2880,8
1789468364.420783,2011,2877,8
1789468364.4221609,2102,2880,8
1789468364.424704,2096,2880,8
1789468364.4272451,2016,2877,8
1789468364.42853,2054,2878,8
1789468364.431077,2114,2881,8
1789468364.432361,2126,2880,8
1789468364.434902,2088,2879,8
1789468364.43722,2047,2879,8
1789468364.4382699,2043,2879,8
1789468364.4405289,2084,2879,8
1789468364.443073,2032,2877,8
1789468364.4443579,2084,2879,8
1789468364.446419,2119,2879,8
1789468364.448729,2131,2881,8
1789468364.45103,2096,2879,8
1789468364.4523158,2061,2879,8
1789468364.454626,2054,2879,8
1789468364.457155,2082,2879,8
1789468364.458396,2084,2879,8
1789468364.4609358,2071,2878,8
1789468364.4622211,2111,2880,8
1789468364.464563,2065,2879,8
1789468364.468564,2046,2880,8
1789468364.46897,2044,2878,8
1789468364.470963,2175,2879,8
1789468364.472969,2126,2879,8
1789468364.475659,2034,2877,8
1789468364.477039,2040,2879,8
1789468364.478606,2078,2879,8
1789468364.480916,2105,2881,8
1789468364.483213,2135,2879,8
1789468364.484498,2083,2879,8
1789468364.486826,2036,2877,8
1789468364.489145,2075,2879,8
1789468364.490437,2119,2881,8
1789468364.492737,2067,2878,8
1789468364.495033,2049,2879,8
1789468364.496317,2089,2878,8
1789468364.498858,2113,2879,8
1789468364.50017,2093,2879,8
1789468364.502722,2044,2879,8
1789468364.505264,2055,2878,8
1789468364.506308,2066,2880,8
1789468364.5086012,2111,2879,8
1789468364.51114,2056,2879,8
1789468364.512424,2071,2878,8
1789468364.514652,2160,2880,8
1789468364.516727,2102,2878,8
1789468364.518789,2066,2878,8
1789468364.5210109,2086,2878,8
1789468364.522173,2074,2879,8
1789468364.524238,2087,2880,8
1789468364.526645,2016,2877,8
1789468364.5289469,2040,2879,8
1789468364.5341508,2136,2881,8
1789468364.534838,2133,2879,8
1789468364.534941,2060,2880,8
1789468364.5367832,2056,2878,8
1789468364.538269,2095,2879,8
1789468364.5418172,2112,2879,8
1789468364.543736,2079,2878,8
1789468364.54481,2056,2879,8
1789468364.5461812,2086,2880,8
1789468364.5484831,2075,2879,8
1789468364.550943,2051,2879,8
1789468364.5522282,1988,2876,8
1789468364.554378,2023,2879,8
1789468364.556927,2127,2880,8
1789468364.5582259,2309,2881,8
1789468364.5603,2104,2880,8
1789468364.562597,2045,2878,8
1789468364.565017,2092,2881,8
1789468364.566163,2139,2879,8
1789468364.568707,2153,2880,8
1789468364.571249,2005,2877,8
1789468364.572289,1920,2877,8
1789468364.574589,2009,2878,8
1789468364.576886,1915,2879,8
1789468364.578184,1974,2878,8
1789468364.580725,1807,2877,8
1789468364.583024,2287,2881,8
1789468364.5841868,2293,2881,8
1789468364.586748,2365,2881,8
1789468364.589128,2261,2880,8
1789468364.590414,2061,2880,8
1789468364.592855,2216,2881,8
1789468364.59418,2024,2878,8
1789468364.599224,1948,2878,8
1789468364.60026,2038,2878,8
1789468364.601378,1875,2876,8
1789468364.602922,2075,2879,8
1789468364.604485,2018,2879,8
1789468364.607169,2135,2880,8
1789468364.6089332,1846,2877,8
1789468364.610228,2168,2879,8
1789468364.612542,2366,2881,8
1789468364.614871,2353,2881,8
1789468364.619216,2117,2879,8
1789468364.61994,1936,2877,8
1789468364.621654,2120,2880,8
1789468364.6230578,2191,2880,8
1789468364.624298,1900,2876,8
1789468364.6275132,1839,2878,8
1789468364.6291142,2196,2880,8
1789468364.631464,2186,2880,8
1789468364.632517,1989,2878,8
1789468364.635056,2001,2879,8
1789468364.636371,2228,2880,8
1789468364.638936,2069,2880,8
1789468364.64123,1882,2879,8
1789468364.6422908,1981,2878,8
1789468364.644628,1735,2878,8
1789468364.6467462,2790,2883,8
1789468364.649135,2253,2879,8
1789468364.6503308,1892,2879,8
1789468364.6525571,1928,2876,8
1789468364.6548648,1997,2877,8
1789468364.657161,2336,2879,8
1789468364.658278,1939,2877,8
1789468364.660376,1828,2878,8
1789468364.6629179,1618,2877,8
1789468364.6643462,2082,2879,8
1789468364.666538,2185,2880,8
1789468364.668834,1942,2879,8
1789468364.670906,1939,2879,8
1789468364.673207,2410,2881,8
1789468364.6744902,2311,2881,8
1789468364.676697,2041,2878,8
1789468364.6790001,1856,2877,8
1789468364.680452,2051,2878,8
1789468364.6839502,1862,2877,8
1789468364.685597,1996,2879,8
1789468364.688226,2320,2879,8
1789468364.6885812,1906,2879,8
1789468364.691384,2095,2880,8
1789468364.692912,2024,2879,8
1789468364.6945379,1777,2878,8
1789468364.696856,2433,2881,8
1789468364.6994,2233,2881,8
1789468364.7005491,1834,2878,8
1789468364.704912,1894,2880,8
1789468364.705025,1779,2877,8
1789468364.706978,1993,2878,8
1789468364.7083871,2101,2878,8
1789468364.711176,1981,2878,8
1789468364.712748,2087,2878,8
1789468364.7146409,1971,2877,8
1789468364.71695,2029,2880,8
1789468364.7190201,1982,2878,8
1789468364.720287,2048,2880,8
1789468364.7226071,2196,2879,8
1789468364.724712,1982,2878,8
1789468364.727015,1591,2878,8
1789468364.729314,1988,2879,8
1789468364.730604,1421,2876,8
1789468364.7326689,2296,2879,8
1789468364.7347279,2502,2880,8
1789468364.737032,1969,2878,8
1789468364.738323,1872,2879,8
1789468364.740629,1359,2877,8
1789468364.742847,2571,2881,8
1789468364.745386,2472,2881,8
1789468364.746441,1870,2877,8
1789468364.748508,1382,2877,8
1789468364.7508118,2500,2881,8
1789468364.753046,2079,2879,8
1789468364.755348,1902,2878,8
1789468364.756633,1703,2878,8
1789468364.758935,2150,2878,8
1789468364.7612429,2008,2880,8
1789468364.762293,1723,2879,8
1789468364.764619,1758,2878,8
1789468364.7690072,1905,2876,8
1789468364.7694762,1959,2880,8
1789468364.771595,1816,2879,8
1789468364.7735271,1578,2877,8
1789468364.775525,2282,2880,8
1789468364.778302,2159,2880,8
1789468364.778414,2041,2878,8
1789468364.780771,1991,2879,8
1789468364.783318,1784,2879,8
1789468364.784606,1793,2877,8
1789468364.7868211,1891,2877,8
1789468364.7893782,1589,2876,8
1789468364.790449,1707,2876,8
1789468364.7928388,2250,2881,8
1789468364.7951381,1998,2877,8
1789468364.796323,1787,2878,8
1789468364.7987359,1610,2877,8
1789468364.8010209,1856,2877,8
1789468364.8023071,2413,2880,8
1789468364.804608,1542,2876,8
1789468364.806674,1997,2879,8
1789468364.809213,1747,2877,8
1789468364.810497,1310,2878,8
1789468364.812806,2227,2880,8
1789468364.8153448,1866,2878,8
1789468364.81654,2063,2878,8
1789468364.818845,1725,2878,8
1789468364.8211389,1755,2877,8
1789468364.823363,1847,2877,8
1789468364.824405,1630,2876,8
1789468364.8267038,1499,2877,8
1789468364.829244,1888,2877,8
1789468364.830299,1866,2878,8
1789468364.8356109,2461,2880,8
1789468364.836388,1823,2877,8
1789468364.8364842,1831,2878,8
1789468364.839137,1888,2878,8
1789468364.8407621,1709,2877,8
1789468364.842506,1536,2876,8
1789468364.845668,2005,2877,8
1789468364.846965,1795,2878,8
1789468364.849335,1835,2877,8
1789468364.850622,1496,2876,8
1789468364.852938,1604,2877,8
1789468364.855052,2195,2878,8
1789468364.8563452,1937,2877,8
1789468364.858644,1534,2877,8
1789468364.8609412,1699,2878,8
1789468364.8633358,2821,2881,8
1789468364.8643808,2084,2879,8
1789468364.866923,1145,2877,8
1789468364.8693619,1480,2876,8
1789468364.8704052,1990,2878,8
1789468364.872616,2138,2882,8
1789468364.874917,2166,2879,8
1789468364.8772109,1978,2876,8
1789468364.879274,2128,2880,8
1789468364.880565,1923,2877,8
1789468364.882659,2051,2878,8
1789468364.884974,2050,2879,8
1789468364.887346,1866,2876,8
1789468364.888638,1788,2878,8
1789468364.891039,1819,2877,8
1789468364.8923252,1973,2877,8
1789468364.8946218,2036,2879,8
1789468364.8999941,1851,2876,8
1789468364.900332,2176,2881,8
1789468364.900695,1828,2878,8
1789468364.902594,2002,2878,8
1789468364.905678,1764,2877,8
1789468364.9073322,2272,2879,8
1789468364.9092731,2202,2879,8
1789468364.91084,990,2876,8
1789468364.913159,1804,2876,8
1789468364.914447,2567,2880,8
1789468364.916978,2241,2880,8
1789468364.921195,2229,2879,8
1789468364.9216268,1804,2878,8
1789468364.9233751,1785,2878,8
1789468364.924852,1251,2877,8
1789468364.9276109,2777,2881,8
1789468364.929468,2145,2881,8
1789468364.9315772,2019,2879,8
1789468364.9328692,2100,2880,8
1789468364.9351811,1515,2877,8
1789468364.936468,2035,2878,8
1789468364.938529,2211,2879,8
1789468364.941082,2004,2878,8
1789468364.942438,2066,2878,8
1789468364.9448051,2145,2880,8
1789468364.9473438,1335,2877,8
1789468364.948629,1578,2877,8
1789468364.950932,2055,2879,8
1789468364.9531462,2318,2880,8
1789468364.9544342,2147,2880,8
1789468364.9569752,1430,2878,8
1789468364.959271,2007,2878,8
1789468364.960563,2558,2881,8
1789468364.962882,2614,2881,8
1789468364.965429,1993,2879,8
1789468364.966717,1964,2879,8
1789468364.969026,2012,2878,8
1789468364.970409,1954,2878,8
1789468364.972956,1856,2879,8
1789468364.975504,1052,2877,8
1789468364.976794,3112,2882,8
1789468364.979342,1842,2878,8
1789468364.9805179,2006,2879,8
1789468364.983068,1894,2879,8
1789468364.987962,2016,2878,8
1789468364.988321,2585,2882,8
1789468364.988703,1761,2878,8
1789468364.9919271,1791,2877,8
1789468364.994653,2410,2880,8
1789468364.9966831,1900,2876,8
1789468364.9968371,1758,2876,8
1789468364.999486,2167,2880,8
1789468365.000635,1392,2877,8
1789468365.0029418,1288,2877,8
1789468365.0054889,3715,2885,8
1789468365.006551,2572,2881,8
1789468365.0091121,2008,2880,8
1789468365.010448,1371,2878,8
1789468365.012766,1810,2877,8
1789468365.015313,3214,2883,8
1789468365.016598,3052,2883,8
1789468365.0189078,1672,2876,8
1789468365.0214489,1462,2877,8
1789468365.02249,1837,2877,8
1789468365.02477,2146,2878,8
1789468365.027076,2591,2881,8
1789468365.0291378,1725,2877,8
1789468365.030436,1821,2877,8
1789468365.0329769,1958,2880,8
1789468365.035517,2028,2879,8
1789468365.0368,1862,2878,8
1789468365.039351,2304,2881,8
1789468365.040643,2205,2881,8
1789468365.042938,1799,2877,8
1789468365.045036,1711,2878,8
1789468365.047414,1549,2877,8
1789468365.048699,1813,2879,8
1789468365.05495,2057,2879,8
1789468365.05568,2545,2880,8
1789468365.057151,2455,2880,8
1789468365.057305,1350,2878,8
1789468365.058798,2539,2881,8
1789468365.0619671,2257,2880,8
1789468365.064567,1355,2878,8
1789468365.064729,2690,2882,8
1789468365.067126,1866,2879,8
1789468365.0684202,1657,2877,8
1789468365.0704799,1902,2878,8
1789468365.0759192,2264,2879,8
1789468365.0763462,2100,2877,8
1789468365.07697,2039,2878,8
1789468365.079788,2094,2878,8
1789468365.0815759,1990,2877,8
1789468365.084822,1872,2878,8
1789468365.084974,3308,2884,8
1789468365.086842,1446,2876,8
1789468365.0893,1757,2877,8
1789468365.090587,2008,2877,8
1789468365.093129,2543,2881,8
1789468365.095288,2550,2880,8
1789468365.0965812,1542,2878,8
1789468365.0991218,2394,2880,8
1789468365.1004171,2048,2879,8
1789468365.10296,2010,2879,8
1789468365.105504,1883,2877,8
1789468365.106561,2469,2881,8
1789468365.108831,2336,2880,8
1789468365.1113758,1663,2879,8
1789468365.112661,1879,2878,8
1789468365.115008,2088,2879,8
1789468365.1175559,2328,2880,8
1789468365.11884,2064,2880,8
1789468365.1211462,1828,2877,8
1789468365.122431,1844,2878,8
1789468365.124738,2095,2879,8
1789468365.1267998,2520,2881,8
1789468365.1293418,2324,2879,8
1789468365.130471,1558,2877,8
1789468365.132938,1739,2877,8
1789468365.135243,2268,2880,8
1789468365.137334,2681,2882,8
1789468365.141773,1798,2877,8
1789468365.142175,1947,2878,8
1789468365.144153,2161,2880,8
1789468365.146025,2273,2880,8
1789468365.148808,1752,2878,8
1789468365.148962,2770,2881,8
1789468365.151886,2023,2880,8
1789468365.153728,2182,2880,8
1789468365.1547809,2797,2882,8
1789468365.15733,1023,2878,8
1789468365.158617,1140,2878,8
1789468365.162941,3257,2882,8
1789468365.163359,3294,2884,8
1789468365.165453,1800,2879,8
1789468365.166941,1816,2877,8
1789468365.170124,1991,2879,8
1789468365.172792,2089,2877,8
1789468365.172988,1748,2877,8
1789468365.175458,2777,2881,8
1789468365.176743,2704,2880,8
1789468365.179286,1387,2876,8
1789468365.180588,1659,2878,8
1789468365.183178,3362,2884,8
1789468365.1845381,2691,2881,8
1789468365.186852,1206,2877,8
1789468365.189028,2142,2879,8
1789468365.191089,2397,2882,8
1789468365.193631,2169,2881,8
1789468365.194676,1760,2876,8
1789468365.197217,1890,2877,8
1789468365.19855,1275,2877,8
1789468365.2009542,2539,2881,8
1789468365.20326,709,2876,8
1789468365.205322,3622,2884,8
1789468365.2073889,3199,2883,8
1789468365.208674,1737,2878,8
1789468365.210978,1662,2877,8
1789468365.2132769,2228,2880,8
1789468365.214554,2496,2881,8
1789468365.216855,2145,2879,8
1789468365.219392,1766,2877,8
1789468365.255606,2280,2880,8
1789468365.2557042,1834,2877,8
1789468365.255859,1556,2878,8
1789468365.255954,2394,2881,8
1789468365.2560508,2274,2880,8
1789468365.256149,2197,2880,8
1789468365.2562292,1941,2877,8
1789468365.2563121,2051,2881,8
1789468365.25634,2354,2880,8
1789468365.256386,1727,2876,8
1789468365.256476,1539,2877,8
1789468365.256505,2212,2880,8
1789468365.2565892,3172,2883,8
1789468365.256667,2207,2880,8
1789468365.256751,1414,2876,8
1789468365.2568462,2268,2881,8
1789468365.256978,2362,2881,8
1789468365.257053,2302,2881,8
1789468365.257097,2027,2878,8
1789468365.2639942,1548,2878,8
1789468365.264168,2498,2882,8
1789468365.264238,1708,2876,8
1789468365.2684128,2316,2879,8
1789468365.268878,2221,2879,8
1789468365.268982,2055,2880,8
1789468365.27129,2200,2879,8
1789468365.2735941,2134,2880,8
1789468365.2748852,2637,2882,8
1789468365.27743,2375,2880,8
1789468365.278652,2040,2881,8
1789468365.280722,1609,2878,8
1789468365.282772,2051,2878,8
1789468365.285229,1903,2878,8
1789468365.287534,1670,2878,8
1789468365.288575,2880,2881,8
1789468365.290647,2936,2883,8
1789468365.297033,1602,2877,8
1789468365.298252,1895,2877,8
1789468365.2987149,2240,2879,8
1789468365.298817,2033,2879,8
1789468365.30157,1894,2878,8
1789468365.303319,2650,2880,8
1789468365.3047302,1895,2878,8
1789468365.307731,2179,2879,8
1789468365.3094752,1933,2879,8
1789468365.310776,1234,2877,8
1789468365.3133261,1652,2879,8
1789468365.318772,2832,2882,8
1789468365.31919,3123,2882,8
1789468365.320033,1868,2879,8
1789468365.321551,2025,2879,8
1789468365.323505,1711,2876,8
1789468365.325084,1535,2878,8
1789468365.329777,2521,2881,8
1789468365.3299358,2813,2881,8
1789468365.3319092,2123,2881,8
1789468365.3332129,1941,2876,8
1789468365.3346,1932,2877,8
1789468365.337152,2353,2882,8
1789468365.339678,2325,2880,8
1789468365.340738,2063,2877,8
1789468365.3430452,1782,2877,8
1789468365.345345,2269,2880,8
1789468365.34657,2327,2880,8
1789468365.3491242,1974,2877,8
1789468365.351448,2022,2879,8
1789468365.35256,1922,2878,8
1789468365.355108,2003,2877,8
1789468365.357402,2107,2880,8
1789468365.358686,1758,2877,8
1789468365.360981,2194,2880,8
1789468365.3635252,2585,2881,8
1789468365.3645802,2562,2881,8
1789468365.3668742,1766,2878,8
1789468365.369421,1748,2878,8
1789468365.370707,2391,2881,8
1789468365.373246,2361,2881,8
1789468365.3755798,2212,2879,8
1789468365.376867,2161,2880,8
1789468365.379406,1938,2877,8
1789468365.3806899,2200,2880,8
1789468365.386297,2137,2879,8
1789468365.3870459,2021,2877,8
1789468365.387873,2111,2880,8
1789468365.389358,1645,2878,8
1789468365.3908522,1905,2879,8
1789468365.3942971,2778,2881,8
1789468365.397673,1853,2878,8
1789468365.397805,1947,2880,8
1789468365.399338,2634,2881,8
1789468365.4017909,1994,2878,8
1789468365.40308,1918,2878,8
1789468365.408691,2572,2882,8
1789468365.4091141,1840,2879,8
1789468365.409471,2187,2881,8
1789468365.4114618,2486,2881,8
1789468365.4133492,1792,2877,8
1789468365.4158359,2070,2881,8
1789468365.41931,1925,2878,8
1789468365.419488,2122,2878,8
1789468365.421351,2284,2881,8
1789468365.4226801,2047,2878,8
1789468365.425206,1986,2878,8
1789468365.427262,2336,2880,8
1789468365.4298198,2055,2879,8
1789468365.431108,2136,2880,8
1789468365.433651,1682,2878,8
1789468365.434699,2646,2881,8
1789468365.437243,2124,2881,8
1789468365.439784,2339,2880,8
1789468365.440824,2100,2880,8
1789468365.4431171,1822,2876,8
1789468365.445656,2287,2880,8
1789468365.446941,1949,2878,8
1789468365.449481,2232,2879,8
1789468365.450764,1874,2878,8
1789468365.452987,2306,2881,8
1789468365.4555252,2060,2877,8
1789468365.45665,1667,2877,8
1789468365.458849,2545,2882,8
1789468365.461143,2251,2880,8
1789468365.463447,2016,2879,8
1789468365.465749,1936,2877,8
1789468365.467036,1860,2877,8
1789468365.469344,2166,2881,8
1789468365.471522,2728,2881,8
1789468365.473582,1943,2876,8
1789468365.477813,2077,2879,8
1789468365.478206,1911,2877,8
1789468365.48008,2019,2878,8
1789468365.481633,2169,2880,8
1789468365.4831932,2218,2879,8
1789468365.4879098,2205,2879,8
1789468365.488039,2107,2880,8
1789468365.489579,2089,2880,8
1789468365.490871,2116,2881,8
1789468365.4934149,2090,2878,8
1789468365.4946802,2076,2878,8
1789468365.4993842,2105,2881,8
1789468365.500181,2083,2878,8
1789468365.501665,2068,2878,8
1789468365.503458,1953,2877,8
1789468365.50512,2099,2880,8
1789468365.509875,2243,2879,8
1789468365.510022,2107,2879,8
1789468365.5119302,1920,2877,8
1789468365.51322,2350,2880,8
1789468365.51575,2323,2880,8
1789468365.517039,2122,2880,8
1789468365.519113,2093,2880,8
1789468365.521441,2168,2880,8
1789468365.522687,2214,2880,8
1789468365.525228,2196,2881,8
1789468365.5275252,2198,2880,8
1789468365.52881,2111,2880,8
1789468365.531114,2136,2879,8
1789468365.53366,2267,2880,8
1789468365.534716,2185,2879,8
1789468365.53702,1986,2876,8
1789468365.539559,2228,2880,8
1789468365.540708,2194,2879,8
1789468365.543007,1903,2877,8
1789468365.545546,2396,2880,8
1789468365.547615,2313,2879,8
1789468365.548691,2222,2879,8
1789468365.55075,2216,2880,8
1789468365.553047,2104,2880,8
1789468365.555348,2262,2879,8
1789468365.557651,2235,2880,8
1789468365.558934,2251,2881,8
1789468365.561472,2119,2880,8
1789468365.562759,2036,2877,8
1789468365.568258,2003,2877,8
1789468365.5687392,2210,2880,8
1789468365.569514,2350,2879,8
1789468365.570984,2352,2880,8
1789468365.573834,2255,2880,8
1789468365.57552,2214,2880,8
1789468365.57888,2194,2880,8
1789468365.5790799,2274,2881,8
1789468365.58111,2238,2880,8
1789468365.583663,2210,2881,8
1789468365.584716,2153,2880,8
1789468365.5906649,2096,2880,8
1789468365.591468,2128,2879,8
1789468365.591606,2150,2879,8
1789468365.592869,2087,2879,8
1789468365.59634,2133,2877,8
1789468365.597675,2265,2879,8
1789468365.601424,2109,2879,8
1789468365.601622,2169,2879,8
1789468365.603094,2167,2879,8
1789468365.605668,2333,2880,8
1789468365.606836,2278,2879,8
1789468365.609191,2174,2880,8
1789468365.611508,2223,2880,8
1789468365.6126988,2239,2880,8
1789468365.615243,2265,2880,8
1789468365.6177862,2148,2880,8
1789468365.6188319,2114,2880,8
1789468365.62137,2056,2879,8
1789468365.6236742,2032,2879,8
1789468365.6249568,2113,2879,8
1789468365.6274948,2093,2878,8
1789468365.628692,2021,2878,8
1789468365.631243,2140,2880,8
1789468365.633318,2300,2880,8
1789468365.6353972,2130,2879,8
1789468365.6379452,2180,2879,8
1789468365.6392279,2028,2879,8
1789468365.641442,2198,2881,8
1789468365.6428,2137,2881,8
1789468365.645345,2046,2878,8
1789468365.647586,2093,2879,8
1789468365.649651,2134,2879,8
1789468365.650701,2112,2880,8
1789468365.652747,1964,2880,8
1789468365.657563,1968,2876,8
1789468365.658058,2191,2880,8
1789468365.660016,2196,2880,8
1789468365.661591,2020,2877,8
1789468365.663563,1952,2879,8
1789468365.668349,2107,2880,8
1789468365.668614,2247,2881,8
1789468365.670542,2065,2880,8
1789468365.671833,1905,2877,8
1789468365.672883,2277,2881,8
1789468365.675101,2145,2880,8
1789468365.679355,2020,2878,8
1789468365.6794891,2164,2879,8
1789468365.6912131,2193,2880,8
1789468365.6912498,2338,2880,8
1789468365.692984,1997,2879,8
1789468365.6930912,1773,2876,8
1789468365.693161,2069,2880,8
1789468365.693225,2294,2880,8
1789468365.693287,1999,2879,8
1789468365.694827,1909,2878,8
1789468365.6978571,2144,2881,8
1789468365.699946,2351,2880,8
1789468365.702653,2074,2880,8
1789468365.702761,2038,2879,8
1789468365.7053661,2063,2879,8
1789468365.70676,2140,2881,8
1789468365.7094579,2065,2878,8
1789468365.7108312,2018,2877,8
1789468365.713435,2046,2878,8
1789468365.714795,2175,2880,8
1789468365.717506,2116,2879,8
1789468365.718902,1799,2876,8
1789468365.721513,1926,2877,8
1789468365.7228448,2205,2880,8
1789468365.725625,2182,2881,8
1789468365.727031,2034,2878,8
1789468365.729751,2004,2879,8
1789468365.7311208,2202,2880,8
1789468365.733763,2012,2878,8
1789468365.7351072,2131,2880,8
1789468365.737843,2241,2880,8
1789468365.745016,2068,2879,8
1789468365.747688,1739,2878,8
1789468365.750289,2229,2880,8
1789468365.7538261,2234,2881,8
1789468365.754477,2063,2880,8
1789468365.756351,2131,2880,8
1789468365.7566762,2150,2880,8
1789468365.7568011,2056,2880,8
1789468365.756874,2213,2880,8
1789468365.756941,2327,2881,8
1789468365.759747,2178,2880,8
1789468365.7611258,1963,2879,8
1789468365.767571,1859,2877,8
1789468365.769428,1969,2877,8
1789468365.7697122,1547,2877,8
1789468365.77214,1767,2876,8
1789468365.7780962,2998,2882,8
1789468365.778782,2242,2878,8
1789468365.780599,1890,2877,8
1789468365.780734,1988,2879,8
1789468365.780791,2093,2878,8
1789468365.78082,2121,2879,8
1789468365.783457,2173,2878,8
1789468365.784821,2350,2880,8
1789468365.7875788,2029,2879,8
1789468365.78897,2075,2878,8
1789468365.79141,2376,2879,8
1789468365.792783,1660,2877,8
1789468365.7955132,1917,2879,8
1789468365.796862,2280,2879,8
1789468365.7995121,2327,2879,8
1789468365.800859,2093,2879,8
1789468365.8034828,1997,2878,8
1789468365.804832,1884,2878,8
1789468365.807459,1906,2877,8
1789468365.808873,1970,2877,8
1789468365.811528,1918,2879,8
1789468365.812895,2171,2878,8
1789468365.815468,2267,2880,8
1789468365.816836,2228,2881,8
1789468365.819453,1918,2879,8
1789468365.8208268,1792,2876,8
1789468365.8234549,2148,2879,8
1789468365.824805,2320,2880,8
1789468365.8275352,2136,2879,8
1789468365.833826,2170,2880,8
1789468365.836183,2114,2879,8
1789468365.837333,2107,2878,8
1789468365.838988,2012,2878,8
1789468365.83919,2130,2879,8
1789468365.840554,2020,2878,8
1789468365.8445928,2010,2878,8
1789468365.8465338,1969,2878,8
1789468365.846657,2013,2878,8
1789468365.846796,2129,2880,8
1789468365.849437,2012,2876,8
1789468365.8508,2148,2879,8
1789468365.858478,2074,2880,8
1789468365.8587542,1961,2877,8
1789468365.859026,2010,2878,8
1789468365.86177,1991,2878,8
1789468365.861867,2059,2878,8
1789468365.867618,1968,2879,8
1789468365.868261,2202,2880,8
1789468365.870015,2122,2878,8
1789468365.8701289,2052,2879,8
1789468365.871246,2023,2879,8
1789468365.873906,2048,2878,8
1789468365.875264,1995,2879,8
1789468365.877915,2023,2877,8
1789468365.8792908,2143,2880,8
1789468365.88191,2172,2879,8
1789468365.883255,2128,2880,8
1789468365.885789,1997,2879,8
1789468365.887166,2069,2880,8
1789468365.88991,2096,2880,8
1789468365.891253,2149,2881,8
1789468365.8938801,2064,2878,8
1789468365.895227,2027,2879,8
1789468365.897831,2029,2877,8
1789468365.899162,2057,2879,8
1789468365.901763,1958,2876,8
1789468365.9030988,2069,2879,8
1789468365.905966,2095,2880,8
1789468365.907414,2148,2879,8
1789468365.910049,2067,2878,8
1789468365.9113972,2066,2877,8
1789468365.913863,2149,2881,8
1789468365.915206,2128,2880,8
1789468365.917921,2037,2880,8
1789468365.919262,1994,2879,8
1789468365.928972,2152,2880,8
1789468365.9319282,2087,2879,8
1789468365.9325492,2061,2877,8
1789468365.9389691,2051,2878,8
1789468365.9392908,2088,2880,8
1789468365.9394078,2088,2880,8
1789468365.9395552,2178,2879,8
1789468365.939648,2130,2879,8
1789468365.9398,2007,2878,8
1789468365.94121,2022,2876,8
1789468365.9415958,2112,2881,8
1789468365.942924,2078,2878,8
1789468365.945209,2062,2877,8
1789468365.9476879,2026,2878,8
1789468365.952221,2052,2879,8
1789468365.9523032,2055,2878,8
1789468365.954507,2279,2879,8
1789468365.956177,2074,2879,8
1789468365.957495,2130,2880,8
1789468365.959295,2088,2878,8
1789468365.962535,1905,2879,8
1789468365.964292,2049,2879,8
1789468365.96534,2278,2881,8
1789468365.9678888,2200,2879,8
1789468365.969005,1953,2878,8
1789468365.971563,1993,2879,8
1789468365.973727,2071,2880,8
1789468365.975019,2200,2881,8
1789468365.9775622,2056,2879,8
1789468365.979871,2103,2878,8
1789468365.980947,2309,2880,8
1789468365.983259,2122,2880,8
1789468365.9855711,2160,2879,8
1789468365.9878662,1874,2875,8
1789468365.988943,1965,2876,8
1789468365.9910522,2219,2880,8
1789468365.993643,1947,2879,8
1789468365.994935,2081,2879,8
1789468365.9972322,2114,2881,8
1789468365.9995399,2137,2879,8
1789468366.001834,2048,2879,8
1789468366.003123,2013,2879,8
1789468366.005667,2044,2877,8
1789468366.0069098,2161,2879,8
1789468366.009206,2040,2877,8
1789468366.011749,1879,2878,8
1789468366.01407,1974,2877,8
1789468366.019047,2382,2880,8
1789468366.019775,2269,2880,8
1789468366.019852,1852,2877,8
1789468366.021476,1957,2877,8
1789468366.024523,2369,2880,8
1789468366.026138,2286,2880,8
1789468366.029186,1944,2877,8
1789468366.02946,2103,2878,8
1789468366.031305,2062,2878,8
1789468366.0336099,2078,2879,8
1789468366.035768,2039,2879,8
1789468366.036959,2039,2880,8
1789468366.040523,2011,2877,8
1789468366.042606,2111,2880,8
1789468366.044202,2043,2876,8
1789468366.045957,1984,2878,8
1789468366.0499468,2150,2881,8
1789468366.050112,2135,2880,8
1789468366.05197,2062,2879,8
1789468366.0532658,2032,2879,8
1789468366.055576,2070,2879,8
1789468366.057657,2072,2879,8
1789468366.058965,2119,2879,8
1789468366.0615208,2139,2882,8
1789468366.062944,2043,2878,8
1789468366.065255,2033,2879,8
1789468366.0673249,2145,2879,8
1789468366.069632,2104,2879,8
1789468366.070923,2085,2880,8
1789468366.0729861,2172,2881,8
1789468366.075299,2094,2878,8
1789468366.0776079,2083,2879,8
1789468366.0789409,2145,2881,8
1789468366.0814831,2042,2878,8
1789468366.084023,2099,2880,8
1789468366.08531,2033,2877,8
1789468366.087667,2038,2880,8
1789468366.088953,2066,2880,8
1789468366.091007,2197,2880,8
1789468366.09355,2110,2881,8
1789468366.09609,2109,2879,8
1789468366.0973802,2119,2881,8
1789468366.0996811,2132,2880,8
1789468366.104685,2063,2880,8
1789468366.105365,2074,2880,8
1789468366.106095,2039,2879,8
1789468366.108315,2101,2881,8
1789468366.11023,2086,2881,8
1789468366.113945,1988,2878,8
1789468366.114203,2124,2881,8
1789468366.1160672,2146,2880,8
1789468366.1173592,2057,2880,8
1789468366.1196659,1987,2878,8
1789468366.1210399,2147,2879,8
1789468366.125422,2136,2880,8
1789468366.12584,2109,2880,8
1789468366.127499,2027,2878,8
1789468366.1307268,2095,2879,8
1789468366.1345322,2178,2880,8
1789468366.134625,2164,2880,8
1789468366.136271,2089,2880,8
1789468366.137562,2125,2880,8
1789468366.139869,2089,2879,8
1789468366.141978,2121,2880,8
1789468366.1432261,2069,2879,8
1789468366.145528,2056,2878,8
1789468366.148046,2110,2880,8
1789468366.149332,2148,2880,8
1789468366.151637,2074,2880,8
1789468366.1538298,2020,2879,8
1789468366.155116,2022,2879,8
1789468366.1574159,2085,2880,8
1789468366.1597178,2126,2880,8
1789468366.161016,1985,2878,8
1789468366.1635149,2009,2878,8
1789468366.165706,2204,2881,8
1789468366.167928,2070,2879,8
1789468366.1692648,1973,2877,8
1789468366.1718662,2097,2879,8
1789468366.173032,2177,2879,8
1789468366.175345,2135,2880,8
1789468366.177946,2038,2879,8
1789468366.180026,2035,2877,8
1789468366.181321,2163,2880,8
1789468366.187814,2165,2881,8
1789468366.1886752,2114,2879,8
1789468366.189409,2059,2879,8
1789468366.190624,2059,2880,8
1789468366.1925461,2072,2880,8
1789468366.195147,2011,2878,8
1789468366.197823,2050,2879,8
1789468366.1981199,2099,2881,8
1789468366.200076,2115,2880,8
1789468366.20113,2105,2880,8
1789468366.203446,2266,2880,8
1789468366.205636,2177,2879,8
1789468366.2092311,1931,2878,8
1789468366.2096488,1900,2878,8
1789468366.211873,2170,2879,8
1789468366.2139242,2184,2880,8
1789468366.218513,2086,2879,8
1789468366.218813,1984,2878,8
1789468366.220672,2094,2878,8
1789468366.221973,2095,2879,8
1789468366.223068,2109,2879,8
1789468366.225385,2005,2878,8
1789468366.227694,1884,2879,8
1789468366.22979,2303,2881,8
1789468366.2318778,2230,2880,8
1789468366.233171,1583,2877,8
1789468366.23525,2011,2879,8
1789468366.237571,2680,2881,8
1789468366.239916,2290,2881,8
1789468366.241049,2263,2880,8
1789468366.243348,1758,2878,8
1789468366.245424,1431,2879,8
1789468366.247489,2552,2881,8
1789468366.2497962,2297,2880,8
1789468366.252109,2077,2879,8
1789468366.253153,2133,2879,8
1789468366.255467,2225,2880,8
1789468366.258036,2110,2880,8
1789468366.259327,2460,2882,8
1789468366.261635,2091,2878,8
1789468366.263942,1934,2878,8
1789468366.265234,2669,2881,8
1789468366.267549,2351,2880,8
1789468366.26985,1787,2877,8
1789468366.275286,1866,2880,8
1789468366.275737,2100,2879,8
1789468366.276522,2140,2877,8
1789468366.277781,2013,2879,8
1789468366.279809,1846,2879,8
1789468366.282482,1636,2878,8
1789468366.284992,2112,2879,8
1789468366.285194,2733,2880,8
1789468366.28816,2067,2879,8
1789468366.289423,1909,2879,8
1789468366.292077,2160,2881,8
1789468366.29702,2167,2878,8
1789468366.297455,2624,2882,8
1789468366.2991931,2458,2881,8
1789468366.299371,1953,2877,8
1789468366.30219,1807,2877,8
1789468366.303896,1603,2878,8
1789468366.306338,1867,2877,8
1789468366.307914,2012,2877,8
1789468366.30921,2015,2878,8
1789468366.311275,2035,2878,8
1789468366.313361,2266,2880,8
1789468366.315691,2251,2880,8
1789468366.317776,2433,2880,8
1789468366.319857,1582,2877,8
1789468366.321923,2097,2881,8
1789468366.3239958,2277,2881,8
1789468366.32529,1713,2877,8
1789468366.327349,1610,2878,8
1789468366.32943,2313,2881,8
1789468366.3315048,2150,2880,8
1789468366.333807,1829,2878,8
1789468366.33517,2278,2880,8
1789468366.337235,2205,2879,8
1789468366.339304,1519,2877,8
1789468366.341855,1941,2879,8
1789468366.343183,2270,2880,8
1789468366.3454888,1793,2877,8
1789468366.3477929,2479,2881,8
1789468366.349868,2199,2879,8
1789468366.351938,1552,2876,8
1789468366.3539999,1952,2879,8
1789468366.3560698,2092,2878,8
1789468366.3571851,2036,2878,8
1789468366.359493,1954,2878,8
1789468366.36539,2295,2880,8
1789468366.366252,1874,2877,8
1789468366.367038,1780,2877,8
1789468366.368317,1885,2876,8
1789468366.37105,2220,2880,8
1789468366.3781629,1728,2879,8
1789468366.37835,1978,2879,8
1789468366.37839,2231,2880,8
1789468366.378422,1880,2877,8
1789468366.379508,2041,2880,8
1789468366.381585,2123,2880,8
1789468366.38391,1780,2876,8
1789468366.388183,1812,2878,8
1789468366.390526,1833,2878,8
1789468366.392673,2273,2880,8
1789468366.3927932,2258,2880,8
1789468366.395414,1609,2876,8
1789468366.3956559,1658,2877,8
1789468366.398196,1828,2877,8
1789468366.400213,2008,2878,8
1789468366.401512,1398,2878,8
1789468366.403832,2297,2880,8
1789468366.405911,2492,2881,8
1789468366.407223,2182,2880,8
1789468366.4095511,1727,2878,8
1789468366.411854,1527,2878,8
1789468366.4139352,2247,2880,8
1789468366.415228,1982,2877,8
1789468366.41754,1567,2878,8
1789468366.4196212,1796,2877,8
1789468366.421929,2589,2881,8
1789468366.423233,1957,2878,8
1789468366.425549,1671,2876,8
1789468366.427624,2204,2880,8
1789468366.429924,1768,2878,8
1789468366.432045,2197,2878,8
1789468366.433177,1629,2877,8
1789468366.435495,1827,2878,8
1789468366.4378119,1904,2880,8
1789468366.439878,1822,2878,8
1789468366.441941,1580,2876,8
1789468366.443997,2002,2878,8
1789468366.446069,2154,2877,8
1789468366.447196,2062,2879,8
1789468366.449266,2269,2879,8
1789468366.451346,2717,2880,8
1789468366.453444,1532,2876,8
1789468366.460441,1255,2876,8
1789468366.460574,1621,2877,8
1789468366.462593,1863,2878,8
1789468366.4627972,2223,2881,8
1789468366.465015,2054,2879,8
1789468366.4678211,1707,2878,8
1789468366.467978,1872,2879,8
1789468366.4709089,1965,2878,8
1789468366.472814,2548,2881,8
1789468366.474116,1974,2877,8
1789468366.475195,1899,2878,8
1789468366.4776819,1943,2877,8
1789468366.4840991,1988,2878,8
1789468366.484875,1391,2877,8
1789468366.485754,2651,2881,8
1789468366.486976,1916,2879,8
1789468366.489297,1053,2876,8
1789468366.489795,1724,2878,8
1789468366.494897,2562,2881,8
1789468366.496642,2241,2881,8
1789468366.497115,1613,2877,8
1789468366.497301,1574,2878,8
1789468366.499377,2608,2881,8
1789468366.5016909,1985,2879,8
1789468366.503794,1946,2877,8
1789468366.506149,1623,2878,8
1789468366.5074549,2305,2881,8
1789468366.509768,2100,2879,8
1789468366.51213,1835,2876,8
1789468366.513529,1186,2877,8
1789468366.5158641,2645,2882,8
1789468366.5179331,2112,2880,8
1789468366.520329,2314,2879,8
1789468366.521622,2031,2879,8
1789468366.5240269,1824,2878,8
1789468366.525323,1589,2877,8
1789468366.5278761,1732,2878,8
1789468366.529949,3072,2883,8
1789468366.532026,2212,2880,8
1789468366.53333,1642,2877,8
1789468366.5356328,907,2877,8
1789468366.5379431,3410,2883,8
1789468366.539265,2640,2881,8
1789468366.541573,1956,2878,8
1789468366.543883,1740,2878,8
1789468366.545965,1619,2877,8
1789468366.547262,2248,2880,8
1789468366.5493429,2714,2881,8
1789468366.5516732,1583,2876,8
1789468366.5577521,2061,2880,8
1789468366.5586839,2204,2880,8
1789468366.5603461,2130,2881,8
1789468366.56058,2235,2879,8
1789468366.562735,2089,2879,8
1789468366.5655859,1829,2878,8
1789468366.568616,1865,2878,8
1789468366.568785,1130,2877,8
1789468366.570891,2887,2882,8
1789468366.571958,2142,2879,8
1789468366.574028,1206,2877,8
1789468366.575333,2176,2880,8
1789468366.5827131,3479,2885,8
1789468366.584018,2369,2881,8
1789468366.5867379,2198,2880,8
1789468366.5873861,2095,2877,8
1789468366.590981,2218,2880,8
1789468366.5911,1022,2877,8
1789468366.5940962,2434,2880,8
1789468366.5946429,2491,2880,8
1789468366.59609,2132,2879,8
1789468366.596693,1606,2877,8
1789468366.597761,1467,2877,8
1789468366.599898,3209,2883,8
1789468366.6013088,2774,2882,8
1789468366.603633,1933,2877,8
1789468366.605977,2078,2878,8
1789468366.608303,1900,2877,8
1789468366.609362,2184,2880,8
1789468366.6114361,1629,2878,8
1789468366.613512,1706,2878,8
1789468366.615836,2802,2880,8
1789468366.6179168,2016,2879,8
1789468366.6192992,2234,2880,8
1789468366.6216378,2095,2880,8
1789468366.623722,2059,2878,8
1789468366.626053,2284,2880,8
1789468366.6283698,2048,2878,8
1789468366.629492,2008,2878,8
1789468366.632052,1652,2878,8
1789468366.6343539,1905,2878,8
1789468366.635554,2760,2881,8
1789468366.6381052,1967,2879,8
1789468366.6393971,1864,2877,8
1789468366.6419468,2366,2881,8
1789468366.643303,2169,2878,8
1789468366.6458519,2264,2880,8
1789468366.64817,2449,2881,8
1789468366.649299,1987,2880,8
1789468366.651447,1991,2880,8
1789468366.656172,1687,2877,8
1789468366.6565619,2203,2880,8
1789468366.659036,2581,2881,8
1789468366.66097,1324,2878,8
1789468366.662453,2806,2881,8
1789468366.664246,2819,2881,8
1789468366.667425,1957,2877,8
1789468366.6675441,2103,2879,8
1789468366.670418,2160,2880,8
1789468366.671465,2094,2880,8
1789468366.673533,2380,2880,8
1789468366.6756768,2244,2880,8
1789468366.680065,1868,2879,8
1789468366.680176,1678,2879,8
1789468366.682261,2271,2881,8
1789468366.683821,2700,2881,8
1789468366.687197,1806,2877,8
1789468366.690322,1593,2877,8
1789468366.690497,2243,2881,8
1789468366.69246,2956,2880,8
1789468366.693755,1877,2878,8
1789468366.696304,1519,2878,8
1789468366.697351,2387,2881,8
1789468366.699552,2519,2879,8
1789468366.701888,2407,2879,8
1789468366.7044501,1851,2877,8
1789468366.7055109,1610,2878,8
1789468366.707817,1806,2878,8
1789468366.7099462,2862,2883,8
1789468366.7120042,2505,2880,8
1789468366.713293,1809,2877,8
1789468366.715837,1866,2878,8
1789468366.717901,2106,2880,8
1789468366.7201998,2298,2880,8
1789468366.7214878,2217,2880,8
1789468366.723548,2057,2877,8
1789468366.725801,2335,2880,8
1789468366.7278552,2110,2878,8
1789468366.730405,1832,2878,8
1789468366.731693,1531,2877,8
1789468366.733988,2066,2878,8
1789468366.736088,3130,2882,8
1789468366.7384079,2044,2880,8
1789468366.7394629,2073,2880,8
1789468366.741814,1753,2877,8
1789468366.7443001,1967,2879,8
1789468366.74973,2135,2879,8
1789468366.750507,2419,2880,8
1789468366.750952,2320,2880,8
1789468366.752612,2103,2879,8
1789468366.754418,1542,2876,8
1789468366.756424,2395,2880,8
1789468366.757893,2748,2881,8
1789468366.7614279,1844,2878,8
1789468366.761672,1800,2879,8
1789468366.764362,2316,2880,8
1789468366.766025,2264,2881,8
1789468366.7673202,2053,2880,8
1789468366.770043,1974,2879,8
1789468366.7716749,1923,2877,8
1789468366.780571,1852,2878,8
1789468366.784064,2204,2880,8
1789468366.791326,1945,2878,8
1789468366.794145,1809,2879,8
1789468366.794198,2416,2880,8
1789468366.794234,2541,2881,8
1789468366.794267,2095,2880,8
1789468366.7942998,2058,2879,8
1789468366.7943308,2337,2880,8
1789468366.794362,2053,2877,8
1789468366.794393,1725,2879,8
1789468366.79575,2147,2878,8
1789468366.798456,1903,2878,8
1789468366.7999518,2553,2880,8
1789468366.802484,1942,2878,8
1789468366.803881,1848,2880,8
1789468366.806292,2027,2880,8
1789468366.807455,1786,2878,8
1789468366.809957,2371,2882,8
1789468366.812754,2656,2881,8
1789468366.813926,2166,2881,8
1789468366.81661,1971,2880,8
1789468366.8179379,2083,2880,8
1789468366.819746,2016,2880,8
1789468366.8222091,2130,2880,8
1789468366.8235872,2199,2880,8
1789468366.82612,2247,2881,8
1789468366.828425,2189,2880,8
1789468366.829814,786,2878,8
1789468366.831955,1344,2877,8
1789468366.833497,3761,2885,8
1789468366.8357608,2528,2880,8
1789468366.838182,1934,2879,8
1789468366.8393972,1950,2879,8
1789468366.8417192,2361,2881,8
1789468366.8444102,2307,2879,8
1789468366.845747,2228,2879,8
1789468366.848458,2027,2879,8
1789468366.854448,1682,2877,8
1789468366.8584042,1980,2879,8
1789468366.866291,2232,2879,8
1789468366.8665228,1466,2877,8
1789468366.868714,2040,2879,8
1789468366.86882,2467,2881,8
1789468366.868881,1705,2877,8
1789468366.868937,1060,2877,8
1789468366.869,3730,2884,8
1789468366.8691142,1819,2878,8
1789468366.870185,1665,2878,8
1789468366.8725162,1769,2877,8
1789468366.873808,2322,2881,8
1789468366.878547,2295,2881,8
1789468366.879405,2553,2881,8
1789468366.879524,2275,2880,8
1789468366.883633,2000,2878,8
1789468366.884049,2147,2880,8
1789468366.886407,1787,2876,8
1789468366.8901298,1786,2878,8
1789468366.8904881,1839,2877,8
1789468366.8925672,1943,2877,8
1789468366.8936472,1923,2877,8
1789468366.895977,2421,2879,8
1789468366.898315,2238,2880,8
1789468366.899749,2178,2880,8
1789468366.902087,2072,2879,8
1789468366.904512,2038,2880,8
1789468366.905567,2128,2880,8
1789468366.908117,2368,2881,8
1789468366.909444,1868,2878,8
1789468366.911533,2060,2879,8
1789468366.913667,1861,2878,8
1789468366.915736,2136,2879,8
1789468366.9180338,2189,2880,8
1789468366.9201002,1858,2878,8
1789468366.922405,2296,2880,8
1789468366.923458,2507,2881,8
1789468366.925893,1759,2877,8
1789468366.928406,2080,2877,8
1789468366.929586,2423,2881,8
1789468366.93214,2036,2877,8
1789468366.93445,1975,2880,8
1789468366.9357471,1970,2879,8
1789468366.938227,2060,2879,8
1789468366.939512,1565,2877,8
1789468366.9418082,2484,2881,8
1789468366.944135,2114,2878,8
1789468366.9506361,1984,2878,8
1789468366.9515362,2170,2880,8
1789468366.951987,2167,2879,8
1789468366.953186,2058,2879,8
1789468366.9548569,1927,2876,8
1789468366.956727,1686,2878,8
1789468366.95854,2223,2880,8
1789468366.9623559,2277,2880,8
1789468366.962423,2065,2879,8
1789468366.964303,2606,2881,8
1789468366.96543,1591,2876,8
1789468366.967971,1596,2878,8
1789468366.974298,2160,2881,8
1789468366.974734,2340,2881,8
1789468366.9748821,2611,2881,8
1789468366.976726,2262,2880,8
1789468366.978726,1973,2878,8
1789468366.980712,1602,2877,8
1789468366.985588,1957,2878,8
1789468366.985966,1855,2878,8
1789468366.986099,2326,2880,8
1789468366.988095,2727,2881,8
1789468366.99034,1924,2879,8
1789468366.9915001,1958,2879,8
1789468366.993886,1902,2878,8
1789468366.996476,1900,2879,8
1789468366.997781,2368,2881,8
1789468367.000193,2239,2882,8
1789468367.002499,2405,2879,8
1789468367.003572,1905,2880,8
1789468367.005648,1951,2879,8
1789468367.007979,1810,2877,8
1789468367.0105941,2090,2877,8
1789468367.011889,2311,2881,8
1789468367.014258,2300,2880,8
1789468367.016336,2151,2879,8
1789468367.017596,2223,2879,8
1789468367.0198069,2027,2880,8
1789468367.021867,1936,2877,8
1789468367.024374,2017,2878,8
1789468367.025436,1917,2878,8
1789468367.02774,1852,2878,8
1789468367.030215,2376,2881,8
1789468367.032536,2310,2880,8
1789468367.033828,1828,2877,8
1789468367.03632,2118,2880,8
1789468367.038629,2430,2880,8
1789468367.0399208,2071,2881,8
1789468367.042021,2135,2880,8
1789468367.046436,2057,2879,8
1789468367.047446,2065,2877,8
1789468367.049771,2117,2881,8
1789468367.051286,2113,2879,8
1789468367.052939,2029,2880,8
1789468367.058348,2061,2879,8
1789468367.058552,2143,2880,8
1789468367.060694,2171,2880,8
1789468367.06076,2092,2878,8
1789468367.061972,2132,2879,8
1789468367.064237,1950,2878,8
1789468367.070335,2189,2880,8
1789468367.071088,2102,2879,8
1789468367.071188,1986,2878,8
1789468367.072891,2383,2880,8
1789468367.074968,2245,2880,8
1789468367.077684,2164,2882,8
1789468367.077823,2118,2879,8
1789468367.0811882,2172,2878,8
1789468367.082927,2141,2879,8
1789468367.0842218,2317,2881,8
1789468367.086474,2076,2879,8
1789468367.087768,2149,2878,8
1789468367.090229,2048,2879,8
1789468367.091527,2243,2879,8
1789468367.0940852,2187,2880,8
1789468367.0961542,2132,2878,8
1789468367.098327,2203,2882,8
1789468367.099586,2290,2881,8
1789468367.101826,2176,2879,8
1789468367.103897,2082,2880,8
1789468367.106266,2115,2879,8
1789468367.10848,2127,2879,8
1789468367.109571,2123,2881,8
1789468367.112001,2099,2877,8
1789468367.1144052,2179,2880,8
1789468367.115693,2215,2881,8
1789468367.117825,2154,2880,8
1789468367.120078,2088,2879,8
1789468367.122381,2089,2879,8
1789468367.12357,2211,2880,8
1789468367.125957,2117,2881,8
1789468367.1285079,2101,2877,8
1789468367.129559,2161,2880,8
1789468367.132106,2198,2880,8
1789468367.1344042,2167,2878,8
1789468367.1394439,2162,2880,8
1789468367.139863,2069,2880,8
1789468367.1402812,2041,2879,8
1789468367.142015,2011,2879,8
1789468367.144723,1961,2878,8
1789468367.146486,2415,2881,8
1789468367.1500428,2335,2880,8
1789468367.150177,2090,2879,8
1789468367.152166,2107,2880,8
1789468367.1543958,2137,2880,8
1789468367.15655,2202,2879,8
1789468367.15764,2203,2880,8
1789468367.162504,2133,2880,8
1789468367.163307,2058,2878,8
1789468367.166525,2075,2880,8
1789468367.167902,2163,2880,8
1789468367.168333,2149,2879,8
1789468367.169929,2106,2879,8
1789468367.173478,2138,2879,8
1789468367.1736681,2183,2880,8
1789468367.176264,2107,2879,8
1789468367.177562,2075,2878,8
1789468367.179761,2103,2879,8
1789468367.181843,2129,2881,8
1789468367.183924,2140,2879,8
1789468367.186303,2066,2879,8
1789468367.18837,2084,2879,8
1789468367.1905642,2111,2879,8
1789468367.191726,2148,2879,8
1789468367.194033,2084,2878,8
1789468367.196091,2082,2878,8
1789468367.198389,2113,2879,8
1789468367.200695,2119,2880,8
1789468367.20174,2082,2878,8
1789468367.204035,2104,2879,8
1789468367.206548,2111,2879,8
1789468367.207595,2121,2880,8
1789468367.210135,2103,2878,8
1789468367.212675,2082,2878,8
1789468367.213831,2113,2880,8
1789468367.2161338,2086,2878,8
1789468367.217542,2039,2878,8
1789468367.219614,2080,2878,8
1789468367.222156,2090,2880,8
1789468367.223563,2098,2879,8
1789468367.2256231,2032,2877,8
1789468367.229459,2031,2877,8
1789468367.2298691,2092,2878,8
1789468367.231717,2125,2881,8
1789468367.2342331,2063,2879,8
1789468367.236267,2049,2879,8
1789468367.2395542,2016,2879,8
1789468367.23963,2133,2878,8
1789468367.2422762,2228,2880,8
1789468367.243567,2079,2878,8
1789468367.24611,1981,2878,8
1789468367.250848,2115,2880,8
1789468367.251565,2211,2880,8
1789468367.252293,2034,2877,8
1789468367.254514,1942,2876,8
1789468367.2558851,1977,2878,8
1789468367.257617,1994,2878,8
1789468367.260759,1985,2877,8
1789468367.262187,2146,2880,8
1789468367.264493,2062,2879,8
1789468367.26578,2080,2878,8
1789468367.268329,2115,2880,8
1789468367.270647,2093,2879,8
1789468367.271936,2102,2880,8
1789468367.27399,2093,2881,8
1789468367.276082,2118,2880,8
1789468367.2783842,2007,2877,8
1789468367.280503,1978,2877,8
1789468367.282805,2201,2880,8
1789468367.283844,2065,2879,8
1789468367.286133,2053,2878,8
1789468367.2884412,2014,2879,8
1789468367.290739,1993,2876,8
1789468367.292027,2094,2878,8
1789468367.294334,2058,2878,8
1789468367.295651,2135,2880,8
1789468367.297945,1971,2877,8
1789468367.3004868,2114,2879,8
1789468367.301673,2308,2879,8
1789468367.3042188,2157,2879,8
1789468367.3067589,2105,2880,8
1789468367.307801,2074,2878,8
1789468367.310098,2086,2878,8
1789468367.314868,2132,2880,8
1789468367.3152268,2131,2879,8
1789468367.317375,2206,2880,8
1789468367.318938,2018,2880,8
1789468367.3215601,2012,2877,8
1789468367.321763,2145,2879,8
1789468367.324681,2072,2877,8
1789468367.3260689,1849,2879,8
1789468367.3283808,1724,2879,8
1789468367.3296719,2222,2880,8
1789468367.332033,2148,2879,8
1789468367.335561,2205,2879,8
1789468367.335953,1906,2878,8
1789468367.337695,2032,2879,8
1789468367.3408,2203,2880,8
1789468367.3447318,2122,2880,8
1789468367.344843,2028,2878,8
1789468367.3465002,2343,2881,8
1789468367.348819,2185,2878,8
1789468367.350107,2046,2879,8
1789468367.352433,1814,2877,8
1789468367.353754,1921,2877,8
1789468367.3563058,1946,2878,8
1789468367.358609,2199,2880,8
1789468367.359895,2208,2881,8
1789468367.3624341,1861,2878,8
1789468367.364738,1948,2878,8
1789468367.366029,2255,2880,8
1789468367.3685691,2158,2880,8
1789468367.3697221,2161,2879,8
1789468367.372032,2116,2880,8
1789468367.374326,1834,2877,8
1789468367.3757,1989,2877,8
1789468367.3779998,2083,2878,8
1789468367.3805451,2283,2881,8
1789468367.3817759,2092,2880,8
1789468367.384325,2027,2879,8
1789468367.385674,2098,2878,8
1789468367.387737,2027,2877,8
1789468367.390283,2158,2880,8
1789468367.392375,2224,2881,8
1789468367.3936708,2103,2878,8
1789468367.397752,1990,2878,8
1789468367.398153,2062,2879,8
1789468367.399926,2086,2880,8
1789468367.402672,1998,2881,8
1789468367.4043362,1840,2877,8
1789468367.4072452,2067,2879,8
1789468367.4089448,2289,2880,8
1789468367.410242,2142,2879,8
1789468367.412541,1896,2877,8
1789468367.413829,2005,2878,8
1789468367.4184299,1973,2877,8
1789468367.419352,2049,2879,8
1789468367.4206588,1955,2876,8
1789468367.422463,2078,2879,8
1789468367.42767,2277,2881,8
1789468367.4278631,2091,2880,8
1789468367.42797,1939,2878,8
1789468367.430312,2127,2881,8
1789468367.431682,2008,2879,8
1789468367.4339252,2109,2880,8
1789468367.436484,2151,2879,8
1789468367.438797,2029,2879,8
1789468367.440091,2049,2880,8
1789468367.442637,2018,2878,8
1789468367.4436932,2007,2879,8
1789468367.446099,2151,2880,8
1789468367.448407,2056,2879,8
1789468367.449696,2068,2881,8
1789468367.451751,2150,2879,8
1789468367.454289,2181,2880,8
1789468367.456589,2005,2879,8
1789468367.457692,2032,2878,8
1789468367.460234,1927,2878,8
1789468367.462446,2314,2880,8
1789468367.463731,2180,2880,8
1789468367.4660401,2143,2879,8
1789468367.4681652,2061,2879,8
1789468367.470474,2048,2878,8
1789468367.4717572,2009,2877,8
1789468367.4738162,2087,2877,8
1789468367.476131,2230,2879,8
1789468367.482595,2033,2878,8
1789468367.482985,2118,2878,8
1789468367.483084,2074,2879,8
1789468367.4846652,1949,2877,8
1789468367.486099,2071,2880,8
1789468367.489066,2113,2878,8
1789468367.4922829,2104,2880,8
1789468367.492425,2067,2877,8
1789468367.4942741,2055,2877,8
1789468367.496562,2139,2880,8
1789468367.497764,2075,2879,8
1789468367.5002828,2077,2879,8
1789468367.505871,2064,2879,8
1789468367.506558,1980,2878,8
1789468367.507371,2067,2880,8
1789468367.509591,2096,2880,8
1789468367.5099142,1980,2877,8
1789468367.513141,2008,2877,8
1789468367.5161731,2167,2879,8
1789468367.516261,2104,2880,8
1789468367.518144,2026,2878,8
1789468367.5202181,2107,2879,8
1789468367.5223198,2133,2880,8
1789468367.524639,2137,2880,8
1789468367.525949,2003,2879,8
1789468367.528497,1938,2880,8
1789468367.530797,2083,2879,8
1789468367.532084,2088,2880,8
1789468367.534384,2033,2879,8
1789468367.53669,1998,2879,8
1789468367.537735,2049,2878,8
1789468367.540284,2208,2881,8
1789468367.5428329,2138,2880,8
1789468367.544121,1919,2876,8
1789468367.5466628,1882,2879,8
1789468367.548727,2179,2880,8
1789468367.5500119,2349,2879,8
1789468367.552323,1883,2876,8
1789468367.554689,2033,2878,8
1789468367.555975,2118,2880,8
1789468367.5585191,2071,2878,8
1789468367.5598059,2123,2880,8
1789468367.56225,1949,2878,8
1789468367.56479,1870,2878,8
1789468367.5660741,2211,2881,8
1789468367.568377,2232,2880,8
1789468367.572282,2057,2880,8
1789468367.573408,2028,2879,8
1789468367.575053,2089,2879,8
1789468367.5772831,2100,2878,8
1789468367.580022,2091,2879,8
1789468367.580159,2128,2878,8
1789468367.583199,2093,2880,8
1789468367.584903,2088,2879,8
1789468367.5862021,1896,2877,8
1789468367.5885062,1920,2877,8
1789468367.590631,2077,2880,8
1789468367.594495,2255,2881,8
1789468367.5952902,2128,2880,8
1789468367.596849,1980,2879,8
1789468367.5987651,1975,2878,8
1789468367.600127,2082,2880,8
1789468367.6038258,2338,2879,8
1789468367.6040168,2119,2880,8
1789468367.606783,1936,2877,8
1789468367.608073,1960,2878,8
1789468367.610301,2061,2877,8
1789468367.612868,2065,2878,8
1789468367.6141598,2109,2879,8
1789468367.616467,1984,2877,8
1789468367.61877,2014,2879,8
1789468367.620058,2196,2880,8
1789468367.62212,1956,2877,8
1789468367.624438,2011,2877,8
1789468367.6265159,2177,2880,8
1789468367.627805,2008,2877,8
1789468367.62991,2185,2880,8
1789468367.632222,2092,2880,8
1789468367.6344378,1994,2876,8
1789468367.635808,2225,2879,8
1789468367.637862,2110,2880,8
1789468367.6404202,2091,2879,8
1789468367.64179,2101,2880,8
1789468367.644095,2096,2879,8
1789468367.646602,2067,2878,8
1789468367.647818,1961,2878,8
1789468367.650235,2166,2881,8
1789468367.652776,2027,2879,8
1789468367.6539352,2004,2879,8
1789468367.660085,2021,2880,8
1789468367.660195,2118,2879,8
1789468367.6605701,2121,2879,8
1789468367.6621828,1990,2878,8
1789468367.664309,2087,2878,8
1789468367.6672268,2184,2880,8
1789468367.670244,2008,2879,8
1789468367.670354,2041,2879,8
1789468367.6730618,1948,2876,8
1789468367.674349,2070,2879,8
1789468367.676655,2173,2881,8
1789468367.68089,2064,2878,8
1789468367.682256,2027,2878,8
1789468367.683368,2078,2878,8
1789468367.684643,1952,2877,8
1789468367.686193,2012,2877,8
1789468367.689625,2199,2879,8
1789468367.692213,2163,2879,8
1789468367.69234,2132,2880,8
1789468367.69491,2063,2877,8
1789468367.6962109,2107,2877,8
1789468367.6987698,2148,2882,8
1789468367.699886,2178,2880,8
1789468367.702049,2132,2879,8
1789468367.704621,2041,2879,8
1789468367.705781,2013,2879,8
1789468367.708208,1997,2876,8
1789468367.710303,1987,2879,8
1789468367.7124631,2099,2877,8
1789468367.714776,2081,2879,8
1789468367.7158809,2089,2880,8
1789468367.718189,2068,2879,8
1789468367.7205179,2087,2880,8
1789468367.721811,2116,2878,8
1789468367.7242901,2063,2879,8
1789468367.726841,1903,2878,8
1789468367.728137,1929,2878,8
1789468367.730707,2198,2880,8
1789468367.7319832,2357,2880,8
1789468367.734285,2098,2879,8
1789468367.7367418,2023,2879,8
1789468367.738029,2091,2880,8
1789468367.740331,2093,2879,8
1789468367.742624,2019,2878,8
1789468367.743923,1957,2879,8
1789468367.748422,1946,2878,8
1789468367.7488909,2105,2880,8
1789468367.7509198,2074,2880,8
1789468367.752474,1880,2876,8
1789468367.755219,2219,2879,8
1789468367.757418,2034,2879,8
1789468367.759145,1925,2877,8
1789468367.760258,2462,2881,8
1789468367.762809,2166,2880,8
1789468367.763937,2012,2878,8
1789468367.768849,2485,2880,8
1789468367.7692,2166,2878,8
1789468367.770667,2027,2880,8
1789468367.772331,1969,2878,8
1789468367.773912,2090,2878,8
1789468367.777248,2246,2881,8
1789468367.778655,2178,2881,8
1789468367.7798212,2111,2880,8
1789468367.782051,1745,2876,8
1789468367.784362,1991,2879,8
1789468367.786935,2058,2880,8
1789468367.788231,2339,2880,8
1789468367.7908459,2837,2881,8
1789468367.792141,2053,2879,8
1789468367.794464,2014,2878,8
1789468367.796819,2119,2878,8
1789468367.7981172,2150,2878,8
1789468367.8006048,2275,2880,8
1789468367.8019042,2196,2880,8
1789468367.804113,1963,2879,8
1789468367.806168,1895,2877,8
1789468367.808596,1842,2878,8
1789468367.810729,1868,2878,8
1789468367.813038,2313,2880,8
1789468367.8141482,2204,2880,8
1789468367.816214,2156,2880,8
1789468367.8187578,2103,2879,8
1789468367.8210602,2103,2879,8
1789468367.822352,2219,2879,8
1789468367.8248918,2292,2881,8
1789468367.826373,2110,2880,8
1789468367.830338,1977,2877,8
1789468367.830754,2131,2878,8
1789468367.832861,1972,2877,8
1789468367.8344069,1916,2877,8
1789468367.837248,1828,2877,8
1789468367.839437,2136,2879,8
1789468367.841364,2187,2879,8
1789468367.842654,1772,2877,8
1789468367.844712,2295,2881,8
1789468367.847054,2233,2880,8
1789468367.84834,2319,2881,8
1789468367.850872,1999,2879,8
1789468367.8519459,1893,2877,8
1789468367.854489,2331,2881,8
1789468367.857036,2074,2879,8
1789468367.85822,1659,2877,8
1789468367.860526,1975,2877,8
1789468367.862575,2220,2881,8
1789468367.864877,2348,2880,8
1789468367.866166,1641,2878,8
1789468367.868458,2166,2881,8
1789468367.870755,2405,2880,8
1789468367.872043,1869,2877,8
1789468367.874476,2488,2881,8
1789468367.877016,2112,2880,8
1789468367.878062,1562,2877,8
1789468367.8806021,1499,2878,8
1789468367.8826728,2049,2877,8
1789468367.884734,1940,2878,8
1789468367.88593,2237,2880,8
1789468367.8884742,2250,2880,8
1789468367.8937988,1496,2877,8
1789468367.894484,1098,2877,8
1789468367.895829,3023,2882,8
1789468367.897214,2198,2880,8
1789468367.8989499,2039,2878,8
1789468367.90047,2019,2880,8
1789468367.9026911,1869,2877,8
1789468367.904541,2349,2880,8
1789468367.90594,1841,2877,8
1789468367.90821,1843,2876,8
1789468367.910521,1942,2879,8
1789468367.912857,1831,2877,8
1789468367.914161,1145,2877,8
1789468367.916554,2270,2880,8
1789468367.918619,2482,2881,8
1789468367.920928,1950,2879,8
1789468367.9219751,2091,2879,8
1789468367.924278,1715,2879,8
1789468367.9265761,1529,2879,8
1789468367.9288828,2054,2878,8
1789468367.930166,2483,2881,8
1789468367.932705,2341,2879,8
1789468367.934774,1673,2876,8
1789468367.935935,1590,2877,8
1789468367.938488,1243,2877,8
1789468367.9410298,2266,2880,8
1789468367.942069,2676,2880,8
1789468367.944609,1638,2877,8
1789468367.9470122,2201,2880,8
1789468367.948298,2127,2880,8
1789468367.950591,1971,2879,8
1789468367.9527109,1741,2879,8
1789468367.956716,1541,2878,8
1789468367.957115,1894,2877,8
1789468367.958781,2370,2880,8
1789468367.961406,1609,2876,8
1789468367.963024,1146,2876,8
1789468367.9653199,2678,2880,8
1789468367.966986,2192,2881,8
1789468367.968283,1731,2876,8
1789468367.970826,1971,2878,8
1789468367.972111,2145,2881,8
1789468367.974584,2282,2880,8
1789468367.975914,1759,2878,8
1789468367.978085,1709,2878,8
1789468367.980397,1851,2877,8
1789468367.9828322,1665,2876,8
1789468367.9839191,1884,2877,8
1789468367.985964,1688,2877,8
1789468367.9885068,1707,2877,8
1789468367.990818,1469,2877,8
1789468367.991945,2287,2880,8
1789468367.994244,2161,2879,8
1789468367.996458,1737,2877,8
1789468367.9987478,2153,2880,8
1789468368.001045,1239,2878,8
1789468368.0021372,2174,2880,8
1789468368.004703,2615,2881,8
1789468368.005993,1898,2876,8
1789468368.008262,1812,2876,8
1789468368.010557,1830,2879,8
1789468368.013101,1812,2879,8
1789468368.014386,1707,2878,8
1789468368.019368,2143,2879,8
1789468368.019441,1697,2877,8
1789468368.021446,2215,2879,8
1789468368.023913,2035,2880,8
1789468368.024251,2040,2880,8
1789468368.0281012,2252,2880,8
1789468368.028333,1789,2878,8
1789468368.030635,1647,2878,8
1789468368.031959,2118,2877,8
1789468368.034504,2421,2881,8
1789468368.03695,1949,2880,8
1789468368.0382679,2058,2880,8
1789468368.04082,2074,2879,8
1789468368.0419729,1903,2878,8
1789468368.044275,1415,2878,8
1789468368.04657,2237,2880,8
1789468368.0479329,2960,2882,8
1789468368.0500329,2326,2880,8
1789468368.052415,1838,2879,8
1789468368.054516,1876,2879,8
1789468368.056563,2060,2880,8
1789468368.058862,2087,2878,8
1789468368.0599391,2059,2879,8
1789468368.062337,2323,2881,8
1789468368.0646431,1288,2877,8
1789468368.06593,1978,2878,8
1789468368.068028,2361,2881,8
1789468368.070323,2050,2879,8
1789468368.0728629,2062,2880,8
1789468368.0741491,2126,2879,8
1789468368.076687,2075,2878,8
1789468368.077963,2744,2882,8
1789468368.081451,2257,2880,8
1789468368.083765,1859,2878,8
1789468368.085741,1995,2879,8
1789468368.088091,1866,2877,8
1789468368.0882251,1327,2877,8
1789468368.090467,1500,2877,8
1789468368.0931032,2755,2882,8
1789468368.094146,2436,2880,8
1789468368.096448,2039,2878,8
1789468368.098751,2331,2881,8
1789468368.1010711,2350,2880,8
1789468368.1023612,2164,2879,8
1789468368.1048,1914,2879,8
1789468368.1060858,2179,2881,8
1789468368.108145,2034,2877,8
1789468368.110684,1936,2878,8
1789468368.1129758,1573,2877,8
1789468368.114261,1193,2877,8
1789468368.116482,2223,2879,8
1789468368.119021,3406,2882,8
1789468368.120074,2364,2879,8
1789468368.122141,2121,2880,8
1789468368.124193,1887,2877,8
1789468368.126732,2246,2878,8
1789468368.129031,2374,2880,8
1789468368.130073,2155,2877,8
1789468368.1326132,1900,2877,8
1789468368.134908,1514,2876,8
1789468368.136051,1412,2875,8
1789468368.138604,2121,2880,8
1789468368.1440918,2571,2881,8
1789468368.144531,2005,2879,8
1789468368.145015,1822,2877,8
1789468368.146986,2223,2881,8
1789468368.148536,1954,2878,8
1789468368.153287,2820,2882,8
1789468368.1536021,2165,2880,8
1789468368.155479,1714,2875,8
1789468368.156526,1333,2877,8
1789468368.159071,2523,2881,8
1789468368.1603572,2069,2878,8
1789468368.165985,1572,2878,8
1789468368.166089,2642,2881,8
1789468368.168122,2490,2880,8
1789468368.16821,2177,2880,8
1789468368.1710238,1669,2877,8
1789468368.172792,2154,2880,8
1789468368.175363,2542,2882,8
1789468368.176975,2001,2877,8
1789468368.178281,2215,2880,8
1789468368.180588,1928,2878,8
1789468368.18265,1652,2879,8
1789468368.1852002,2195,2879,8
1789468368.18626,2083,2881,8
1789468368.188802,2447,2880,8
1789468368.190089,1897,2877,8
1789468368.192387,2032,2878,8
1789468368.194442,2173,2879,8
1789468368.196743,2399,2881,8
1789468368.198028,2233,2880,8
1789468368.200565,2041,2879,8
1789468368.2028759,1417,2876,8
1789468368.205178,1802,2877,8
1789468368.206462,3617,2885,8
1789468368.208877,1887,2876,8
1789468368.2112,1130,2877,8
1789468368.2124841,2732,2881,8
1789468368.214904,2195,2881,8
1789468368.216188,1337,2877,8
1789468368.2187269,2177,2879,8
1789468368.220947,3314,2884,8
1789468368.22221,1995,2880,8
1789468368.2242749,1633,2878,8
1789468368.22657,2061,2877,8
1789468368.232975,2388,2882,8
1789468368.233353,2158,2877,8
1789468368.2334971,1530,2877,8
1789468368.2351549,1730,2876,8
1789468368.237011,1896,2877,8
1789468368.2383401,2431,2881,8
1789468368.243007,2551,2880,8
1789468368.2431412,2274,2880,8
1789468368.244829,1930,2878,8
1789468368.246891,1889,2878,8
1789468368.248176,2458,2882,8
1789468368.2505448,2844,2882,8
1789468368.254608,1691,2878,8
1789468368.255394,1928,2878,8
1789468368.2568839,1414,2877,8
1789468368.258673,2047,2879,8
1789468368.261118,2553,2882,8
1789468368.2640882,2246,2882,8
1789468368.2642071,1927,2878,8
1789468368.266521,1735,2878,8
1789468368.2690618,2868,2882,8
1789468368.270346,1925,2877,8
1789468368.272649,2133,2880,8
1789468368.275254,2025,2879,8
1789468368.276543,1543,2876,8
1789468368.2790961,2326,2881,8
1789468368.280384,2270,2880,8
1789468368.2829251,2435,2880,8
1789468368.284068,2134,2879,8
1789468368.28639,1798,2877,8
1789468368.288695,2074,2880,8
1789468368.290994,1854,2877,8
1789468368.292037,1909,2877,8
1789468368.294445,2580,2881,8
1789468368.296984,2413,2881,8
1789468368.298271,2035,2880,8
1789468368.3007119,2032,2878,8
1789468368.303017,2139,2878,8
1789468368.304065,1702,2879,8
1789468368.306187,2564,2881,8
1789468368.308494,1939,2877,8
1789468368.310793,1983,2880,8
1789468368.313186,1990,2879,8
1789468368.314472,1827,2877,8
1789468368.316787,1667,2877,8
1789468368.320701,3139,2884,8
1789468368.321483,2033,2881,8
1789468368.323713,1908,2878,8
1789468368.325574,1604,2878,8
1789468368.3271182,2320,2880,8
1789468368.331402,2953,2882,8
1789468368.331559,2346,2880,8
1789468368.333607,2348,2881,8
1789468368.334898,2051,2879,8
1789468368.336184,460,2877,8
1789468368.338418,2748,2882,8
1789468368.3434129,3203,2883,8
1789468368.3437839,1503,2876,8
1789468368.3454342,833,2877,8
1789468368.346936,2430,2879,8
1789468368.3485172,2400,2880,8
1789468368.3502452,2064,2878,8
1789468368.353133,1407,2877,8
1789468368.3549361,2753,2882,8
1789468368.356241,2143,2880,8
1789468368.358539,2382,2880,8
1789468368.361085,2854,2881,8
1789468368.3623931,1804,2878,8
1789468368.364717,2147,2880,8
1789468368.367023,2151,2877,8
1789468368.368308,1777,2878,8
1789468368.370861,2430,2881,8
1789468368.373162,2048,2876,8
1789468368.374449,1860,2877,8
1789468368.37652,1288,2878,8
1789468368.379068,1928,2877,8
1789468368.380121,3121,2883,8
1789468368.382671,2451,2880,8
1789468368.384979,1197,2876,8
1789468368.3873029,1150,2878,8
1789468368.388342,3275,2882,8
1789468368.390678,2445,2882,8
1789468368.392982,2341,2881,8
1789468368.394277,1831,2880,8
1789468368.396459,1597,2878,8
1789468368.3987541,1368,2877,8
1789468368.4010649,2808,2881,8
1789468368.4023528,2908,2882,8
1789468368.404663,1561,2876,8
1789468368.409824,1804,2879,8
1789468368.4099252,2249,2880,8
1789468368.411105,1608,2876,8
1789468368.4128141,1606,2878,8
1789468368.415104,2132,2880,8
1789468368.4174871,2560,2880,8
1789468368.420481,2281,2880,8
1789468368.4205801,1709,2876,8
1789468368.422324,2170,2880,8
1789468368.424628,2262,2880,8
1789468368.426931,2590,2881,8
1789468368.428215,1590,2877,8
1789468368.432736,1989,2879,8
1789468368.432838,2051,2878,8
1789468368.434568,2157,2879,8
1789468368.437557,2777,2882,8
1789468368.439074,2169,2878,8
1789468368.4422028,1618,2877,8
1789468368.442368,1954,2878,8
1789468368.444865,2392,2880,8
1789468368.447168,1966,2878,8
1789468368.448212,2360,2880,8
1789468368.4502919,2000,2879,8
1789468368.452605,2308,2881,8
1789468368.4549382,2598,2880,8
1789468368.456227,2250,2879,8
1789468368.458526,2051,2878,8
1789468368.461066,1654,2878,8
1789468368.462212,2129,2879,8
1789468368.4645262,2602,2881,8
1789468368.466822,2381,2880,8
1789468368.469116,2164,2878,8
1789468368.4702039,1396,2876,8
1789468368.4723232,1747,2878,8
1789468368.4748778,1847,2878,8
1789468368.476192,2803,2881,8
1789468368.478732,1879,2878,8
1789468368.481031,2209,2880,8
1789468368.483358,2359,2878,8
1789468368.484642,2015,2878,8
1789468368.486938,2124,2880,8
1789468368.488222,2139,2880,8
1789468368.4905212,2261,2880,8
1789468368.492689,2182,2879,8
1789468368.4951801,2539,2880,8
1789468368.49889,1948,2877,8
1789468368.4993322,1946,2877,8
1789468368.501357,2137,2880,8
1789468368.502812,1940,2879,8
1789468368.505722,2124,2881,8
1789468368.5088441,2234,2879,8
1789468368.5089622,2080,2879,8
1789468368.5106502,1270,2879,8
1789468368.513203,2946,2882,8
1789468368.5144901,2476,2881,8
1789468368.5200472,2041,2879,8
1789468368.521218,1789,2876,8
1789468368.5219069,2285,2880,8
1789468368.5241501,2374,2880,8
1789468368.524893,2218,2880,8
1789468368.527331,2089,2878,8
1789468368.530506,1823,2879,8
1789468368.530644,1932,2877,8
1789468368.532958,2433,2882,8
1789468368.5350258,2057,2880,8
1789468368.5363169,2109,2879,8
1789468368.538388,1612,2877,8
1789468368.5407062,1926,2879,8
1789468368.543248,2640,2881,8
1789468368.544422,2509,2881,8
1789468368.546962,1770,2877,8
1789468368.548249,1798,2878,8
1789468368.550548,2275,2880,8
1789468368.55285,2159,2880,8
1789468368.554949,2039,2878,8
1789468368.557174,2584,2881,8
1789468368.558229,2019,2879,8
1789468368.560769,2226,2880,8
1789468368.563276,2150,2881,8
1789468368.564563,1779,2877,8
1789468368.566628,1422,2878,8
1789468368.568699,2462,2881,8
1789468368.570843,2421,2880,8
1789468368.572223,2776,2881,8
1789468368.574529,2089,2880,8
1789468368.576589,2037,2877,8
1789468368.57889,1984,2880,8
1789468368.580221,2227,2879,8
1789468368.5823019,2238,2880,8
1789468368.5872052,1832,2877,8
1789468368.5882702,2042,2879,8
1789468368.589422,1736,2876,8
1789468368.591656,1962,2879,8
1789468368.594135,2152,2879,8
1789468368.597664,1440,2877,8
1789468368.5978398,2729,2881,8
1789468368.599435,2463,2881,8
1789468368.600735,2213,2881,8
1789468368.6028101,2022,2879,8
1789468368.6051042,2002,2879,8
1789468368.60966,2004,2880,8
1789468368.610093,2085,2880,8
1789468368.611638,2197,2880,8
1789468368.613424,2051,2878,8
1789468368.614918,2027,2877,8
1789468368.619039,2108,2880,8
1789468368.6191308,2081,2879,8
1789468368.620895,2202,2880,8
1789468368.6231942,1962,2880,8
1789468368.624481,1805,2876,8
1789468368.6267788,2401,2881,8
1789468368.629344,2128,2880,8
1789468368.630636,2119,2880,8
1789468368.6327062,2519,2881,8
1789468368.635246,2118,2880,8
1789468368.636529,2027,2879,8
1789468368.638835,2103,2880,8
1789468368.641375,2187,2880,8
1789468368.64242,2102,2878,8
1789468368.644712,2056,2878,8
1789468368.647251,2116,2881,8
1789468368.6485388,1994,2878,8
1789468368.6506639,2030,2879,8
1789468368.652961,2311,2881,8
1789468368.655261,2163,2879,8
1789468368.656323,2128,2880,8
1789468368.658617,1986,2876,8
1789468368.660925,2130,2879,8
1789468368.662328,2349,2881,8
1789468368.664881,2212,2880,8
1789468368.667425,2231,2879,8
1789468368.668711,2094,2880,8
1789468368.671253,2183,2880,8
1789468368.672551,2045,2877,8
1789468368.6768482,2098,2878,8
1789468368.6772869,2355,2881,8
1789468368.67926,2215,2879,8
1789468368.681355,2156,2880,8
1789468368.6830158,2147,2879,8
1789468368.6878169,2114,2880,8
1789468368.687943,2162,2880,8
1789468368.6898508,1964,2876,8
1789468368.691158,2199,2879,8
1789468368.692446,2275,2880,8
1789468368.694607,1970,2878,8
1789468368.6995149,1953,2878,8
1789468368.701248,2413,2880,8
1789468368.70141,2165,2880,8
1789468368.702889,2173,2878,8
1789468368.704406,2152,2879,8
1789468368.709533,2194,2879,8
1789468368.709692,2208,2880,8
1789468368.711231,2103,2879,8
1789468368.712532,2078,2877,8
1789468368.7150888,2089,2879,8
1789468368.717154,2103,2878,8
1789468368.718441,2049,2878,8
1789468368.720751,2037,2880,8
1789468368.723295,2245,2880,8
1789468368.72458,2124,2881,8
1789468368.7267818,2121,2879,8
1789468368.729076,2206,2881,8
1789468368.7303622,2121,2879,8
1789468368.732621,2155,2880,8
1789468368.734709,2056,2879,8
1789468368.7367759,2096,2879,8
1789468368.739234,2255,2879,8
1789468368.740525,2281,2880,8
1789468368.743065,2231,2879,8
1789468368.745312,2076,2877,8
1789468368.746356,2066,2879,8
1789468368.748663,2169,2880,8
1789468368.750722,2163,2880,8
1789468368.753271,2085,2879,8
1789468368.754557,2032,2878,8
1789468368.756623,2043,2879,8
1789468368.758715,2098,2880,8
1789468368.7611089,2110,2880,8
1789468368.7624,2079,2877,8
1789468368.7673259,2123,2880,8
1789468368.7677288,2158,2879,8
1789468368.7691011,1994,2877,8
1789468368.770947,1930,2876,8
1789468368.7736142,2002,2877,8
1789468368.777457,2060,2880,8
1789468368.7775831,2283,2880,8
1789468368.77921,2104,2879,8
1789468368.780332,2032,2877,8
1789468368.782645,2122,2880,8
1789468368.785219,2216,2880,8
1789468368.789004,2182,2880,8
1789468368.789153,2063,2880,8
1789468368.7914948,1997,2876,8
1789468368.793313,1991,2877,8
1789468368.795866,1958,2878,8
1789468368.79971,2100,2882,8
1789468368.7999291,2088,2879,8
1789468368.801554,2073,2879,8
1789468368.802607,2133,2879,8
1789468368.804917,2047,2879,8
1789468368.806321,1879,2878,8
1789468368.808884,2098,2877,8
1789468368.810969,2112,2880,8
1789468368.8131158,2153,2880,8
1789468368.8144069,2110,2879,8
1789468368.8167071,2135,2879,8
1789468368.819249,1976,2877,8
1789468368.821352,2094,2881,8
1789468368.822458,2111,2879,8
1789468368.8249989,2029,2878,8
1789468368.827299,1878,2877,8
1789468368.828435,2110,2880,8
1789468368.830975,2002,2878,8
1789468368.833525,2135,2880,8
1789468368.8348138,2224,2879,8
1789468368.837364,2169,2880,8
1789468368.8384268,2110,2879,8
1789468368.840967,2208,2880,8
1789468368.8432589,2143,2880,8
1789468368.844543,1964,2877,8
1789468368.846847,1946,2878,8
1789468368.849387,1808,2877,8
1789468368.8504431,2157,2880,8
1789468368.852743,1993,2878,8
1789468368.8576891,2011,2879,8
1789468368.858582,2280,2880,8
1789468368.859964,2372,2881,8
1789468368.8617952,2000,2877,8
1789468368.8632069,2048,2879,8
1789468368.86481,2138,2878,8
1789468368.867935,1924,2878,8
1789468368.869615,1997,2877,8
1789468368.8706791,1794,2876,8
1789468368.8732212,1986,2880,8
1789468368.8745081,2049,2879,8
1789468368.879194,2094,2880,8
1789468368.879597,1956,2879,8
1789468368.8814888,2171,2880,8
1789468368.8830779,2238,2880,8
1789468368.8861399,1992,2878,8
1789468368.889803,2183,2880,8
1789468368.8899992,2180,2879,8
1789468368.8918521,2068,2880,8
1789468368.8929238,2010,2877,8
1789468368.895221,2131,2881,8
1789468368.897295,2090,2878,8
1789468368.898443,2114,2880,8
1789468368.900532,2222,2880,8
1789468368.903075,2354,2880,8
1789468368.90551,1904,2876,8
1789468368.906794,1928,2878,8
1789468368.909338,2230,2879,8
1789468368.910468,1933,2877,8
1789468368.9127831,1832,2878,8
1789468368.915321,2162,2880,8
1789468368.916606,2081,2880,8
1789468368.9191492,1894,2877,8
1789468368.921451,2042,2879,8
1789468368.9227421,1833,2878,8
1789468368.925041,2142,2880,8
1789468368.9275892,2289,2880,8
1789468368.92863,2096,2879,8
1789468368.931173,2035,2878,8
1789468368.932457,2103,2879,8
1789468368.934824,2072,2879,8
1789468368.937126,2066,2879,8
1789468368.939423,2121,2879,8
1789468368.940628,2372,2879,8
1789468368.943172,1975,2878,8
1789468368.9479601,2001,2877,8
1789468368.94833,2051,2878,8
1789468368.948469,2065,2878,8
1789468368.951782,2096,2879,8
1789468368.954369,2049,2878,8
1789468368.9573529,1948,2876,8
1789468368.957458,1909,2877,8
1789468368.9592938,1987,2878,8
1789468368.9606001,2051,2879,8
1789468368.9631512,2010,2879,8
1789468368.969161,2217,2880,8
1789468368.969548,2465,2880,8
1789468368.970264,1930,2877,8
1789468368.9729521,1794,2878,8
1789468368.9730618,1946,2877,8
1789468368.9749382,2367,2881,8
1789468368.979393,2175,2881,8
1789468368.9795892,1880,2877,8
1789468368.9809868,2063,2880,8
1789468368.9833028,2153,2879,8
1789468368.984592,2011,2878,8
1789468368.986893,2159,2880,8
1789468368.989221,1829,2879,8
1789468368.990518,2398,2881,8
1789468368.992824,2137,2879,8
1789468368.9953659,1910,2878,8
1789468368.996414,2038,2878,8
1789468368.998955,2128,2879,8
1789468369.001494,2267,2880,8
1789468369.002778,2207,2879,8
1789468369.0053172,2057,2880,8
1789468369.006583,1940,2878,8
1789468369.009054,2226,2881,8
1789468369.011355,1662,2878,8
1789468369.0124228,2027,2879,8
1789468369.014736,1981,2878,8
1789468369.017278,2257,2880,8
1789468369.0184152,2271,2881,8
1789468369.0209658,1877,2877,8
1789468369.023508,1946,2877,8
1789468369.024797,1958,2878,8
1789468369.0268538,2263,2881,8
1789468369.029396,2099,2877,8
1789468369.0306828,1753,2876,8
1789468369.035139,2110,2879,8
1789468369.035226,2004,2879,8
1789468369.0386078,2048,2880,8
1789468369.0390332,2219,2879,8
1789468369.041924,2168,2880,8
1789468369.045107,2089,2878,8
1789468369.04686,2133,2878,8
1789468369.047094,2327,2881,8
1789468369.049537,2236,2880,8
1789468369.0508401,1657,2876,8
1789468369.053321,1772,2876,8
1789468369.0566962,2222,2880,8
1789468369.057118,1939,2878,8
1789468369.060234,2144,2880,8
1789468369.061806,2301,2880,8
1789468369.063584,1825,2877,8
1789468369.0666041,1860,2878,8
1789468369.066748,2280,2880,8
1789468369.069376,2116,2880,8
1789468369.070667,2163,2878,8
1789468369.072955,2089,2879,8
1789468369.075265,2091,2879,8
1789468369.0765598,2023,2879,8
1789468369.079118,1997,2878,8
1789468369.080437,2069,2878,8
1789468369.0829802,2118,2881,8
1789468369.0853472,2191,2880,8
1789468369.0866308,2064,2880,8
1789468369.089171,2059,2880,8
1789468369.091468,2090,2878,8
1789468369.092512,2070,2881,8
1789468369.094809,2015,2878,8
1789468369.0971038,2083,2878,8
1789468369.099401,2128,2881,8
1789468369.1006851,2100,2879,8
1789468369.103225,2040,2880,8
1789468369.1053178,2015,2880,8
1789468369.1076212,2040,2880,8
1789468369.108904,2118,2882,8
1789468369.111007,2003,2877,8
1789468369.113317,2051,2878,8
1789468369.114604,2119,2880,8
1789468369.120141,2117,2879,8
1789468369.120539,2068,2880,8
1789468369.1209228,1986,2876,8
1789468369.1238348,2124,2880,8
1789468369.125567,2030,2877,8
1789468369.130049,1999,2877,8
1789468369.131456,2065,2879,8
1789468369.131992,2051,2877,8
1789468369.134563,2045,2878,8
1789468369.135047,2162,2880,8
1789468369.1365728,2073,2878,8
1789468369.150253,2043,2879,8
1789468369.153994,2054,2878,8
1789468369.1557581,2063,2879,8
1789468369.1558468,2044,2880,8
1789468369.155898,2162,2881,8
1789468369.1560059,2205,2880,8
1789468369.156062,2109,2879,8
1789468369.1561852,2046,2878,8
1789468369.156275,2091,2879,8
1789468369.1576169,2089,2880,8
1789468369.158735,2083,2877,8
1789468369.161099,1965,2878,8
1789468369.1633122,2134,2881,8
1789468369.164564,2182,2881,8
1789468369.166664,2063,2880,8
1789468369.168975,1929,2877,8
1789468369.171198,2036,2879,8
1789468369.173384,2109,2880,8
1789468369.174595,2228,2881,8
1789468369.1770859,2090,2879,8
1789468369.1797178,2074,2877,8
1789468369.180789,1970,2877,8
1789468369.182932,2148,2881,8
1789468369.185148,2113,2879,8
1789468369.1872158,2072,2878,8
1789468369.18855,1949,2877,8
1789468369.190627,2146,2880,8
1789468369.192844,1932,2877,8
1789468369.1951191,2235,2879,8
1789468369.197201,2396,2881,8
1789468369.199459,2020,2879,8
1789468369.200741,2038,2879,8
1789468369.202812,2160,2880,8
1789468369.2050161,2119,2879,8
1789468369.2241018,2110,2879,8
1789468369.2241468,1985,2878,8
1789468369.2241762,1991,2879,8
1789468369.224204,2040,2878,8
1789468369.224231,1955,2877,8
1789468369.224258,2141,2879,8
1789468369.224285,2206,2880,8
1789468369.224311,2083,2879,8
1789468369.2243378,2054,2880,8
1789468369.2258072,2209,2880,8
1789468369.227563,2153,2880,8
1789468369.245363,1889,2878,8
1789468369.245534,2006,2879,8
1789468369.24561,2099,2881,8
1789468369.2456892,2112,2880,8
1789468369.245856,2009,2878,8
1789468369.2458901,2032,2879,8
1789468369.245923,2174,2879,8
1789468369.245952,2057,2878,8
1789468369.245981,2105,2879,8
1789468369.247036,2086,2879,8
1789468369.251269,2182,2881,8
1789468369.2513542,2096,2878,8
1789468369.252723,1946,2877,8
1789468369.255254,2029,2880,8
1789468369.256602,2093,2880,8
1789468369.259563,2176,2880,8
1789468369.26086,1876,2878,8
1789468369.262987,2061,2878,8
1789468369.265345,1971,2879,8
1789468369.266633,2097,2881,8
1789468369.2691772,2296,2880,8
1789468369.270543,2221,2880,8
1789468369.272842,2137,2879,8
1789468369.2751439,2113,2879,8
1789468369.2772,2082,2878,8
1789468369.278662,2060,2879,8
1789468369.280969,2124,2880,8
1789468369.283037,2047,2878,8
1789468369.2853491,2002,2880,8
1789468369.2876549,1930,2876,8
1789468369.288955,2053,2877,8
1789468369.291258,2130,2879,8
1789468369.292595,2088,2879,8
1789468369.294656,2060,2878,8
1789468369.2979572,2177,2881,8
1789468369.3030431,2184,2881,8
1789468369.303843,2181,2879,8
1789468369.304597,2023,2880,8
1789468369.305749,2019,2880,8
1789468369.3072262,2070,2878,8
1789468369.310206,2111,2881,8
1789468369.313327,1975,2878,8
1789468369.3135512,2043,2877,8
1789468369.315547,2181,2880,8
1789468369.316865,2128,2881,8
1789468369.3194098,1982,2878,8
1789468369.320701,2019,2880,8
1789468369.325093,2099,2879,8
1789468369.325473,2153,2880,8
1789468369.328811,2160,2881,8
1789468369.329222,2050,2878,8
1789468369.330954,2063,2877,8
1789468369.3346481,2196,2880,8
1789468369.3348212,2121,2879,8
1789468369.33668,2132,2878,8
1789468369.338995,2061,2879,8
1789468369.3421319,2065,2878,8
1789468369.343327,2063,2877,8
1789468369.344641,2023,2878,8
1789468369.347202,2046,2878,8
1789468369.349313,2122,2880,8
1789468369.351716,2091,2880,8
1789468369.353007,2001,2877,8
1789468369.355556,2037,2879,8
1789468369.3567202,2074,2880,8
1789468369.359027,2087,2880,8
1789468369.361161,2030,2878,8
1789468369.3632388,2088,2879,8
1789468369.3655438,2134,2880,8
1789468369.366675,2139,2879,8
1789468369.36875,2054,2879,8
1789468369.371045,2027,2878,8
1789468369.3733382,2122,2878,8
1789468369.375401,2124,2881,8
1789468369.376692,2059,2877,8
1789468369.378994,2034,2878,8
1789468369.381299,2088,2879,8
1789468369.3836002,2150,2880,8
1789468369.38489,2110,2879,8
1789468369.3871942,2062,2878,8
1789468369.3919308,2096,2878,8
1789468369.39276,2076,2879,8
1789468369.39409,1999,2878,8
1789468369.396148,1998,2878,8
1789468369.3976152,2156,2881,8
1789468369.401163,2150,2880,8
1789468369.401341,2174,2878,8
1789468369.402848,2103,2879,8
1789468369.405439,1972,2876,8
1789468369.406732,2021,2878,8
1789468369.408915,2132,2880,8
1789468369.4129028,2098,2878,8
1789468369.413602,1615,2877,8
1789468369.415245,1599,2879,8
1789468369.417124,2386,2880,8
1789468369.421867,2662,2879,8
1789468369.422066,1827,2879,8
1789468369.423859,2164,2879,8
1789468369.425159,2247,2880,8
1789468369.427364,2186,2878,8
1789468369.429675,2074,2878,8
1789468369.430976,2414,2880,8
1789468369.433528,1994,2877,8
1789468369.4347641,2190,2880,8
1789468369.437311,2252,2878,8
1789468369.438684,1674,2876,8
1789468369.4411252,1963,2878,8
1789468369.4434319,2337,2881,8
1789468369.444721,1926,2878,8
1789468369.447084,2727,2881,8
1789468369.4496279,2309,2880,8
1789468369.4509199,1843,2877,8
1789468369.453162,2581,2881,8
1789468369.4557052,2075,2880,8
1789468369.456995,1947,2878,8
1789468369.4590552,1338,2878,8
1789468369.461357,1869,2878,8
1789468369.463465,3311,2884,8
1789468369.464757,2015,2880,8
1789468369.467304,1557,2877,8
1789468369.4696162,2119,2881,8
1789468369.470679,1854,2878,8
1789468369.473012,1600,2878,8
1789468369.4773288,1485,2878,8
1789468369.477719,2400,2880,8
1789468369.479635,3009,2882,8
1789468369.481026,2810,2882,8
1789468369.484092,2139,2880,8
1789468369.486413,1607,2877,8
1789468369.488136,801,2878,8
1789468369.489426,2449,2880,8
1789468369.490714,2921,2882,8
1789468369.493258,2439,2879,8
1789468369.495581,2144,2880,8
1789468369.496695,1411,2876,8
1789468369.499247,1679,2878,8
1789468369.501367,2269,2880,8
1789468369.5034392,1901,2878,8
1789468369.504726,2393,2878,8
1789468369.507027,2826,2882,8
1789468369.509335,2124,2879,8
1789468369.511446,1108,2877,8
1789468369.5137448,988,2876,8
1789468369.514824,1492,2877,8
1789468369.517129,1939,2878,8
1789468369.519427,2422,2881,8
1789468369.521535,2279,2880,8
1789468369.522675,1351,2876,8
1789468369.525217,2418,2881,8
1789468369.527393,2327,2880,8
1789468369.529444,2022,2877,8
1789468369.530731,1949,2878,8
1789468369.5330281,1500,2878,8
1789468369.535569,2150,2879,8
1789468369.536855,1696,2877,8
1789468369.54267,1588,2876,8
1789468369.543342,2139,2879,8
1789468369.5447419,1342,2876,8
1789468369.544949,2309,2880,8
1789468369.548104,2197,2879,8
1789468369.551701,597,2877,8
1789468369.5518122,2619,2881,8
1789468369.553668,2679,2881,8
1789468369.554967,1479,2876,8
1789468369.557512,1267,2877,8
1789468369.559453,703,2877,8
1789468369.5640152,2933,2883,8
1789468369.56476,2292,2880,8
1789468369.565207,1765,2877,8
1789468369.5682502,1237,2877,8
1789468369.57309,1396,2878,8
1789468369.5732539,2184,2878,8
1789468369.573409,1956,2877,8
1789468369.574782,2109,2879,8
1789468369.5773408,1373,2877,8
1789468369.578708,1550,2877,8
1789468369.581258,1421,2876,8
1789468369.58267,1475,2877,8
1789468369.585142,1514,2877,8
1789468369.5876741,1544,2878,8
1789468369.588726,1724,2878,8
1789468369.591158,2518,2881,8
1789468369.5935318,2064,2880,8
1789468369.594778,1607,2877,8
1789468369.5972538,1850,2878,8
1789468369.599812,2071,2876,8
1789468369.600866,1604,2879,8
1789468369.603164,1999,2878,8
1789468369.605472,1557,2876,8
1789468369.6077702,1472,2876,8
1789468369.608812,1878,2879,8
1789468369.6111722,608,2875,8
1789468369.6134322,1567,2877,8
1789468369.6147258,3490,2883,8
1789468369.617271,2919,2882,8
1789468369.619822,1750,2876,8
1789468369.621108,1916,2878,8
1789468369.6236532,2141,2878,8
1789468369.624876,2054,2877,8
1789468369.630373,1535,2877,8
1789468369.6307762,1693,2877,8
1789468369.6312478,2198,2880,8
1789468369.633139,1755,2876,8
1789468369.635892,83,2876,8
1789468369.6377091,1673,2877,8
1789468369.6403031,2207,2880,8
1789468369.642175,2663,2883,8
1789468369.643285,3373,2884,8
1789468369.645838,1891,2878,8
1789468369.647125,968,2877,8
1789468369.652339,2117,2879,8
1789468369.652779,2433,2880,8
1789468369.6531541,2245,2880,8
1789468369.655746,2025,2879,8
1789468369.657113,1560,2876,8
1789468369.658807,1618,2877,8
1789468369.661325,1485,2877,8
1789468369.663131,1326,2877,8
1789468369.66547,2545,2880,8
1789468369.6667788,2495,2880,8
1789468369.669173,2408,2879,8
1789468369.671492,1815,2877,8
1789468369.6727848,1751,2877,8
1789468369.6748421,2570,2882,8
1789468369.6773849,2306,2879,8
1789468369.679451,2113,2880,8
1789468369.681756,1730,2876,8
1789468369.682827,1958,2877,8
1789468369.685378,1905,2877,8
1789468369.687874,2468,2881,8
1789468369.689162,2358,2879,8
1789468369.691464,2192,2880,8
1789468369.693745,1678,2877,8
1789468369.69503,2074,2878,8
1789468369.697427,2063,2878,8
1789468369.698807,2771,2881,8
1789468369.7011101,1387,2877,8
1789468369.7031722,1507,2877,8
1789468369.70532,3053,2882,8
1789468369.707374,2457,2880,8
1789468369.709675,1830,2877,8
1789468369.7120168,1924,2877,8
1789468369.7166898,2450,2879,8
1789468369.7171252,2839,2882,8
1789468369.717886,1628,2878,8
1789468369.7204921,2227,2879,8
1789468369.72217,2096,2879,8
1789468369.7236009,1385,2878,8
1789468369.7263649,1533,2877,8
1789468369.72786,3333,2884,8
1789468369.729154,2419,2880,8
1789468369.731703,1993,2879,8
1789468369.732863,2599,2881,8
1789468369.737348,1751,2878,8
1789468369.738008,1942,2877,8
1789468369.7397602,2488,2881,8
1789468369.7416809,2968,2882,8
1789468369.743159,2100,2880,8
1789468369.746936,1469,2876,8
1789468369.747076,1960,2877,8
1789468369.749752,2602,2881,8
1789468369.751043,1343,2877,8
1789468369.753588,2365,2881,8
1789468369.754879,3111,2882,8
1789468369.757302,2092,2878,8
1789468369.759849,2090,2879,8
1789468369.761033,2008,2880,8
1789468369.763575,1139,2876,8
1789468369.7648609,1970,2878,8
1789468369.767309,3387,2883,8
1789468369.769851,2708,2880,8
1789468369.770904,1738,2876,8
1789468369.773202,1773,2877,8
1789468369.775502,2442,2881,8
1789468369.777807,2179,2880,8
1789468369.779093,2078,2879,8
1789468369.781159,1723,2877,8
1789468369.783464,2715,2881,8
1789468369.784826,2717,2882,8
1789468369.787369,1643,2876,8
1789468369.78983,1786,2877,8
1789468369.791116,2485,2881,8
1789468369.793424,2130,2879,8
1789468369.7957299,1693,2878,8
1789468369.796808,2509,2882,8
1789468369.801852,2786,2881,8
1789468369.801923,1723,2877,8
1789468369.8037398,1683,2878,8
1789468369.8052769,2309,2881,8
1789468369.808487,2230,2880,8
1789468369.811679,2408,2880,8
1789468369.811782,2371,2880,8
1789468369.8137338,1429,2877,8
1789468369.8150022,1214,2875,8
1789468369.817306,3038,2882,8
1789468369.823356,2470,2880,8
1789468369.8237839,1733,2877,8
1789468369.824455,2393,2880,8
1789468369.82672,2289,2879,8
1789468369.8270762,2286,2880,8
1789468369.829899,2178,2877,8
1789468369.8330328,2204,2878,8
1789468369.8331661,2688,2882,8
1789468369.8358028,1986,2879,8
1789468369.837095,2131,2880,8
1789468369.8394089,2127,2880,8
1789468369.841721,1795,2877,8
1789468369.8440378,2207,2880,8
1789468369.8453262,810,2878,8
1789468369.847439,3639,2884,8
1789468369.849501,2889,2882,8
1789468369.8508182,1954,2879,8
1789468369.853118,1275,2876,8
1789468369.8551831,2045,2878,8
1789468369.857496,2567,2881,8
1789468369.8588128,1988,2878,8
1789468369.861355,2847,2881,8
1789468369.86345,2144,2880,8
1789468369.865825,2199,2879,8
1789468369.8671098,1834,2877,8
1789468369.869417,2251,2880,8
1789468369.8717089,2341,2881,8
1789468369.872813,2405,2881,8
1789468369.875364,2088,2879,8
1789468369.877525,1712,2877,8
1789468369.879822,2140,2880,8
1789468369.881109,1999,2877,8
1789468369.883293,1839,2877,8
1789468369.8886158,2131,2881,8
1789468369.889009,2062,2879,8
1789468369.889104,2300,2880,8
1789468369.892253,1917,2876,8
1789468369.8939252,2159,2881,8
1789468369.8953888,2753,2881,8
1789468369.898721,2250,2880,8
1789468369.900167,1642,2877,8
1789468369.9014568,1763,2878,8
1789468369.904001,2757,2882,8
1789468369.905045,2351,2880,8
1789468369.910202,2038,2879,8
1789468369.910878,2087,2880,8
1789468369.911276,1546,2877,8
1789468369.91429,1962,2878,8
1789468369.916692,2025,2878,8
1789468369.920025,2691,2881,8
1789468369.920139,1805,2877,8
1789468369.9219031,1760,2877,8
1789468369.922955,2089,2879,8
1789468369.9255009,2612,2880,8
1789468369.9269462,2217,2879,8
1789468369.929518,2146,2880,8
1789468369.931893,2295,2879,8
1789468369.932937,1980,2878,8
1789468369.935251,1756,2877,8
1789468369.9375439,2135,2880,8
1789468369.940089,1711,2876,8
1789468369.941377,2452,2881,8
1789468369.943491,2629,2880,8
1789468369.945791,993,2876,8
1789468369.947076,1940,2878,8
1789468369.949385,3407,2884,8
1789468369.951448,2052,2877,8
1789468369.9534929,2119,2880,8
1789468369.9557838,2083,2879,8
1789468369.9570692,2274,2879,8
1789468369.9593742,2410,2880,8
1789468369.961566,1262,2876,8
1789468369.9629178,2121,2879,8
1789468369.964971,2009,2878,8
1789468369.96727,1960,2878,8
1789468369.969574,2564,2882,8
1789468369.970911,1746,2877,8
1789468369.9771662,1989,2878,8
1789468369.9775229,1560,2877,8
1789468369.978818,2366,2880,8
1789468369.9789891,2808,2881,8
1789468369.981657,2104,2880,8
1789468369.983595,2113,2880,8
1789468369.986945,1595,2878,8
1789468369.9871528,2424,2880,8
1789468369.989665,2044,2881,8
1789468369.990957,2389,2880,8
1789468369.993501,1872,2878,8
1789468369.997768,1912,2877,8
1789468369.9981499,2344,2880,8
1789468370.00001,2368,2881,8
1789468370.001696,1763,2877,8
1789468370.0030668,1882,2877,8
1789468370.007678,2063,2878,8
1789468370.0077598,2136,2879,8
1789468370.009411,1663,2876,8
1789468370.0119581,2256,2880,8
1789468370.013244,2356,2880,8
1789468370.015549,2350,2880,8
1789468370.0169148,2092,2879,8
1789468370.019477,2395,2880,8
1789468370.021636,1934,2877,8
1789468370.022958,2060,2878,8
1789468370.0254989,2152,2880,8
1789468370.027804,2418,2880,8
1789468370.0290902,2368,2878,8
1789468370.03163,1356,2876,8
1789468370.032941,1825,2877,8
1789468370.035087,1784,2877,8
1789468370.037188,2215,2880,8
1789468370.039254,2711,2881,8
1789468370.041558,2324,2879,8
1789468370.042924,1712,2876,8
1789468370.045137,1951,2877,8
1789468370.047439,1783,2879,8
1789468370.0495481,2647,2882,8
1789468370.0519402,2849,2881,8
1789468370.053227,2381,2880,8
1789468370.055773,1161,2877,8
1789468370.0570612,1766,2877,8
1789468370.063263,1936,2877,8
1789468370.0636742,2930,2881,8
1789468370.065609,2124,2879,8
1789468370.065676,1672,2877,8
1789468370.067071,1632,2878,8
1789468370.070018,2003,2877,8
1789468370.073387,2658,2881,8
1789468370.0736132,1918,2877,8
1789468370.075445,2873,2882,8
1789468370.0779688,1220,2878,8
1789468370.079006,1576,2878,8
1789468370.080928,2650,2880,8
1789468370.085359,2281,2879,8
1789468370.085715,2204,2879,8
1789468370.0872881,2365,2880,8
1789468370.090223,1977,2877,8
1789468370.0948548,1693,2878,8
1789468370.095048,1781,2878,8
1789468370.095236,2898,2882,8
1789468370.0977962,2242,2880,8
1789468370.098947,1984,2879,8
1789468370.101527,1707,2877,8
1789468370.10388,1794,2877,8
1789468370.1051772,1509,2878,8
1789468370.1077209,2969,2881,8
1789468370.110098,2519,2880,8
1789468370.111383,1767,2878,8
1789468370.113439,1875,2877,8
1789468370.115736,2104,2879,8
1789468370.1177988,2004,2877,8
1789468370.119082,2015,2877,8
1789468370.121175,2465,2881,8
1789468370.123468,1930,2878,8
1789468370.125567,2120,2879,8
1789468370.126956,1764,2877,8
1789468370.1294951,1694,2877,8
1789468370.1317601,2725,2880,8
1789468370.133044,2548,2882,8
1789468370.135586,2189,2880,8
1789468370.137703,1983,2877,8
1789468370.138994,2049,2878,8
1789468370.141539,2421,2881,8
1789468370.1437361,1848,2879,8
1789468370.149827,1726,2876,8
1789468370.150172,1838,2877,8
1789468370.150648,2334,2880,8
1789468370.1520221,1827,2877,8
1789468370.153693,1654,2877,8
1789468370.156511,2135,2880,8
1789468370.160141,3000,2882,8
1789468370.160259,2217,2879,8
1789468370.162017,2102,2880,8
1789468370.163317,2648,2881,8
1789468370.165618,2180,2879,8
1789468370.1708312,2001,2878,8
1789468370.171175,2063,2878,8
1789468370.1717691,1957,2878,8
1789468370.174166,1787,2877,8
1789468370.1755378,2126,2879,8
1789468370.180307,1664,2877,8
1789468370.180428,1785,2876,8
1789468370.181812,2260,2880,8
1789468370.1841202,1729,2877,8
1789468370.185409,2692,2882,8
1789468370.18785,2714,2881,8
1789468370.189149,1820,2877,8
1789468370.191471,2424,2881,8
1789468370.1938381,2109,2877,8
1789468370.195125,1955,2878,8
1789468370.1974301,2085,2877,8
1789468370.199509,2194,2879,8
1789468370.2019682,1642,2877,8
1789468370.203259,1524,2877,8
1789468370.205369,1774,2878,8
1789468370.207668,2591,2881,8
1789468370.21021,2796,2881,8
1789468370.211494,1926,2878,8
1789468370.213672,2070,2877,8
1789468370.216234,2179,2878,8
1789468370.2175229,2019,2877,8
1789468370.219583,1825,2877,8
1789468370.222125,2945,2881,8
1789468370.223542,1827,2878,8
1789468370.225353,1965,2879,8
1789468370.2278311,1919,2877,8
1789468370.230146,1896,2878,8
1789468370.231219,2077,2878,8
1789468370.235123,2275,2882,8
1789468370.235581,2320,2880,8
1789468370.237857,2177,2879,8
1789468370.239497,1832,2877,8
1789468370.242325,1616,2878,8
1789468370.246134,2276,2880,8
1789468370.246328,2231,2882,8
1789468370.2479029,1964,2878,8
1789468370.2491982,2051,2878,8
1789468370.251746,2427,2881,8
1789468370.257417,2000,2879,8
1789468370.2577841,2288,2880,8
1789468370.2581801,1944,2877,8
1789468370.2595809,1874,2878,8
1789468370.262513,1606,2877,8
1789468370.2639308,2768,2881,8
1789468370.267775,2360,2881,8
1789468370.26796,2114,2880,8
1789468370.269684,2236,2880,8
1789468370.2717571,2091,2879,8
1789468370.274063,1901,2878,8
1789468370.275118,2283,2880,8
1789468370.27743,2084,2877,8
1789468370.2799518,2031,2878,8
1789468370.2812428,2099,2879,8
1789468370.283786,2060,2880,8
1789468370.285095,2130,2878,8
1789468370.287408,1829,2878,8
1789468370.289951,1915,2878,8
1789468370.291243,1707,2877,8
1789468370.293545,2263,2881,8
1789468370.296084,2642,2881,8
1789468370.297135,2118,2879,8
1789468370.299676,1954,2879,8
1789468370.3017302,2068,2881,8
1789468370.304032,2184,2879,8
1789468370.3053179,2064,2877,8
1789468370.307772,2028,2879,8
1789468370.309064,2035,2880,8
1789468370.3113651,1707,2877,8
1789468370.3139079,2365,2880,8
1789468370.3151941,2392,2880,8
1789468370.317388,1982,2879,8
1789468370.324724,1918,2876,8
1789468370.3258162,1918,2878,8
1789468370.32592,2199,2878,8
1789468370.3260942,2609,2882,8
1789468370.3280692,2075,2879,8
1789468370.329514,2008,2878,8
1789468370.334635,2092,2878,8
1789468370.334702,2116,2879,8
1789468370.336472,2066,2879,8
1789468370.3377721,2128,2881,8
1789468370.339875,2220,2880,8
1789468370.341162,2295,2881,8
1789468370.346844,1751,2877,8
1789468370.347591,2225,2880,8
1789468370.347968,1711,2877,8
1789468370.350614,1962,2878,8
1789468370.352391,2136,2880,8
1789468370.3572311,2293,2881,8
1789468370.357395,2264,2880,8
1789468370.357568,1789,2877,8
1789468370.360139,2245,2880,8
1789468370.3611898,2467,2881,8
1789468370.363492,1947,2878,8
1789468370.365925,2229,2879,8
1789468370.3670678,2254,2879,8
1789468370.369612,2046,2878,8
1789468370.3721569,1994,2876,8
1789468370.373442,2266,2880,8
1789468370.375744,2254,2880,8
1789468370.3770611,1913,2877,8
1789468370.379363,2085,2880,8
1789468370.3816588,2233,2879,8
1789468370.383959,1982,2876,8
1789468370.3852448,1949,2877,8
1789468370.387786,1878,2877,8
1789468370.3890738,2078,2878,8
1789468370.391619,2963,2882,8
1789468370.3939168,2044,2879,8
1789468370.396228,1885,2878,8
1789468370.3975198,1985,2877,8
1789468370.400061,2130,2878,8
1789468370.401346,2256,2879,8
1789468370.403886,2162,2880,8
1789468370.405174,2094,2880,8
1789468370.407716,2113,2879,8
1789468370.412717,2088,2879,8
1789468370.4134002,2077,2880,8
1789468370.413515,2055,2878,8
1789468370.4152179,2084,2878,8
1789468370.418165,2245,2882,8
1789468370.419607,2209,2879,8
1789468370.423637,2034,2880,8
1789468370.4238029,2105,2880,8
1789468370.425486,2067,2880,8
1789468370.428035,2069,2878,8
1789468370.429322,2345,2881,8
1789468370.434927,2213,2880,8
1789468370.435354,1992,2877,8
1789468370.435738,2156,2881,8
1789468370.437401,2339,2880,8
1789468370.440371,2131,2880,8
1789468370.445185,2112,2880,8
1789468370.445411,2092,2879,8
1789468370.445534,1903,2879,8
1789468370.4471931,2275,2880,8
1789468370.4494998,2385,2881,8
1789468370.45205,2134,2881,8
1789468370.4533389,2131,2880,8
1789468370.455643,2095,2880,8
1789468370.457928,2127,2880,8
1789468370.459213,2204,2880,8
1789468370.4615161,2099,2878,8
1789468370.4638798,2118,2881,8
1789468370.466182,2148,2880,8
1789468370.467467,2088,2880,8
1789468370.46978,2146,2880,8
1789468370.472328,1979,2877,8
1789468370.473614,2015,2877,8
1789468370.475887,2166,2880,8
1789468370.477173,2252,2881,8
1789468370.479717,1930,2878,8
1789468370.482021,2010,2876,8
1789468370.483314,2130,2880,8
1789468370.485612,1989,2877,8
1789468370.4881542,2263,2880,8
1789468370.4894452,2140,2880,8
1789468370.491987,2024,2881,8
1789468370.494293,2196,2880,8
1789468370.4986439,1934,2878,8
1789468370.499043,1989,2879,8
1789468370.4997451,2151,2882,8
1789468370.502294,2135,2880,8
1789468370.503864,1841,2877,8
1789468370.508641,1876,2878,8
1789468370.5088398,2028,2880,8
1789468370.5106182,2260,2880,8
1789468370.511919,2002,2877,8
1789468370.513213,1926,2878,8
1789468370.5152798,2042,2878,8
1789468370.519735,2257,2881,8
1789468370.52009,2101,2880,8
1789468370.521792,2013,2880,8
1789468370.5242062,1821,2877,8
1789468370.5260081,2236,2880,8
1789468370.5295842,1921,2879,8
1789468370.529706,2166,2881,8
1789468370.532265,1937,2877,8
1789468370.5333161,2101,2881,8
1789468370.5356202,2171,2881,8
1789468370.538184,2013,2878,8
1789468370.539478,1991,2877,8
1789468370.541607,2172,2880,8
1789468370.543915,2133,2880,8
1789468370.5452,1951,2878,8
1789468370.54774,2139,2880,8
1789468370.5500422,2287,2880,8
1789468370.551326,2014,2877,8
1789468370.553544,1880,2878,8
1789468370.556085,1957,2877,8
1789468370.557371,1901,2878,8
1789468370.5597298,2045,2876,8
1789468370.562273,1875,2877,8
1789468370.5635872,1935,2877,8
1789468370.5660641,2150,2879,8
1789468370.567179,1887,2876,8
1789468370.569487,1973,2878,8
1789468370.571908,2195,2880,8
1789468370.5732322,2237,2880,8
1789468370.5755699,2229,2880,8
1789468370.577934,1945,2878,8
1789468370.579221,1947,2877,8
1789468370.5839732,2098,2878,8
1789468370.584471,1948,2877,8
1789468370.586428,1862,2878,8
1789468370.588195,2228,2880,8
1789468370.591108,2378,2879,8
1789468370.5947258,2014,2878,8
1789468370.59484,1783,2877,8
1789468370.596606,2207,2882,8
1789468370.5976598,2186,2881,8
1789468370.599979,2146,2880,8
1789468370.6023,1774,2878,8
1789468370.606415,2337,2881,8
1789468370.60676,2075,2880,8
1789468370.608588,1936,2877,8
1789468370.6101708,2002,2877,8
1789468370.61187,2009,2878,8
1789468370.6163929,2079,2877,8
1789468370.616545,2142,2880,8
1789468370.6182442,1884,2877,8
1789468370.619297,2080,2879,8
1789468370.621839,2116,2880,8
1789468370.623316,1944,2877,8
1789468370.625875,2070,2880,8
1789468370.62722,2085,2881,8
1789468370.629312,2036,2877,8
1789468370.631865,1978,2877,8
1789468370.633198,2187,2881,8
1789468370.635745,2536,2880,8
1789468370.638289,1942,2878,8
1789468370.6395772,1744,2877,8
1789468370.642119,1974,2878,8
1789468370.6431859,2096,2877,8
1789468370.645686,2210,2879,8
1789468370.647968,2011,2878,8
1789468370.6492531,2033,2879,8
1789468370.651554,1990,2877,8
1789468370.6538439,2024,2879,8
1789468370.65518,2031,2879,8
1789468370.6574788,2109,2880,8
1789468370.660023,2025,2879,8
1789468370.6613069,1941,2879,8
1789468370.66385,1796,2878,8
1789468370.665173,2202,2880,8
1789468370.6677618,2205,2879,8
1789468370.6712909,1877,2876,8
1789468370.671718,2234,2880,8
1789468370.673558,1757,2877,8
1789468370.676695,1901,2877,8
1789468370.6778328,2180,2880,8
1789468370.68145,1944,2878,8
1789468370.681611,1973,2878,8
1789468370.684164,2354,2880,8
1789468370.685457,2054,2880,8
1789468370.687768,1929,2878,8
1789468370.6931782,2044,2877,8
1789468370.69412,2330,2880,8
1789468370.695387,2150,2879,8
1789468370.695473,1996,2878,8
1789468370.6994948,1883,2878,8
1789468370.699678,2145,2880,8
1789468370.7030778,1997,2880,8
1789468370.703236,1910,2877,8
1789468370.705733,2013,2879,8
1789468370.707788,2111,2880,8
1789468370.710339,2271,2881,8
1789468370.711638,2146,2881,8
1789468370.713739,2072,2879,8
1789468370.716288,2148,2881,8
1789468370.717332,2124,2879,8
1789468370.71955,1969,2877,8
1789468370.722089,2005,2878,8
1789468370.72317,2053,2880,8
1789468370.7257102,1957,2878,8
1789468370.727773,1811,2878,8
1789468370.730317,2139,2878,8
1789468370.731356,2150,2880,8
1789468370.733908,2085,2879,8
1789468370.7361221,2077,2880,8
1789468370.7372081,1854,2878,8
1789468370.739708,2053,2878,8
1789468370.74225,2149,2879,8
1789468370.743289,2270,2880,8
1789468370.745346,2134,2880,8
1789468370.7478871,1989,2876,8
1789468370.75018,2091,2878,8
1789468370.7514648,2118,2879,8
1789468370.7538471,2039,2877,8
1789468370.7580009,2154,2880,8
1789468370.758752,2275,2880,8
1789468370.760465,1810,2877,8
1789468370.762175,1960,2877,8
1789468370.764916,2099,2880,8
1789468370.768291,1971,2877,8
1789468370.768516,2087,2879,8
1789468370.769872,2097,2880,8
1789468370.7714272,2059,2880,8
1789468370.773729,2029,2879,8
1789468370.775958,2083,2880,8
1789468370.779809,1987,2879,8
1789468370.781058,1857,2877,8
1789468370.783115,2153,2881,8
1789468370.784559,2421,2880,8
1789468370.78658,2003,2880,8
1789468370.78962,1966,2878,8
1789468370.789771,2265,2879,8
1789468370.7923698,1993,2878,8
1789468370.793657,1906,2878,8
1789468370.7960079,2243,2881,8
1789468370.798314,2239,2879,8
1789468370.7996118,1861,2876,8
1789468370.801922,2089,2879,8
1789468370.804234,2032,2879,8
1789468370.805525,2068,2880,8
1789468370.8079722,2110,2878,8
1789468370.810282,2047,2877,8
1789468370.81132,1993,2878,8
1789468370.813379,2063,2877,8
1789468370.815694,2020,2877,8
1789468370.817992,1997,2879,8
1789468370.8193789,2099,2878,8
1789468370.821673,2116,2878,8
1789468370.82397,2181,2880,8
1789468370.826328,2014,2878,8
1789468370.827614,1919,2878,8
1789468370.829922,1996,2879,8
1789468370.832236,2307,2881,8
1789468370.833521,2203,2880,8
1789468370.835828,1959,2878,8
1789468370.838154,2001,2879,8
1789468370.8393228,2160,2879,8
1789468370.8442838,1875,2878,8
1789468370.844676,2340,2881,8
1789468370.846588,2267,2880,8
1789468370.847935,2082,2880,8
1789468370.8508759,2051,2879,8
1789468370.853798,1980,2878,8
1789468370.8539279,2156,2879,8
1789468370.8555672,2206,2880,8
1789468370.8578691,2032,2878,8
1789468370.860178,1949,2878,8
1789468370.862488,1963,2877,8
1789468370.8635468,2097,2879,8
1789468370.8661,2099,2879,8
1789468370.867386,2144,2879,8
1789468370.869932,2086,2879,8
1789468370.872247,1971,2876,8
1789468370.8733299,1989,2877,8
1789468370.875563,2178,2880,8
1789468370.877862,2053,2878,8
1789468370.880171,2090,2877,8
1789468370.881396,2114,2880,8
1789468370.8836899,2213,2879,8
1789468370.885801,2029,2880,8
1789468370.887993,2021,2879,8
1789468370.890295,2305,2881,8
1789468370.8913379,2171,2881,8
1789468370.893394,2037,2877,8
1789468370.895788,2055,2878,8
1789468370.898327,1987,2877,8
1789468370.899612,2130,2880,8
1789468370.902163,2113,2879,8
1789468370.903451,2083,2877,8
1789468370.908492,2042,2880,8
1789468370.909152,2061,2880,8
1789468370.911011,2103,2877,8
1789468370.912928,2182,2881,8
1789468370.9154391,2217,2880,8
1789468370.915584,1990,2876,8
1789468370.918459,2114,2880,8
1789468370.92014,2114,2878,8
1789468370.9224598,1963,2876,8
1789468370.9237509,2027,2876,8
1789468370.9294279,2017,2879,8
1789468370.9297888,2019,2878,8
1789468370.9304562,2017,2877,8
1789468370.9329422,1980,2878,8
1789468370.934324,2204,2880,8
1789468370.935979,2188,2879,8
1789468370.938624,2067,2879,8
1789468370.940334,2063,2880,8
1789468370.941631,2162,2881,8
1789468370.9441762,2112,2878,8
1789468370.945465,2038,2879,8
1789468370.94793,2096,2878,8
1789468370.9502358,2111,2881,8
1789468370.951526,2043,2879,8
1789468370.9540749,1966,2878,8
1789468370.9561222,2173,2879,8
1789468370.957407,2125,2879,8
1789468370.959467,2112,2880,8
1789468370.962007,2110,2878,8
1789468370.964299,2204,2880,8
1789468370.965451,2147,2880,8
1789468370.967755,2113,2879,8
1789468370.969804,2043,2880,8
1789468370.9719648,1941,2877,8
1789468370.9742599,2134,2879,8
1789468370.9755461,2170,2881,8
1789468370.977839,2075,2878,8
1789468370.9803789,2069,2878,8
1789468370.9814222,2042,2877,8
1789468370.983876,2036,2878,8
1789468370.98642,2140,2879,8
1789468370.9877079,2142,2879,8
1789468370.993679,2067,2879,8
1789468370.993749,2089,2879,8
1789468370.994211,2080,2878,8
1789468370.996193,2082,2879,8
1789468370.9982212,2063,2879,8
1789468370.9996748,2162,2880,8
1789468371.0034208,2168,2880,8
1789468371.003674,2068,2879,8
1789468371.00628,2100,2878,8
1789468371.0074072,2053,2879,8
1789468371.009953,2182,2880,8
1789468371.0151281,2079,2878,8
1789468371.016088,2087,2878,8
1789468371.016453,2150,2881,8
1789468371.018733,2097,2880,8
1789468371.0203142,2033,2878,8
1789468371.021738,2084,2879,8
1789468371.024192,2084,2880,8
1789468371.025818,2090,2879,8
1789468371.027871,2052,2879,8
1789468371.0304158,2048,2879,8
1789468371.031703,2067,2879,8
1789468371.033795,2131,2879,8
1789468371.0363462,2125,2879,8
1789468371.037633,2100,2879,8
1789468371.039927,2086,2879,8
1789468371.042469,2087,2880,8
1789468371.043752,2072,2879,8
1789468371.0461938,2085,2878,8
1789468371.04849,2078,2879,8
1789468371.0497751,2136,2880,8
1789468371.051838,2104,2880,8
1789468371.054131,2043,2879,8
1789468371.055425,2053,2878,8
1789468371.057733,2121,2879,8
1789468371.06003,2128,2880,8
1789468371.062571,2205,2880,8
1789468371.063858,2111,2882,8
1789468371.066417,2097,2880,8
1789468371.067709,2101,2880,8
1789468371.070008,2174,2880,8
1789468371.072315,2037,2880,8
1789468371.073602,1999,2877,8
1789468371.076122,1996,2878,8
1789468371.079607,2171,2880,8
1789468371.079638,1855,2879,8
1789468371.082751,1829,2877,8
1789468371.0841842,2204,2880,8
1789468371.0859442,2031,2879,8
1789468371.087557,2702,2880,8
1789468371.0900302,2240,2880,8
1789468371.091817,1797,2877,8
1789468371.0941849,2042,2879,8
1789468371.095474,2529,2881,8
1789468371.101943,2241,2879,8
1789468371.102293,2233,2879,8
1789468371.104917,2203,2878,8
1789468371.1054971,1830,2877,8
1789468371.106155,2209,2879,8
1789468371.108355,2577,2882,8
1789468371.110646,1356,2878,8
1789468371.1124449,1493,2878,8
1789468371.113492,2946,2881,8
1789468371.1159081,2440,2881,8
1789468371.118201,1903,2879,8
1789468371.120283,1769,2877,8
1789468371.121429,2185,2879,8
1789468371.1234848,2385,2880,8
1789468371.126027,1995,2878,8
1789468371.128366,2097,2879,8
1789468371.129436,2478,2881,8
1789468371.131739,2053,2879,8
1789468371.13403,1821,2877,8
1789468371.1363258,1539,2877,8
1789468371.1376169,1997,2878,8
1789468371.139916,3033,2882,8
1789468371.142208,2346,2880,8
1789468371.143494,1611,2876,8
1789468371.145544,2252,2880,8
1789468371.147848,1956,2878,8
1789468371.150147,1333,2878,8
1789468371.1524448,2447,2880,8
1789468371.153729,3119,2882,8
1789468371.15627,1986,2879,8
1789468371.157471,1975,2880,8
1789468371.159768,2108,2879,8
1789468371.165556,1828,2877,8
1789468371.1659598,2135,2879,8
1789468371.166027,2220,2879,8
1789468371.167901,2149,2879,8
1789468371.170732,1706,2876,8
1789468371.17229,1685,2877,8
1789468371.174766,1721,2877,8
1789468371.1766222,2117,2879,8
1789468371.177665,2604,2882,8
1789468371.180091,2010,2877,8
1789468371.181429,2321,2880,8
1789468371.186503,1919,2877,8
1789468371.1868742,2162,2880,8
1789468371.1884181,1888,2876,8
1789468371.189901,2094,2880,8
1789468371.192535,2199,2879,8
1789468371.194911,1645,2877,8
1789468371.196697,1676,2877,8
1789468371.197988,2316,2880,8
1789468371.200427,2550,2881,8
1789468371.20148,2422,2881,8
1789468371.2038221,1568,2877,8
1789468371.205906,1612,2878,8
1789468371.207968,1892,2878,8
1789468371.2105112,2500,2880,8
1789468371.211554,2601,2880,8
1789468371.2137852,1606,2878,8
1789468371.2158341,1891,2878,8
1789468371.2183769,1866,2878,8
1789468371.2206862,1951,2878,8
1789468371.221972,2268,2881,8
1789468371.22428,1515,2877,8
1789468371.225566,2030,2879,8
1789468371.22796,2301,2879,8
1789468371.2305028,1926,2878,8
1789468371.231544,1659,2878,8
1789468371.234105,2127,2878,8
1789468371.2366562,2218,2880,8
1789468371.237946,1070,2876,8
1789468371.2402382,1668,2877,8
1789468371.241525,3240,2883,8
1789468371.2440379,2306,2878,8
1789468371.250548,1534,2875,8
1789468371.25062,920,2877,8
1789468371.251004,2321,2878,8
1789468371.252595,2463,2881,8
1789468371.254272,1933,2877,8
1789468371.256976,1971,2877,8
1789468371.2594292,1918,2879,8
1789468371.261285,1361,2876,8
1789468371.262579,1704,2877,8
1789468371.2638662,2273,2880,8
1789468371.2659268,1955,2877,8
1789468371.270586,2075,2877,8
1789468371.2709482,2170,2880,8
1789468371.2727711,1992,2876,8
1789468371.273985,2089,2880,8
1789468371.276871,1907,2876,8
1789468371.2792919,1366,2876,8
1789468371.28093,2247,2880,8
1789468371.2819772,2009,2877,8
1789468371.284281,1991,2877,8
1789468371.285565,2202,2881,8
1789468371.2878962,1543,2876,8
1789468371.290454,2272,2880,8
1789468371.2917418,2112,2879,8
1789468371.2940428,2042,2876,8
1789468371.296136,2098,2880,8
1789468371.298581,2008,2879,8
1789468371.2998662,1942,2878,8
1789468371.30241,2010,2878,8
1789468371.303694,1838,2877,8
1789468371.3059871,2038,2879,8
1789468371.308533,1463,2877,8
1789468371.3098218,1856,2876,8
1789468371.312365,1377,2877,8
1789468371.314501,2881,2882,8
1789468371.3155599,3209,2883,8
1789468371.317872,1466,2877,8
1789468371.320174,1992,2878,8
1789468371.3227599,2232,2880,8
1789468371.324045,2336,2881,8
1789468371.326346,1599,2877,8
1789468371.328643,1501,2877,8
1789468371.32997,2461,2880,8
1789468371.333784,1374,2877,8
1789468371.334472,1337,2877,8
1789468371.336075,2165,2880,8
1789468371.338664,1812,2877,8
1789468371.340374,1494,2878,8
1789468371.342818,2347,2880,8
1789468371.344285,2799,2882,8
1789468371.3455749,1627,2876,8
1789468371.348036,2184,2879,8
1789468371.353791,1876,2878,8
1789468371.3538759,1810,2877,8
1789468371.3542578,1486,2878,8
1789468371.356126,2446,2880,8
1789468371.357999,2295,2879,8
1789468371.360399,1784,2877,8
1789468371.362914,1741,2877,8
1789468371.364303,2056,2879,8
1789468371.366427,2279,2880,8
1789468371.3677142,1806,2878,8
1789468371.370265,1887,2877,8
1789468371.3715851,2147,2881,8
1789468371.3741398,2280,2880,8
1789468371.3766851,1719,2876,8
1789468371.377881,2012,2879,8
1789468371.3804271,2179,2880,8
1789468371.381712,1653,2877,8
1789468371.383925,2007,2878,8
1789468371.3862321,2396,2881,8
1789468371.388287,1837,2876,8
1789468371.3895779,2080,2879,8
1789468371.392121,2125,2880,8
1789468371.394419,565,2876,8
1789468371.3967419,2273,2880,8
1789468371.397782,3248,2883,8
1789468371.400078,1961,2879,8
1789468371.402328,2338,2881,8
1789468371.404402,2116,2880,8
1789468371.40672,1835,2878,8
1789468371.4077718,2450,2879,8
1789468371.410314,2035,2877,8
1789468371.4115992,1583,2878,8
1789468371.418002,1583,2877,8
1789468371.418419,2166,2880,8
1789468371.418764,2581,2880,8
1789468371.420188,1662,2876,8
1789468371.4228008,2274,2881,8
1789468371.4245172,1569,2878,8
1789468371.427289,2599,2880,8
1789468371.4287539,3113,2883,8
1789468371.43032,1890,2876,8
1789468371.432621,1605,2876,8
1789468371.433671,2082,2879,8
1789468371.438071,2319,2880,8
1789468371.438428,1727,2876,8
1789468371.4401002,1984,2878,8
1789468371.4429922,2221,2880,8
1789468371.444434,2156,2880,8
1789468371.447032,2258,2880,8
1789468371.448695,2068,2879,8
1789468371.449989,1539,2877,8
1789468371.452042,1680,2879,8
1789468371.454587,2358,2881,8
1789468371.4558132,2398,2880,8
1789468371.4583402,2024,2880,8
1789468371.459627,1238,2877,8
1789468371.4617321,3462,2884,8
1789468371.464273,2887,2882,8
1789468371.4668128,1677,2878,8
1789468371.467872,1657,2879,8
1789468371.4704142,2500,2881,8
1789468371.471699,1587,2877,8
1789468371.474108,2235,2880,8
1789468371.476405,2377,2880,8
1789468371.4776902,1859,2879,8
1789468371.4802299,1651,2877,8
1789468371.482771,2158,2880,8
1789468371.484062,2280,2881,8
1789468371.486361,2140,2877,8
1789468371.487697,1967,2878,8
1789468371.489943,2506,2880,8
1789468371.492488,2194,2880,8
1789468371.493778,1917,2877,8
1789468371.496143,1513,2877,8
1789468371.503021,2372,2879,8
1789468371.503377,2167,2880,8
1789468371.504364,1856,2877,8
1789468371.5045,2902,2883,8
1789468371.50614,2224,2879,8
1789468371.5089111,1178,2877,8
1789468371.511824,2748,2880,8
1789468371.511947,2158,2878,8
1789468371.514283,2325,2880,8
1789468371.5168588,2321,2880,8
1789468371.5181508,1859,2878,8
1789468371.522676,1405,2877,8
1789468371.523042,2138,2878,8
1789468371.524575,2492,2881,8
1789468371.5264351,2984,2882,8
1789468371.528866,1736,2876,8
1789468371.5317278,1587,2878,8
1789468371.5318131,2422,2881,8
1789468371.5344572,2701,2881,8
1789468371.536754,2045,2878,8
1789468371.5377972,2333,2881,8
1789468371.5398998,2014,2877,8
1789468371.54246,2024,2877,8
1789468371.544771,2779,2881,8
1789468371.545821,1428,2877,8
1789468371.548362,1968,2878,8
1789468371.5504398,2790,2880,8
1789468371.552747,2508,2881,8
1789468371.554034,1722,2877,8
1789468371.556096,2035,2878,8
1789468371.558388,1858,2878,8
1789468371.5596879,2681,2882,8
1789468371.561741,1835,2877,8
1789468371.563908,1713,2877,8
1789468371.566207,2097,2879,8
1789468371.568501,2868,2882,8
1789468371.569691,2228,2880,8
1789468371.571757,1616,2878,8
1789468371.57406,2330,2881,8
1789468371.576115,2680,2882,8
1789468371.5781791,1726,2878,8
1789468371.580721,1238,2878,8
1789468371.581912,3393,2883,8
1789468371.586627,2084,2880,8
1789468371.586986,907,2876,8
1789468371.588811,2906,2882,8
1789468371.5905302,2660,2881,8
1789468371.592175,2166,2880,8
1789468371.596457,1990,2878,8
1789468371.596917,2083,2877,8
1789468371.598664,2141,2876,8
1789468371.599999,1760,2877,8
1789468371.602887,1924,2877,8
1789468371.604224,1948,2879,8
1789468371.609316,1787,2876,8
1789468371.6098099,2757,2880,8
1789468371.611706,1887,2877,8
1789468371.611861,1771,2878,8
1789468371.6145768,2305,2880,8
1789468371.6164322,1397,2878,8
1789468371.619672,2775,2880,8
1789468371.619838,2895,2882,8
1789468371.622626,2134,2880,8
1789468371.623969,1853,2876,8
1789468371.626272,2184,2880,8
1789468371.628382,2032,2879,8
1789468371.63044,2343,2881,8
1789468371.6317272,1730,2877,8
1789468371.634094,1729,2878,8
1789468371.636637,1921,2876,8
1789468371.637923,2756,2882,8
1789468371.6404648,2065,2879,8
1789468371.641748,730,2877,8
1789468371.644292,3131,2882,8
1789468371.646589,2819,2883,8
1789468371.647874,2237,2880,8
1789468371.6504161,2072,2878,8
1789468371.6517,1392,2877,8
1789468371.654242,1759,2878,8
1789468371.656783,2154,2880,8
1789468371.657821,2327,2880,8
1789468371.660362,1688,2876,8
1789468371.6626549,2467,2880,8
1789468371.6636999,1991,2877,8
1789468371.666241,2539,2880,8
1789468371.668781,2249,2880,8
1789468371.6700659,2129,2881,8
1789468371.674937,2418,2880,8
1789468371.675348,1887,2877,8
1789468371.677206,1683,2877,8
1789468371.6791391,1606,2877,8
1789468371.680619,2091,2877,8
1789468371.685078,1814,2877,8
1789468371.685259,2117,2880,8
1789468371.6869671,2458,2880,8
1789468371.688274,2115,2878,8
1789468371.6896992,2000,2879,8
1789468371.6921742,2525,2880,8
1789468371.696977,2116,2880,8
1789468371.697103,2433,2880,8
1789468371.699122,2397,2880,8
1789468371.701034,1835,2878,8
1789468371.703638,2012,2877,8
1789468371.707011,1980,2877,8
1789468371.707239,2046,2879,8
1789468371.708988,2348,2881,8
1789468371.710282,1891,2877,8
1789468371.712596,1514,2878,8
1789468371.71389,2271,2880,8
1789468371.716052,1892,2878,8
1789468371.7186089,1288,2877,8
1789468371.7197928,2067,2878,8
1789468371.7221,2464,2881,8
1789468371.7244081,3035,2882,8
1789468371.725682,2353,2879,8
1789468371.7279859,1450,2877,8
1789468371.730529,2266,2878,8
1789468371.731828,2672,2882,8
1789468371.734144,1588,2878,8
1789468371.736695,2373,2881,8
1789468371.737889,2213,2879,8
1789468371.7402089,1307,2876,8
1789468371.742513,2167,2880,8
1789468371.744823,1422,2875,8
1789468371.746109,1715,2876,8
1789468371.748657,2960,2881,8
1789468371.749814,2649,2881,8
1789468371.752118,1742,2877,8
1789468371.754436,1796,2877,8
