timestamp,ch1,ch2,label
1789467768.79048,2063,2878,e
1789467768.790514,2027,2878,e
1789467768.79231,2078,2879,e
1789467768.79409,2124,2881,e
1789467768.796044,1943,2876,e
1789467768.798348,1924,2879,e
1789467768.801006,2105,2882,e
1789467768.801041,2084,2879,e
1789467768.8033438,2161,2879,e
1789467768.805665,2100,2879,e
1789467768.806966,1989,2879,e
1789467768.809288,2103,2880,e
1789467768.81163,2294,2880,e
1789467768.812984,2074,2878,e
1789467768.8152971,2079,2878,e
1789467768.817837,2060,2878,e
1789467768.818976,2114,2878,e
1789467768.821527,2083,2877,e
1789467768.822937,2063,2878,e
1789467768.825234,2062,2879,e
1789467768.827755,2015,2878,e
1789467768.832109,2043,2877,e
1789467768.832604,2091,2879,e
1789467768.834969,2164,2880,e
1789467768.8352032,2070,2879,e
1789467768.838336,1906,2876,e
1789467768.840342,1995,2877,e
1789467768.84213,2136,2881,e
1789467768.8434198,1974,2877,e
1789467768.8457322,2094,2877,e
1789467768.8470342,2120,2881,e
1789467768.849101,2144,2881,e
1789467768.851413,2042,2879,e
1789467768.853719,2121,2879,e
1789467768.855007,2278,2880,e
1789467768.857545,1990,2876,e
1789467768.8600829,2156,2881,e
1789467768.861235,2090,2879,e
1789467768.8636968,2014,2878,e
1789467768.8649821,2107,2880,e
1789467768.867307,2154,2879,e
1789467768.869864,2032,2880,e
1789467768.8736372,1998,2880,e
1789467768.873743,2066,2880,e
1789467768.8758411,1941,2877,e
1789467768.877877,1964,2878,e
1789467768.880116,2042,2879,e
1789467768.8826518,2008,2878,e
1789467768.88395,2002,2877,e
1789467768.885035,2237,2880,e
1789467768.887605,2087,2878,e
1789467768.8889458,2048,2880,e
1789467768.891258,2189,2880,e
1789467768.893364,2117,2880,e
1789467768.895678,2059,2878,e
1789467768.8977711,2190,2880,e
1789467768.898916,2086,2880,e
1789467768.901224,2137,2880,e
1789467768.9037702,2048,2878,e
1789467768.905055,2046,2879,e
1789467768.907349,1926,2877,e
1789467768.912113,1964,2877,e
1789467768.912488,2057,2879,e
1789467768.914381,2217,2880,e
1789467768.916092,2132,2880,e
1789467768.918987,2097,2879,e
1789467768.919107,2055,2879,e
1789467768.921195,2108,2878,e
1789467768.923753,2097,2879,e
1789467768.925044,2082,2877,e
1789467768.927348,2154,2881,e
1789467768.929586,1993,2878,e
1789467768.93188,2047,2877,e
1789467768.933172,2160,2879,e
1789467768.935717,1996,2879,e
1789467768.9377751,2080,2879,e
1789467768.9389272,2095,2879,e
1789467768.941226,2209,2880,e
1789467768.943538,2136,2879,e
1789467768.945597,2021,2879,e
1789467768.946885,1988,2878,e
1789467768.9523919,2047,2877,e
1789467768.952828,2055,2880,e
1789467768.9529312,2038,2878,e
1789467768.956117,2000,2878,e
1789467768.9579608,2018,2879,e
1789467768.9599779,2086,2880,e
1789467768.961895,2047,2878,e
1789467768.963203,2131,2882,e
1789467768.965581,2114,2881,e
1789467768.967893,2089,2879,e
1789467768.9689522,2105,2878,e
1789467768.9712589,2020,2880,e
1789467768.973941,2095,2879,e
1789467768.97522,2136,2880,e
1789467768.97753,2086,2880,e
1789467768.9795892,2007,2878,e
1789467768.98089,2039,2877,e
1789467768.983437,2035,2878,e
1789467768.985989,2020,2877,e
1789467768.9872792,2160,2879,e
1789467768.9898639,2121,2879,e
1789467768.993877,2105,2879,e
1789467768.994262,2038,2876,e
1789467768.996288,2043,2878,e
1789467768.997823,2074,2879,e
1789467768.999437,2122,2881,e
1789467769.0010948,2176,2878,e
1789467769.003236,2023,2878,e
1789467769.005574,2019,2879,e
1789467769.006969,2084,2879,e
1789467769.00929,2090,2879,e
1789467769.014754,2054,2878,e
1789467769.014886,2040,2878,e
1789467769.015295,2115,2880,e
1789467769.017236,2201,2880,e
1789467769.021682,2018,2878,e
1789467769.023272,1922,2877,e
1789467769.024939,2139,2880,e
1789467769.025106,2093,2880,e
1789467769.027583,2095,2880,e
1789467769.029897,2110,2881,e
1789467769.030944,2016,2877,e
1789467769.0333061,2086,2880,e
1789467769.035669,2042,2881,e
1789467769.036961,1914,2877,e
1789467769.039267,2291,2880,e
1789467769.041814,2188,2880,e
1789467769.042867,1919,2878,e
1789467769.045003,1940,2877,e
1789467769.047074,2246,2880,e
1789467769.049387,2227,2881,e
1789467769.0516999,2175,2880,e
1789467769.056612,2138,2879,e
1789467769.0571551,2102,2879,e
1789467769.0576751,2115,2879,e
1789467769.059343,2021,2879,e
1789467769.0618849,2051,2877,e
1789467769.063071,2083,2878,e
1789467769.0650392,2090,2877,e
1789467769.067559,1981,2878,e
1789467769.0688472,1990,2877,e
1789467769.0718331,2028,2880,e
1789467769.07292,2037,2878,e
1789467769.076205,2094,2879,e
1789467769.078229,1960,2877,e
1789467769.0797062,1899,2878,e
1789467769.081346,2246,2881,e
1789467769.0850408,2262,2881,e
1789467769.0855958,2124,2879,e
1789467769.088007,2099,2879,e
1789467769.08922,2115,2879,e
1789467769.091785,1980,2877,e
1789467769.0930939,2109,2878,e
1789467769.095402,2019,2879,e
1789467769.097945,2103,2877,e
1789467769.099231,2110,2880,e
1789467769.101534,2031,2879,e
1789467769.102855,2032,2878,e
1789467769.105254,2084,2879,e
1789467769.107929,2029,2877,e
1789467769.109143,1944,2878,e
1789467769.111694,2232,2882,e
1789467769.116197,2071,2878,e
1789467769.116726,2103,2879,e
1789467769.117582,2078,2879,e
1789467769.120089,2043,2880,e
1789467769.122956,2033,2879,e
1789467769.123134,2096,2880,e
1789467769.125914,2074,2878,e
1789467769.127223,1958,2879,e
1789467769.12949,2006,2879,e
1789467769.130784,2189,2880,e
1789467769.1331148,2166,2879,e
1789467769.1353989,2118,2880,e
1789467769.137708,2079,2878,e
1789467769.1388118,2131,2880,e
1789467769.140878,2187,2880,e
1789467769.143421,2021,2878,e
1789467769.1448479,2085,2878,e
1789467769.1473951,2082,2878,e
1789467769.1497102,1903,2878,e
1789467769.1510038,2166,2880,e
1789467769.1534579,2101,2879,e
1789467769.159002,2060,2878,e
1789467769.1594381,2102,2879,e
1789467769.16022,2111,2877,e
1789467769.162453,2032,2880,e
1789467769.164278,2045,2879,e
1789467769.165882,2115,2879,e
1789467769.16886,2089,2879,e
1789467769.169107,2035,2877,e
1789467769.171666,2028,2878,e
1789467769.172929,2182,2879,e
1789467769.178217,2094,2880,e
1789467769.1789792,1936,2878,e
1789467769.179795,1988,2879,e
1789467769.1821141,2158,2881,e
1789467769.184017,2214,2878,e
1789467769.185257,1921,2876,e
1789467769.1875882,1963,2879,e
1789467769.1890078,2046,2880,e
1789467769.191245,2252,2879,e
1789467769.193428,2148,2879,e
1789467769.19574,1981,2878,e
1789467769.197032,2114,2878,e
1789467769.199337,2217,2880,e
1789467769.20172,2119,2879,e
1789467769.203027,2035,2879,e
1789467769.205327,2076,2879,e
1789467769.207683,2077,2879,e
1789467769.208978,2117,2879,e
1789467769.211296,2032,2877,e
1789467769.216827,2038,2879,e
1789467769.216913,2101,2878,e
1789467769.217431,2002,2878,e
1789467769.219328,1995,2879,e
1789467769.22354,1980,2877,e
1789467769.223714,2078,2878,e
1789467769.2249012,2024,2877,e
1789467769.2274802,2024,2878,e
1789467769.22976,2164,2881,e
1789467769.230803,2103,2877,e
1789467769.233365,2102,2880,e
1789467769.2354891,2170,2879,e
1789467769.2377899,2057,2880,e
1789467769.239079,2029,2879,e
1789467769.2414038,2106,2879,e
1789467769.243712,2100,2881,e
1789467769.2450078,2031,2878,e
1789467769.247552,2005,2879,e
1789467769.24879,2236,2880,e
1789467769.251092,2119,2879,e
1789467769.255958,1998,2879,e
1789467769.2560508,2042,2879,e
1789467769.25761,2078,2879,e
1789467769.2597299,2111,2878,e
1789467769.262033,2090,2877,e
1789467769.264631,2022,2879,e
1789467769.265941,2098,2880,e
1789467769.2672262,2149,2879,e
1789467769.26954,1922,2877,e
1789467769.271869,2083,2879,e
1789467769.273053,2154,2879,e
1789467769.275368,2089,2879,e
1789467769.2767758,2064,2877,e
1789467769.279078,2013,2878,e
1789467769.281384,2057,2879,e
1789467769.283682,2231,2880,e
1789467769.284854,2069,2880,e
1789467769.2871602,2063,2878,e
1789467769.289702,2068,2878,e
1789467769.2943082,2051,2879,e
1789467769.295081,1964,2879,e
1789467769.295866,1982,2877,e
1789467769.298099,2163,2880,e
1789467769.299592,2144,2880,e
1789467769.3013382,2079,2878,e
1789467769.304197,2071,2879,e
1789467769.305239,2063,2880,e
1789467769.307797,2082,2879,e
1789467769.309091,2067,2877,e
1789467769.3116338,2048,2878,e
1789467769.312743,2124,2880,e
1789467769.315285,2056,2876,e
1789467769.317825,2024,2878,e
1789467769.318871,1964,2877,e
1789467769.3209221,2139,2878,e
1789467769.323225,1977,2877,e
1789467769.325529,2140,2880,e
1789467769.326817,2229,2880,e
1789467769.32888,2001,2878,e
1789467769.333604,2038,2877,e
1789467769.334226,2102,2879,e
1789467769.335577,2130,2879,e
1789467769.3374789,2100,2879,e
1789467769.3398578,2106,2879,e
1789467769.341215,2103,2879,e
1789467769.343446,2081,2879,e
1789467769.344735,2085,2876,e
1789467769.347283,2092,2878,e
1789467769.3496609,2103,2879,e
1789467769.350828,2085,2879,e
1789467769.35313,2012,2879,e
1789467769.3552709,2046,2878,e
1789467769.3578188,2027,2880,e
1789467769.359106,2078,2879,e
1789467769.3616462,1996,2877,e
1789467769.362732,2130,2881,e
1789467769.365272,2131,2881,e
1789467769.3678122,2093,2879,e
1789467769.371785,2063,2879,e
1789467769.372236,1997,2876,e
1789467769.373983,1955,2876,e
1789467769.375472,2108,2880,e
1789467769.3781881,2180,2879,e
1789467769.3794649,2169,2880,e
1789467769.381155,2059,2879,e
1789467769.38346,2087,2879,e
1789467769.384747,2146,2879,e
1789467769.387059,2043,2879,e
1789467769.389604,2106,2880,e
1789467769.390786,2080,2879,e
1789467769.393086,2014,2877,e
1789467769.3953779,2101,2881,e
1789467769.397673,2072,2879,e
1789467769.398713,2042,2878,e
1789467769.401013,2073,2879,e
1789467769.403303,2158,2879,e
1789467769.405819,2132,2880,e
1789467769.4073222,2065,2881,e
1789467769.410847,2008,2877,e
1789467769.4115462,2057,2877,e
1789467769.413067,2006,2878,e
1789467769.4158552,1869,2877,e
1789467769.417262,1996,2877,e
1789467769.41995,2264,2879,e
1789467769.4212701,2066,2879,e
1789467769.4229472,2113,2879,e
1789467769.425518,2154,2879,e
1789467769.426808,2043,2878,e
1789467769.4291022,2179,2881,e
1789467769.431177,2156,2880,e
1789467769.433731,2118,2881,e
1789467769.43502,2047,2878,e
1789467769.437521,2020,2880,e
1789467769.438947,2068,2879,e
1789467769.4412632,2071,2879,e
1789467769.443838,2168,2880,e
1789467769.445122,2106,2880,e
1789467769.449898,2021,2877,e
1789467769.450009,2084,2878,e
1789467769.452499,2105,2880,e
1789467769.4543529,2138,2879,e
1789467769.455724,2108,2879,e
1789467769.457165,1945,2878,e
1789467769.460333,2000,2878,e
1789467769.461382,2014,2878,e
1789467769.462703,2027,2877,e
1789467769.4650161,2047,2877,e
1789467769.467337,2003,2878,e
1789467769.468735,2022,2878,e
1789467769.470796,2095,2878,e
1789467769.4733388,2113,2878,e
1789467769.475508,2148,2879,e
1789467769.476795,2055,2878,e
1789467769.479337,2097,2878,e
1789467769.4806468,2104,2878,e
1789467769.483189,2104,2881,e
1789467769.4854221,2090,2880,e
1789467769.4877598,1988,2876,e
1789467769.490976,2152,2879,e
1789467769.491703,2079,2880,e
1789467769.493551,2038,2877,e
1789467769.495115,2007,2879,e
1789467769.497741,1981,2879,e
1789467769.499237,2245,2882,e
1789467769.5011148,2242,2879,e
1789467769.5034182,2111,2879,e
1789467769.505475,2021,2879,e
1789467769.506782,2059,2878,e
1789467769.508851,2096,2880,e
1789467769.511277,2072,2879,e
1789467769.513345,2070,2879,e
1789467769.5146759,2085,2878,e
1789467769.516793,2068,2879,e
1789467769.518843,2074,2878,e
1789467769.520894,2045,2878,e
1789467769.522957,2045,2879,e
1789467769.525522,2093,2879,e
1789467769.5268219,2063,2877,e
1789467769.5325341,2049,2879,e
1789467769.532968,2092,2879,e
1789467769.533398,2108,2880,e
1789467769.535902,2069,2878,e
1789467769.5377002,2067,2879,e
1789467769.539281,2052,2878,e
1789467769.540687,2104,2879,e
1789467769.5434308,2077,2878,e
1789467769.545532,2049,2878,e
1789467769.5468218,2071,2878,e
1789467769.549126,2094,2880,e
1789467769.5516748,2093,2878,e
1789467769.5529659,2069,2878,e
1789467769.555089,2063,2877,e
1789467769.557633,2087,2878,e
1789467769.5589209,2090,2880,e
1789467769.560991,2047,2877,e
1789467769.563537,2066,2878,e
1789467769.564694,2086,2877,e
1789467769.567262,2105,2879,e
1789467769.573646,2036,2879,e
1789467769.5737522,2062,2878,e
1789467769.5755808,2092,2877,e
1789467769.575744,2014,2877,e
1789467769.577494,2131,2879,e
1789467769.579204,2228,2881,e
1789467769.582032,2115,2879,e
1789467769.583606,1840,2877,e
1789467769.584696,1867,2877,e
1789467769.586818,2219,2879,e
1789467769.589003,2239,2879,e
1789467769.591326,2051,2879,e
1789467769.593386,2168,2878,e
1789467769.5957491,2016,2878,e
1789467769.596815,1531,2877,e
1789467769.5991192,1879,2878,e
1789467769.601675,3245,2883,e
1789467769.602722,1695,2876,e
1789467769.6050172,1833,2876,e
1789467769.6075451,2690,2880,e
1789467769.608694,2018,2879,e
1789467769.6109362,1931,2878,e
1789467769.615083,1986,2878,e
1789467769.616073,2237,2880,e
1789467769.61836,2179,2880,e
1789467769.61994,1133,2877,e
1789467769.6218948,2161,2878,e
1789467769.623598,3101,2882,e
1789467769.625429,1903,2880,e
1789467769.627511,1272,2877,e
1789467769.628809,2392,2881,e
1789467769.6311529,2521,2881,e
1789467769.633318,2305,2879,e
1789467769.634619,2136,2880,e
1789467769.637165,2049,2880,e
1789467769.639672,2016,2878,e
1789467769.640966,1938,2876,e
1789467769.6435142,2183,2881,e
1789467769.644707,1784,2878,e
1789467769.64676,1733,2877,e
1789467769.649062,2297,2880,e
1789467769.651277,2172,2878,e
1789467769.65358,1434,2876,e
1789467769.654625,2358,2880,e
1789467769.658745,1991,2880,e
1789467769.6591492,1787,2876,e
1789467769.661129,2634,2881,e
1789467769.663656,2268,2880,e
1789467769.666144,1989,2878,e
1789467769.667855,1795,2877,e
1789467769.66991,2419,2881,e
1789467769.670968,1920,2876,e
1789467769.6732821,1752,2877,e
1789467769.675584,2068,2879,e
1789467769.676886,2039,2879,e
1789467769.6792269,1804,2877,e
1789467769.681529,1911,2878,e
1789467769.6825721,2331,2880,e
1789467769.684632,1921,2877,e
1789467769.68682,1707,2876,e
1789467769.68912,2315,2881,e
1789467769.6914299,1607,2877,e
1789467769.692599,2207,2879,e
1789467769.6951418,2616,2880,e
1789467769.697255,2016,2877,e
1789467769.701694,2195,2880,e
1789467769.701789,2127,2877,e
1789467769.703846,1895,2878,e
1789467769.705547,1993,2878,e
1789467769.706955,1638,2876,e
1789467769.710347,1702,2876,e
1789467769.712304,2815,2881,e
1789467769.7135968,1453,2877,e
1789467769.714887,1356,2876,e
1789467769.717199,2593,2881,e
1789467769.7197812,2245,2880,e
1789467769.721071,1745,2877,e
1789467769.723369,1555,2877,e
1789467769.725912,1764,2877,e
1789467769.7272,2461,2879,e
1789467769.7297869,1734,2876,e
1789467769.730849,1776,2877,e
1789467769.733397,2277,2880,e
1789467769.734686,1772,2877,e
1789467769.737003,2363,2881,e
1789467769.740458,2113,2877,e
1789467769.740569,1876,2878,e
1789467769.743118,1613,2877,e
1789467769.748118,2105,2880,e
1789467769.748841,1888,2877,e
1789467769.749353,1792,2877,e
1789467769.7523289,1901,2876,e
1789467769.754158,1793,2877,e
1789467769.7555158,1787,2879,e
1789467769.7577689,1526,2878,e
1789467769.759695,1515,2878,e
1789467769.7610009,1276,2877,e
1789467769.763576,1392,2877,e
1789467769.764701,3126,2882,e
1789467769.7670221,2583,2881,e
1789467769.769325,1842,2880,e
1789467769.771595,1580,2878,e
1789467769.772653,2013,2878,e
1789467769.775039,2415,2879,e
1789467769.7773619,1834,2878,e
1789467769.778662,1200,2878,e
1789467769.7808378,1613,2876,e
1789467769.7831402,2070,2879,e
1789467769.7855701,2091,2879,e
1789467769.786865,1645,2877,e
1789467769.791695,1175,2877,e
1789467769.7921898,1938,2879,e
1789467769.794303,1939,2878,e
1789467769.795739,2250,2880,e
1789467769.797676,2262,2880,e
1789467769.799274,1555,2876,e
1789467769.8016279,1786,2878,e
1789467769.8036008,1623,2877,e
1789467769.804897,1886,2878,e
1789467769.8069608,2666,2881,e
1789467769.8092742,1979,2878,e
1789467769.811589,1329,2877,e
1789467769.812885,1747,2878,e
1789467769.815108,1327,2877,e
1789467769.817191,2126,2879,e
1789467769.819401,1696,2878,e
1789467769.820529,1469,2877,e
1789467769.823085,1962,2879,e
1789467769.8245142,2184,2877,e
1789467769.8266659,1947,2877,e
1789467769.8288598,2128,2878,e
1789467769.831164,1759,2877,e
1789467769.836549,1533,2878,e
1789467769.837611,1146,2877,e
1789467769.838059,1969,2876,e
1789467769.84034,981,2877,e
1789467769.841957,2781,2882,e
1789467769.8444648,2115,2879,e
1789467769.844597,1912,2877,e
1789467769.846824,1812,2878,e
1789467769.849695,1671,2878,e
1789467769.8509939,1537,2877,e
1789467769.853375,2109,2878,e
1789467769.854524,1873,2876,e
1789467769.8565881,1896,2878,e
1789467769.859092,1800,2876,e
1789467769.861401,1751,2877,e
1789467769.8626912,1615,2877,e
1789467769.865236,1060,2877,e
1789467769.866505,2009,2877,e
1789467769.8690639,2959,2881,e
1789467769.871613,2639,2880,e
1789467769.8729029,1521,2877,e
1789467769.8754518,1193,2878,e
1789467769.8766458,2043,2878,e
1789467769.8824582,1843,2878,e
1789467769.88325,1858,2877,e
1789467769.8847702,1398,2877,e
1789467769.884938,2060,2880,e
1789467769.8880682,1133,2876,e
1789467769.889622,1650,2877,e
1789467769.891924,2265,2880,e
1789467769.893472,2006,2879,e
1789467769.8945332,1341,2877,e
1789467769.897391,1392,2878,e
1789467769.898678,2813,2881,e
1789467769.90293,2374,2881,e
1789467769.903695,2129,2880,e
1789467769.906632,2136,2880,e
1789467769.90734,1893,2880,e
1789467769.909761,1273,2877,e
1789467769.912107,886,2877,e
1789467769.913931,2057,2878,e
1789467769.915224,2735,2882,e
1789467769.9165142,1446,2877,e
1789467769.918829,2083,2879,e
1789467769.921382,1850,2878,e
1789467769.922493,1788,2876,e
1789467769.924972,2172,2877,e
1789467769.927514,3101,2883,e
1789467769.928802,2444,2881,e
1789467769.9308622,2279,2879,e
1789467769.933162,1909,2875,e
1789467769.934497,1811,2877,e
1789467769.936926,2115,2879,e
1789467769.9392278,1818,2876,e
1789467769.941536,2292,2880,e
1789467769.9454741,1555,2876,e
1789467769.945923,1666,2877,e
1789467769.947984,3911,2884,e
1789467769.949642,2207,2880,e
1789467769.952686,1300,2877,e
1789467769.9528189,2155,2880,e
1789467769.955338,2464,2881,e
1789467769.956884,2249,2880,e
1789467769.959431,2501,2881,e
1789467769.960722,2249,2879,e
1789467769.962794,1863,2877,e
1789467769.9650939,2184,2880,e
1789467769.967649,2114,2880,e
1789467769.9687,1440,2877,e
1789467769.971009,2408,2881,e
1789467769.973088,2573,2881,e
1789467769.974445,1682,2876,e
1789467769.976994,1524,2879,e
1789467769.9795148,1993,2878,e
1789467769.9808059,2940,2882,e
1789467769.983348,2247,2879,e
1789467769.9844968,2017,2879,e
1789467769.988977,2102,2879,e
1789467769.989429,2331,2880,e
1789467769.991224,2171,2881,e
1789467769.9926589,2089,2877,e
1789467769.9958389,1784,2878,e
1789467769.9984782,2115,2878,e
1789467769.998593,2445,2881,e
1789467770.001346,1849,2876,e
1789467770.002501,1812,2877,e
1789467770.005047,1895,2877,e
1789467770.007442,1949,2878,e
1789467770.008736,2563,2881,e
1789467770.011282,2847,2881,e
1789467770.0125701,1806,2877,e
1789467770.014865,2359,2880,e
1789467770.017167,2684,2881,e
1789467770.019469,1656,2877,e
1789467770.020515,1414,2878,e
1789467770.023078,2070,2878,e
1789467770.025404,2733,2882,e
1789467770.026456,2312,2880,e
1789467770.032379,1627,2878,e
1789467770.033603,1352,2877,e
1789467770.035071,1846,2878,e
1789467770.0351381,2478,2880,e
1789467770.037,2668,2881,e
1789467770.038514,2192,2879,e
1789467770.0431108,1770,2877,e
1789467770.043185,1586,2877,e
1789467770.045185,2852,2881,e
1789467770.046481,2325,2880,e
1789467770.0488,1578,2877,e
1789467770.0523572,2024,2878,e
1789467770.0528572,2500,2881,e
1789467770.054871,2042,2877,e
1789467770.057846,2141,2881,e
1789467770.059753,2153,2880,e
1789467770.0627258,1834,2876,e
1789467770.0629382,2042,2878,e
1789467770.06478,1698,2877,e
1789467770.067102,1918,2877,e
1789467770.068396,2438,2881,e
1789467770.070713,2207,2879,e
1789467770.07311,1903,2877,e
1789467770.07554,2016,2880,e
1789467770.076875,2107,2879,e
1789467770.0791922,2424,2881,e
1789467770.080487,2297,2880,e
1789467770.083041,1924,2879,e
1789467770.085593,2502,2880,e
1789467770.086884,2207,2881,e
1789467770.0894349,1946,2877,e
1789467770.090613,1605,2877,e
1789467770.092926,2234,2880,e
1789467770.097731,2045,2878,e
1789467770.097874,2155,2880,e
1789467770.099913,2406,2880,e
1789467770.1014159,2280,2880,e
1789467770.103302,2251,2880,e
1789467770.104943,2055,2878,e
1789467770.107929,2130,2878,e
1789467770.109959,2540,2881,e
1789467770.111263,1392,2878,e
1789467770.112556,2497,2880,e
1789467770.115105,2058,2879,e
1789467770.117557,2075,2880,e
1789467770.118817,2248,2880,e
1789467770.12114,2312,2879,e
1789467770.123459,2362,2881,e
1789467770.124753,2080,2879,e
1789467770.1273,1780,2878,e
1789467770.128387,2752,2882,e
1789467770.13092,2579,2881,e
1789467770.133465,1683,2877,e
1789467770.134757,2324,2880,e
1789467770.137056,2104,2880,e
1789467770.139222,1938,2879,e
1789467770.143148,1972,2878,e
1789467770.1435342,2132,2879,e
1789467770.145181,2173,2881,e
1789467770.147014,2081,2880,e
1789467770.1499782,2558,2880,e
1789467770.152998,2299,2880,e
1789467770.153197,1971,2880,e
1789467770.154998,2074,2878,e
1789467770.157436,2291,2882,e
1789467770.158489,2493,2881,e
1789467770.161039,2066,2879,e
1789467770.1633532,1944,2877,e
1789467770.1646411,2431,2881,e
1789467770.167148,1966,2879,e
1789467770.169225,2537,2880,e
1789467770.170518,1620,2877,e
1789467770.1728199,1659,2877,e
1789467770.175029,2892,2881,e
1789467770.176383,2421,2881,e
1789467770.1785998,2059,2879,e
1789467770.180688,2106,2880,e
1789467770.1828601,1951,2878,e
1789467770.187971,2313,2879,e
1789467770.190347,2122,2880,e
1789467770.190646,2015,2878,e
1789467770.191929,2367,2880,e
1789467770.1934788,2465,2880,e
1789467770.195862,1713,2877,e
1789467770.199471,1859,2876,e
1789467770.199753,2826,2880,e
1789467770.2019231,1858,2876,e
1789467770.203237,1721,2877,e
1789467770.2044642,2320,2880,e
1789467770.209653,2232,2878,e
1789467770.21055,2250,2880,e
1789467770.212685,2121,2879,e
1789467770.22118,1865,2878,e
1789467770.221519,1749,2878,e
1789467770.223701,2236,2879,e
1789467770.224469,2768,2882,e
1789467770.224514,1535,2877,e
1789467770.2245498,1842,2877,e
1789467770.224581,2353,2880,e
1789467770.226753,2080,2876,e
1789467770.229419,1939,2878,e
1789467770.230483,2208,2879,e
1789467770.232607,2050,2880,e
1789467770.235564,2207,2880,e
1789467770.236632,2282,2880,e
1789467770.238956,2098,2879,e
1789467770.284138,1953,2878,e
1789467770.2841878,1546,2878,e
1789467770.284223,2420,2881,e
1789467770.284257,2152,2879,e
1789467770.284297,2457,2880,e
1789467770.28433,2278,2880,e
1789467770.284361,2277,2880,e
1789467770.284393,2174,2879,e
1789467770.2844238,2257,2880,e
1789467770.284456,2349,2880,e
1789467770.284487,2333,2880,e
1789467770.284518,1999,2877,e
1789467770.289315,1717,2878,e
1789467770.289442,1798,2876,e
1789467770.2895172,1938,2879,e
1789467770.289587,2184,2880,e
1789467770.2896519,1490,2877,e
1789467770.289715,2487,2879,e
1789467770.289788,2816,2883,e
1789467770.289852,1955,2877,e
1789467770.289919,2066,2880,e
1789467770.289984,2316,2880,e
1789467770.290049,2054,2878,e
1789467770.2901142,1884,2877,e
1789467770.290263,2451,2880,e
1789467770.2903428,2080,2879,e
1789467770.293013,2035,2878,e
1789467770.301096,2121,2880,e
1789467770.301137,1899,2878,e
1789467770.3011699,2197,2881,e
1789467770.301203,2498,2880,e
1789467770.302335,1930,2877,e
1789467770.305009,2318,2879,e
1789467770.310661,2134,2879,e
1789467770.311577,2062,2877,e
1789467770.312928,1614,2877,e
1789467770.3131871,2488,2881,e
1789467770.31468,2618,2880,e
1789467770.316842,1610,2878,e
1789467770.322011,1947,2876,e
1789467770.322151,2253,2880,e
1789467770.322335,2318,2881,e
1789467770.325043,2077,2878,e
1789467770.3271208,2007,2878,e
1789467770.331873,1356,2878,e
1789467770.3327072,3089,2882,e
1789467770.33499,2140,2879,e
1789467770.33533,1726,2877,e
1789467770.337329,2200,2880,e
1789467770.3390899,2309,2880,e
1789467770.340981,2140,2879,e
1789467770.3448188,2260,2881,e
1789467770.3449862,2321,2880,e
1789467770.3472588,2150,2880,e
1789467770.348577,2091,2880,e
1789467770.3509052,2080,2880,e
1789467770.353229,2017,2877,e
1789467770.354294,1865,2877,e
1789467770.3570912,2266,2880,e
1789467770.35843,2107,2880,e
1789467770.361001,2009,2876,e
1789467770.363316,2768,2882,e
1789467770.364366,2358,2880,e
1789467770.3669481,1475,2877,e
1789467770.369261,1954,2878,e
1789467770.370559,2010,2878,e
1789467770.3728828,2496,2880,e
1789467770.375194,2349,2879,e
1789467770.376492,2041,2879,e
1789467770.3788018,1910,2877,e
1789467770.3848362,2000,2876,e
1789467770.387635,2169,2879,e
1789467770.389484,2055,2877,e
1789467770.391586,2475,2880,e
1789467770.392365,2246,2879,e
1789467770.394062,2022,2878,e
1789467770.3982038,2255,2879,e
1789467770.398443,2079,2879,e
1789467770.39858,1250,2878,e
1789467770.398716,2112,2877,e
1789467770.4012501,2932,2882,e
1789467770.402377,2159,2879,e
1789467770.409158,2080,2880,e
1789467770.4096909,2055,2879,e
1789467770.410186,2022,2876,e
1789467770.411117,2208,2880,e
1789467770.4124942,2288,2880,e
1789467770.416416,1872,2878,e
1789467770.4180648,2112,2880,e
1789467770.422221,2166,2880,e
1789467770.422569,1952,2879,e
1789467770.422743,2032,2879,e
1789467770.42489,2141,2879,e
1789467770.426285,1976,2877,e
1789467770.4287958,2042,2878,e
1789467770.431364,2278,2881,e
1789467770.4324281,2292,2879,e
1789467770.4350138,2279,2880,e
1789467770.4373262,2272,2880,e
1789467770.4386072,2174,2879,e
1789467770.4409301,2067,2880,e
1789467770.442274,2132,2879,e
1789467770.4445949,2225,2880,e
1789467770.4469109,2081,2877,e
1789467770.4484391,2013,2878,e
1789467770.450955,1954,2877,e
1789467770.452306,2268,2879,e
1789467770.454805,2342,2880,e
1789467770.456884,2060,2879,e
1789467770.465745,2136,2878,e
1789467770.465941,2138,2877,e
1789467770.468502,2130,2879,e
1789467770.469554,2320,2881,e
1789467770.469725,2310,2879,e
1789467770.470208,2145,2880,e
1789467770.470996,2031,2878,e
1789467770.472565,2154,2879,e
1789467770.476782,2242,2880,e
1789467770.476948,2208,2879,e
1789467770.478822,2173,2879,e
1789467770.481385,2389,2880,e
1789467770.482441,2148,2880,e
1789467770.491333,2123,2879,e
1789467770.491507,2276,2879,e
1789467770.493834,2085,2880,e
1789467770.494379,2092,2879,e
1789467770.494928,2445,2880,e
1789467770.49576,2322,2880,e
1789467770.4979498,2172,2880,e
1789467770.502248,2230,2881,e
1789467770.502848,2196,2880,e
1789467770.505227,2155,2878,e
1789467770.505512,2133,2879,e
1789467770.506575,2122,2880,e
1789467770.5089111,2134,2879,e
1789467770.510991,2096,2880,e
1789467770.513068,2165,2879,e
1789467770.51438,2280,2880,e
1789467770.5167518,2264,2880,e
1789467770.519091,2253,2879,e
1789467770.52025,2186,2879,e
1789467770.5224519,2218,2879,e
1789467770.5250182,2250,2880,e
1789467770.5263171,2119,2880,e
1789467770.528875,2038,2877,e
1789467770.53023,2168,2880,e
1789467770.5327868,2175,2878,e
1789467770.534868,2192,2879,e
1789467770.5372028,2287,2880,e
1789467770.538608,2221,2879,e
1789467770.543052,1901,2878,e
1789467770.5436502,2144,2880,e
1789467770.5460532,2305,2879,e
1789467770.547672,2341,2879,e
1789467770.549463,2342,2880,e
1789467770.551816,2250,2879,e
1789467770.556056,2073,2878,e
1789467770.5562098,2296,2879,e
1789467770.556406,2276,2879,e
1789467770.558892,2159,2880,e
1789467770.561026,2096,2878,e
1789467770.5624042,2259,2881,e
1789467770.5666182,2206,2880,e
1789467770.567109,2249,2880,e
1789467770.569546,2102,2879,e
1789467770.5716531,2191,2878,e
1789467770.573434,2264,2881,e
1789467770.575249,2232,2880,e
1789467770.579446,2052,2877,e
1789467770.579603,1924,2877,e
1789467770.58145,2004,2877,e
1789467770.582517,2140,2879,e
1789467770.5845912,2264,2880,e
1789467770.5871592,2261,2878,e
1789467770.5885801,2254,2879,e
1789467770.5910249,2301,2880,e
1789467770.5933409,2283,2881,e
1789467770.5943942,2092,2878,e
1789467770.5968928,2240,2880,e
1789467770.598191,2075,2877,e
1789467770.6004999,1951,2877,e
1789467770.602818,1943,2880,e
1789467770.6052322,2151,2879,e
1789467770.606297,1933,2876,e
1789467770.6088169,2045,2877,e
1789467770.611136,2072,2878,e
1789467770.612437,2047,2877,e
1789467770.614992,2206,2881,e
1789467770.620885,2116,2879,e
1789467770.621959,2168,2880,e
1789467770.623515,1879,2877,e
1789467770.623678,2117,2880,e
1789467770.625789,2365,2880,e
1789467770.627601,2084,2877,e
1789467770.629628,2196,2880,e
1789467770.633794,2395,2880,e
1789467770.63402,2136,2879,e
1789467770.6361978,2327,2879,e
1789467770.636456,2434,2880,e
1789467770.63902,1591,2876,e
1789467770.6442199,2040,2877,e
1789467770.645094,2023,2877,e
1789467770.645926,2169,2879,e
1789467770.64737,2332,2879,e
1789467770.6489651,1835,2876,e
1789467770.65087,1852,2876,e
1789467770.652556,2090,2880,e
1789467770.656408,2124,2879,e
1789467770.6565812,2022,2877,e
1789467770.658725,2081,2881,e
1789467770.661283,2366,2881,e
1789467770.662337,1978,2878,e
1789467770.664889,2042,2879,e
1789467770.666185,1931,2878,e
1789467770.668501,2186,2879,e
1789467770.670568,2221,2880,e
1789467770.672757,2000,2876,e
1789467770.6748228,2028,2878,e
1789467770.67713,2092,2880,e
1789467770.678422,1701,2878,e
1789467770.680971,2495,2881,e
1789467770.6821702,2281,2880,e
1789467770.684473,2003,2879,e
1789467770.686778,1845,2876,e
1789467770.693148,1946,2879,e
1789467770.6945002,2184,2880,e
1789467770.6961331,2276,2881,e
1789467770.69633,2055,2879,e
1789467770.6964421,2010,2876,e
1789467770.699574,2032,2877,e
1789467770.7016802,1930,2878,e
1789467770.705473,2149,2880,e
1789467770.7055979,2256,2880,e
1789467770.707358,2310,2879,e
1789467770.7086568,1962,2877,e
1789467770.711213,2100,2881,e
1789467770.716084,2040,2877,e
1789467770.71664,2025,2878,e
1789467770.7170382,2003,2878,e
1789467770.718596,1793,2878,e
1789467770.722371,2366,2879,e
1789467770.7228029,2121,2879,e
1789467770.724313,2112,2880,e
1789467770.727989,2276,2880,e
1789467770.728179,2087,2880,e
1789467770.7310112,1974,2879,e
1789467770.7320719,2121,2879,e
1789467770.734391,2218,2881,e
1789467770.7367208,2014,2877,e
1789467770.7380228,1895,2876,e
1789467770.740155,2044,2879,e
1789467770.7424672,2001,2879,e
1789467770.744763,1899,2876,e
1789467770.747079,2105,2878,e
1789467770.748389,2087,2878,e
1789467770.7511418,2042,2878,e
1789467770.752445,2093,2880,e
1789467770.754741,1902,2877,e
1789467770.7561579,1710,2876,e
1789467770.7584798,2433,2880,e
1789467770.760847,2083,2879,e
1789467770.765038,1791,2877,e
1789467770.7655401,1971,2878,e
1789467770.7682638,2213,2881,e
1789467770.768407,2025,2877,e
1789467770.770116,2271,2880,e
1789467770.773767,2054,2879,e
1789467770.777505,1929,2877,e
1789467770.777615,2056,2880,e
1789467770.779844,2028,2878,e
1789467770.780905,1965,2878,e
1789467770.7822,2095,2877,e
1789467770.7871392,2142,2880,e
1789467770.787641,2063,2879,e
1789467770.7899442,2042,2879,e
1789467770.791609,2049,2879,e
1789467770.7932549,1975,2877,e
1789467770.795233,1974,2878,e
1789467770.798817,2052,2877,e
1789467770.7989068,2119,2880,e
1789467770.800693,2057,2880,e
1789467770.80201,2062,2879,e
1789467770.804714,2024,2879,e
1789467770.806082,2055,2880,e
1789467770.808406,2031,2878,e
1789467770.810961,1835,2877,e
1789467770.812255,2030,2879,e
1789467770.814803,2310,2881,e
1789467770.8160949,1992,2877,e
1789467770.8181708,1893,2876,e
1789467770.8207202,2305,2880,e
1789467770.822017,2173,2879,e
1789467770.824445,2118,2880,e
1789467770.826997,1910,2878,e
1789467770.8280451,2011,2879,e
1789467770.830305,2413,2881,e
1789467770.836162,1954,2877,e
1789467770.836608,1985,2878,e
1789467770.838654,2043,2879,e
1789467770.838869,2114,2879,e
1789467770.8411362,2000,2876,e
1789467770.842539,1950,2878,e
1789467770.84437,2005,2878,e
1789467770.847728,2135,2880,e
1789467770.849493,1928,2877,e
1789467770.850541,1839,2877,e
1789467770.853191,2201,2880,e
1789467770.856995,2215,2880,e
1789467770.8577769,2102,2879,e
1789467770.85979,2043,2879,e
1789467770.869194,2071,2878,e
1789467770.869405,2117,2879,e
1789467770.869577,2075,2878,e
1789467770.869793,2164,2881,e
1789467770.870053,2015,2878,e
1789467770.872092,1834,2877,e
1789467770.8723142,1995,2880,e
1789467770.874434,2241,2879,e
1789467770.876519,2031,2878,e
1789467770.8788512,2053,2878,e
1789467770.880151,2137,2880,e
1789467770.882674,2094,2879,e
1789467770.884798,2151,2879,e
1789467770.886863,2129,2879,e
1789467770.888156,2046,2879,e
1789467770.8905768,2055,2879,e
1789467770.891995,2072,2878,e
1789467770.894321,2233,2880,e
1789467770.896873,1989,2878,e
1789467770.8980029,2106,2877,e
1789467770.900554,2044,2877,e
1789467770.902622,2070,2879,e
1789467770.907687,2045,2880,e
1789467770.9085472,2072,2879,e
1789467770.909157,2008,2880,e
1789467770.910967,1744,2877,e
1789467770.912951,1995,2879,e
1789467770.91473,2212,2882,e
1789467770.91654,2072,2881,e
1789467770.9199119,2029,2878,e
1789467770.920158,2257,2879,e
1789467770.9230459,2496,2881,e
1789467770.9243488,2006,2880,e
1789467770.92995,2012,2878,e
1789467770.9303732,2094,2878,e
1789467770.9308312,2246,2880,e
1789467770.932698,2229,2880,e
1789467770.9347289,1940,2876,e
1789467770.9361331,1917,2876,e
1789467770.941401,1999,2879,e
1789467770.9418502,1990,2877,e
1789467770.942088,2164,2880,e
1789467770.944874,2117,2879,e
1789467770.945974,2051,2878,e
1789467770.948305,2202,2880,e
1789467770.950614,2127,2879,e
1789467770.951971,2073,2879,e
1789467770.954278,1972,2876,e
1789467770.956644,2031,2879,e
1789467770.957967,2035,2876,e
1789467770.960042,2017,2878,e
1789467770.9623501,2069,2876,e
1789467770.9646552,1949,2878,e
1789467770.967121,2056,2881,e
1789467770.968419,1964,2876,e
1789467770.97077,2032,2878,e
1789467770.972065,2200,2878,e
1789467770.9746182,2205,2879,e
1789467770.979042,2019,2877,e
1789467770.979125,2033,2878,e
1789467770.981631,2077,2879,e
1789467770.983432,2046,2878,e
1789467770.985405,2225,2879,e
1789467770.9871218,2067,2879,e
1789467770.990478,1998,2879,e
1789467770.9906108,2076,2880,e
1789467770.9927092,1977,2878,e
1789467770.994016,2102,2881,e
1789467770.9997618,2161,2880,e
1789467771.000214,2092,2880,e
1789467771.00067,2115,2880,e
1789467771.002948,2241,2880,e
1789467771.004562,2229,2881,e
1789467771.0064662,1843,2876,e
1789467771.008228,1936,2878,e
1789467771.011225,1954,2877,e
1789467771.013315,2111,2878,e
1789467771.014614,2199,2879,e
1789467771.016997,1974,2876,e
1789467771.018301,1968,2880,e
1789467771.020469,2119,2880,e
1789467771.023057,2105,2879,e
1789467771.024114,2119,2880,e
1789467771.026439,2057,2878,e
1789467771.0287921,2114,2879,e
1789467771.029966,2105,2881,e
1789467771.032515,2070,2879,e
1789467771.0350668,2035,2879,e
1789467771.036111,2028,2880,e
1789467771.0386581,1970,2877,e
1789467771.039951,2058,2880,e
1789467771.042192,2210,2880,e
1789467771.048096,2079,2878,e
1789467771.049012,2059,2877,e
1789467771.049543,2068,2879,e
1789467771.051166,2042,2878,e
1789467771.0529962,2065,2879,e
1789467771.054535,2174,2879,e
1789467771.0562189,1962,2877,e
1789467771.05926,2107,2880,e
1789467771.061335,2161,2880,e
1789467771.062647,2085,2879,e
1789467771.064908,2109,2880,e
1789467771.068888,2099,2879,e
1789467771.069391,2004,2877,e
1789467771.071816,2003,2877,e
1789467771.073442,2327,2880,e
1789467771.075378,2130,2879,e
1789467771.077098,1918,2878,e
1789467771.0801458,1894,2878,e
1789467771.0822458,1916,2878,e
1789467771.0825741,2125,2880,e
1789467771.083939,2124,2880,e
1789467771.086265,2216,2880,e
1789467771.088427,2071,2879,e
1789467771.090763,2089,2880,e
1789467771.092066,2300,2879,e
1789467771.094622,2022,2878,e
1789467771.096695,1987,2879,e
1789467771.099015,2236,2881,e
1789467771.100309,2057,2876,e
1789467771.102869,2030,2879,e
1789467771.104198,1837,2877,e
1789467771.1065931,1902,2877,e
1789467771.10791,1996,2878,e
1789467771.110222,2056,2878,e
1789467771.1123571,2166,2879,e
1789467771.1171572,2240,2881,e
1789467771.117676,2155,2878,e
1789467771.1198661,2113,2880,e
1789467771.120029,2089,2880,e
1789467771.123101,2035,2878,e
1789467771.125417,2042,2877,e
1789467771.128405,2108,2880,e
1789467771.128618,2116,2880,e
1789467771.130344,1995,2876,e
1789467771.1329181,2119,2878,e
1789467771.139585,2109,2878,e
1789467771.140125,1959,2876,e
1789467771.141369,2214,2880,e
1789467771.141542,2228,2880,e
1789467771.143903,2047,2878,e
1789467771.144338,2007,2878,e
1789467771.149739,2083,2878,e
1789467771.1500428,2102,2880,e
1789467771.150259,2086,2879,e
1789467771.152276,2064,2879,e
1789467771.154995,2067,2880,e
1789467771.156061,2046,2879,e
1789467771.15847,2031,2878,e
1789467771.1598332,2012,2877,e
1789467771.1627939,2069,2877,e
1789467771.163886,2152,2881,e
1789467771.166198,2152,2879,e
1789467771.168517,2141,2878,e
1789467771.170625,2078,2879,e
1789467771.171935,2031,2877,e
1789467771.174499,2039,2877,e
1789467771.175872,2022,2879,e
1789467771.178463,2096,2877,e
1789467771.180768,2138,2879,e
1789467771.181865,2080,2878,e
1789467771.188811,2027,2878,e
1789467771.189729,1996,2877,e
1789467771.191494,2106,2878,e
1789467771.191678,2163,2881,e
1789467771.1918778,2310,2881,e
1789467771.195523,2108,2880,e
1789467771.1972082,1890,2878,e
1789467771.200076,2144,2880,e
1789467771.200245,2188,2880,e
1789467771.20334,1910,2877,e
1789467771.2046359,1938,2877,e
1789467771.2089999,2175,2880,e
1789467771.209882,2164,2880,e
1789467771.212379,2021,2877,e
1789467771.212652,1987,2878,e
1789467771.214155,2026,2878,e
1789467771.217715,2105,2881,e
1789467771.217953,2235,2881,e
1789467771.2207098,2124,2879,e
1789467771.222537,1892,2877,e
1789467771.223851,2044,2878,e
1789467771.2264059,2130,2880,e
1789467771.228719,2025,2878,e
1789467771.230017,1964,2879,e
1789467771.2323232,2085,2880,e
1789467771.234637,2039,2880,e
1789467771.236725,2100,2880,e
1789467771.237949,2109,2880,e
1789467771.2403998,2072,2880,e
1789467771.242476,2087,2880,e
1789467771.24386,1989,2878,e
1789467771.246176,2180,2881,e
1789467771.2487261,2227,2880,e
1789467771.249828,1951,2877,e
1789467771.252358,2064,2880,e
1789467771.258018,2221,2879,e
1789467771.2585301,2062,2879,e
1789467771.259407,2147,2881,e
1789467771.261444,2064,2878,e
1789467771.263231,2034,2879,e
1789467771.26486,2097,2878,e
1789467771.266888,2078,2879,e
1789467771.269585,2080,2879,e
1789467771.271341,2046,2879,e
1789467771.272426,2045,2880,e
1789467771.2747378,2076,2880,e
1789467771.279815,2013,2878,e
1789467771.281054,1985,2878,e
1789467771.28239,2145,2880,e
1789467771.283669,1990,2877,e
1789467771.2852778,2141,2879,e
1789467771.290367,2243,2878,e
1789467771.290609,2105,2879,e
1789467771.290734,1992,2877,e
1789467771.292424,2145,2880,e
1789467771.294543,2020,2877,e
1789467771.296863,1971,2878,e
1789467771.298181,2203,2881,e
1789467771.3004868,1919,2876,e
1789467771.30181,2066,2879,e
1789467771.304447,2261,2879,e
1789467771.305823,2107,2879,e
1789467771.30838,2045,2880,e
1789467771.310434,2104,2877,e
1789467771.3117929,2193,2880,e
1789467771.3141,2150,2881,e
1789467771.3164191,2034,2879,e
1789467771.3187578,2019,2878,e
1789467771.319809,2019,2879,e
1789467771.32212,2021,2879,e
1789467771.327958,2029,2879,e
1789467771.328795,1992,2878,e
1789467771.328924,2070,2879,e
1789467771.330889,2152,2880,e
1789467771.3327842,2150,2881,e
1789467771.334504,2091,2878,e
1789467771.336352,2050,2879,e
1789467771.338791,2052,2879,e
1789467771.3409238,2083,2879,e
1789467771.342222,2000,2878,e
1789467771.347758,1959,2877,e
1789467771.348165,2059,2877,e
1789467771.3489559,2216,2879,e
1789467771.350771,2161,2879,e
1789467771.353107,2058,2878,e
1789467771.3547132,2036,2879,e
1789467771.356231,2075,2879,e
1789467771.3587232,2116,2880,e
1789467771.36077,2111,2878,e
1789467771.362083,2071,2879,e
1789467771.364394,2084,2880,e
1789467771.366983,2086,2879,e
1789467771.368276,2039,2879,e
1789467771.370352,1982,2877,e
1789467771.372774,2070,2879,e
1789467771.373821,2280,2879,e
1789467771.376079,2171,2881,e
1789467771.378387,1871,2877,e
1789467771.37968,1887,2879,e
1789467771.381993,2134,2881,e
1789467771.384539,2052,2879,e
1789467771.386854,2191,2879,e
1789467771.387897,2133,2879,e
1789467771.394473,2069,2879,e
1789467771.3948648,2076,2880,e
1789467771.395346,2054,2877,e
1789467771.396993,1941,2877,e
1789467771.398468,2021,2878,e
1789467771.4017248,2589,2880,e
1789467771.4018571,2092,2879,e
1789467771.404223,1627,2877,e
1789467771.4063208,2271,2880,e
1789467771.4086459,1779,2878,e
1789467771.409942,1329,2878,e
1789467771.412309,2863,2881,e
1789467771.414856,2688,2882,e
1789467771.416147,2253,2879,e
1789467771.418457,2096,2878,e
1789467771.420759,1581,2876,e
1789467771.421901,1998,2878,e
1789467771.424464,2051,2879,e
1789467771.426743,2684,2881,e
1789467771.42804,2317,2880,e
1789467771.430599,1688,2876,e
1789467771.43171,1977,2879,e
1789467771.434019,1989,2877,e
1789467771.4391649,1855,2878,e
1789467771.44031,2215,2880,e
1789467771.440446,2305,2880,e
1789467771.442267,2438,2881,e
1789467771.445112,2089,2878,e
1789467771.4471061,1632,2877,e
1789467771.44927,1948,2879,e
1789467771.451222,2335,2880,e
1789467771.452518,2242,2881,e
1789467771.453808,2104,2880,e
1789467771.456357,1932,2876,e
1789467771.457653,1434,2878,e
1789467771.4602041,2006,2878,e
1789467771.462543,2404,2880,e
1789467771.463712,1980,2879,e
1789467771.4662569,1734,2876,e
1789467771.467617,2241,2880,e
1789467771.470168,2470,2880,e
1789467771.472714,2576,2880,e
1789467771.4737668,2341,2880,e
1789467771.475994,1971,2878,e
1789467771.47854,2178,2879,e
1789467771.479828,1937,2877,e
1789467771.483953,1782,2878,e
1789467771.4843898,2194,2879,e
1789467771.486731,1730,2877,e
1789467771.488488,1650,2876,e
1789467771.4902349,2465,2881,e
1789467771.491709,2159,2879,e
1789467771.493975,2292,2880,e
1789467771.4960089,1991,2877,e
1789467771.4983208,1660,2878,e
1789467771.499653,1533,2878,e
1789467771.501871,2456,2881,e
1789467771.5041852,2895,2881,e
1789467771.5065038,1868,2878,e
1789467771.5077991,2004,2880,e
1789467771.510348,2011,2878,e
1789467771.5116422,2274,2881,e
1789467771.5141912,1924,2879,e
1789467771.516769,1663,2879,e
1789467771.51806,1805,2877,e
1789467771.52038,2701,2881,e
1789467771.521708,1458,2876,e
1789467771.524244,1646,2877,e
1789467771.5289059,2311,2880,e
1789467771.529378,2413,2881,e
1789467771.531657,1891,2878,e
1789467771.5318038,2026,2878,e
1789467771.534902,2381,2881,e
1789467771.536505,2360,2879,e
1789467771.53883,1750,2877,e
1789467771.540991,841,2877,e
1789467771.542285,2800,2881,e
1789467771.5436091,2019,2880,e
1789467771.5461602,1570,2877,e
1789467771.54866,2020,2877,e
1789467771.549713,2090,2879,e
1789467771.552259,1851,2878,e
1789467771.5543292,1834,2876,e
1789467771.5556219,2631,2881,e
1789467771.5581691,2062,2879,e
1789467771.560724,1818,2878,e
1789467771.56178,2016,2878,e
1789467771.5643258,1654,2879,e
1789467771.565618,2027,2878,e
1789467771.567849,2596,2881,e
1789467771.57345,2208,2880,e
1789467771.5742688,1658,2877,e
1789467771.574677,1465,2876,e
1789467771.57642,1823,2876,e
1789467771.578351,296,2877,e
1789467771.581345,2651,2881,e
1789467771.583769,2318,2880,e
1789467771.583905,2175,2880,e
1789467771.585943,1317,2878,e
1789467771.5882602,1500,2878,e
1789467771.590589,1212,2878,e
1789467771.591894,1715,2878,e
1789467771.593973,2942,2881,e
1789467771.5965319,1933,2876,e
1789467771.597826,1226,2876,e
1789467771.6003761,999,2876,e
1789467771.601672,1374,2876,e
1789467771.604219,1358,2877,e
1789467771.6067672,1330,2877,e
1789467771.6079879,1404,2877,e
1789467771.6105359,1365,2877,e
1789467771.611829,532,2877,e
1789467771.6141791,1627,2876,e
1789467771.6185012,1897,2877,e
1789467771.618905,1459,2876,e
1789467771.620796,1417,2877,e
1789467771.622288,1702,2878,e
1789467771.6237938,1129,2877,e
1789467771.625664,1494,2877,e
1789467771.628266,1914,2878,e
1789467771.630272,1190,2878,e
1789467771.631588,1332,2876,e
1789467771.634161,1733,2878,e
1789467771.636239,1366,2878,e
1789467771.638549,1170,2878,e
1789467771.6398442,1613,2878,e
1789467771.6423979,1514,2877,e
1789467771.643692,1185,2876,e
1789467771.646139,803,2875,e
1789467771.648683,1579,2877,e
1789467771.649847,2058,2879,e
1789467771.6523929,1256,2876,e
1789467771.653682,1558,2878,e
1789467771.6562078,1055,2876,e
1789467771.6582642,1773,2878,e
1789467771.6627772,2665,2881,e
1789467771.663626,1943,2877,e
1789467771.6643488,1394,2877,e
1789467771.665959,1644,2878,e
1789467771.669217,1600,2878,e
1789467771.670783,2042,2876,e
1789467771.673544,1856,2876,e
1789467771.673739,1752,2876,e
1789467771.676506,1901,2876,e
1789467771.677567,1746,2877,e
1789467771.679879,1717,2877,e
1789467771.682368,2475,2880,e
1789467771.684586,1785,2876,e
1789467771.6856818,1110,2878,e
1789467771.688354,2700,2881,e
1789467771.689889,2340,2881,e
1789467771.692207,1562,2876,e
1789467771.6942751,1786,2877,e
1789467771.696613,2313,2881,e
1789467771.697904,2337,2880,e
1789467771.700219,1812,2877,e
1789467771.702334,1690,2876,e
1789467771.703537,2264,2881,e
1789467771.709121,1920,2876,e
1789467771.7092428,2902,2881,e
1789467771.711346,2410,2882,e
1789467771.71326,2024,2879,e
1789467771.715178,2082,2878,e
1789467771.7191648,2506,2881,e
1789467771.719481,2182,2878,e
1789467771.7198699,1997,2878,e
1789467771.722945,1957,2878,e
1789467771.7240472,2245,2880,e
1789467771.731053,2116,2879,e
1789467771.732608,2114,2879,e
1789467771.732974,2383,2880,e
1789467771.734994,2286,2880,e
1789467771.7358851,2200,2880,e
1789467771.7360299,1703,2877,e
1789467771.7386482,2595,2880,e
1789467771.741688,2021,2878,e
1789467771.741837,2256,2880,e
1789467771.743604,2047,2880,e
1789467771.7461839,2093,2879,e
1789467771.74851,2584,2881,e
1789467771.7498071,1042,2877,e
1789467771.752369,1698,2879,e
1789467771.753629,3410,2883,e
1789467771.756244,2388,2880,e
1789467771.7575748,2194,2880,e
1789467771.760135,2010,2879,e
1789467771.7615209,2025,2879,e
1789467771.763846,1866,2878,e
1789467771.766166,1974,2877,e
1789467771.767491,2691,2881,e
1789467771.770043,2130,2881,e
1789467771.77239,1880,2877,e
1789467771.773726,2117,2879,e
1789467771.779551,1993,2880,e
1789467771.7809842,1732,2877,e
1789467771.7824068,1851,2878,e
1789467771.782699,2164,2877,e
1789467771.7865942,2653,2881,e
1789467771.791135,2349,2881,e
1789467771.791381,1971,2879,e
1789467771.791517,2049,2880,e
1789467771.791656,2245,2879,e
1789467771.794604,2291,2880,e
1789467771.795691,2377,2881,e
1789467771.802186,2036,2878,e
1789467771.802633,2027,2877,e
1789467771.804374,2661,2882,e
1789467771.804545,2241,2880,e
1789467771.806266,2024,2878,e
1789467771.807616,2039,2878,e
1789467771.809916,2084,2880,e
1789467771.813062,2091,2878,e
1789467771.8152802,2181,2878,e
1789467771.8163378,2679,2881,e
1789467771.817634,2962,2881,e
1789467771.820101,1534,2877,e
1789467771.8216121,1900,2876,e
1789467771.8242009,2451,2880,e
1789467771.8255029,2495,2880,e
1789467771.8278248,2171,2879,e
1789467771.830136,1743,2877,e
1789467771.8325171,2286,2879,e
1789467771.833577,1998,2878,e
1789467771.836133,2527,2880,e
1789467771.837533,1991,2880,e
1789467771.839843,2400,2880,e
1789467771.842162,2310,2879,e
1789467771.8444679,2295,2880,e
1789467771.845765,2163,2878,e
1789467771.8511958,2035,2879,e
1789467771.851684,2294,2881,e
1789467771.852492,2226,2880,e
1789467771.8537862,1382,2877,e
1789467771.85585,2584,2880,e
1789467771.858021,2340,2879,e
1789467771.862538,2259,2879,e
1789467771.8627148,2069,2877,e
1789467771.864753,1208,2878,e
1789467771.8660638,2469,2880,e
1789467771.8683982,2930,2882,e
1789467771.8727329,1831,2876,e
1789467771.87286,2393,2880,e
1789467771.8751428,2066,2880,e
1789467771.8772101,2259,2878,e
1789467771.8790028,2126,2877,e
1789467771.8806882,2341,2880,e
1789467771.8838122,2209,2877,e
1789467771.884031,1929,2877,e
1789467771.8860428,2318,2880,e
1789467771.888208,2448,2879,e
1789467771.8895192,1962,2879,e
1789467771.8920121,1565,2877,e
1789467771.894565,1709,2878,e
1789467771.895873,2714,2882,e
1789467771.898039,2334,2881,e
1789467771.9003541,1934,2878,e
1789467771.901649,1926,2877,e
1789467771.903952,2328,2879,e
1789467771.9062662,2165,2878,e
1789467771.907564,2179,2880,e
1789467771.9098802,2073,2877,e
1789467771.91219,2117,2878,e
1789467771.913486,2036,2878,e
1789467771.9157372,2283,2881,e
1789467771.921978,2596,2882,e
1789467771.922525,1149,2876,e
1789467771.922961,2256,2880,e
1789467771.9244852,2757,2880,e
1789467771.9260921,2281,2880,e
1789467771.9280431,2214,2879,e
1789467771.9297228,1931,2877,e
1789467771.933192,2111,2877,e
1789467771.93519,2003,2878,e
1789467771.936491,2161,2880,e
1789467771.937792,2357,2879,e
1789467771.942503,1716,2876,e
1789467771.9428961,1904,2877,e
1789467771.944905,2230,2881,e
1789467771.947069,2578,2882,e
1789467771.9498172,2465,2880,e
1789467771.952778,2167,2880,e
1789467771.952961,1938,2878,e
1789467771.954921,1712,2877,e
1789467771.956235,2135,2881,e
1789467771.957531,2234,2879,e
1789467771.9600892,2766,2881,e
1789467771.962494,1806,2877,e
1789467771.963541,2017,2878,e
1789467771.966091,2129,2878,e
1789467771.9674659,2324,2880,e
1789467771.9700181,2386,2881,e
1789467771.97253,2319,2880,e
1789467771.973826,1886,2877,e
1789467771.976137,1903,2878,e
1789467771.977432,1756,2877,e
1789467771.979845,2032,2877,e
1789467771.982392,2278,2881,e
1789467771.983445,2306,2879,e
1789467771.988297,2005,2877,e
1789467771.9887428,2168,2879,e
1789467771.9902499,2169,2880,e
1789467771.991866,2306,2879,e
1789467771.9934132,1805,2877,e
1789467771.998192,1677,2878,e
1789467771.998335,2407,2881,e
1789467772.000399,2367,2879,e
1789467772.001445,2102,2880,e
1789467772.003823,2007,2879,e
1789467772.0061572,2155,2880,e
1789467772.00745,2008,2878,e
1789467772.0097501,2057,2878,e
1789467772.012064,1798,2879,e
1789467772.0134242,2364,2881,e
1789467772.0159092,1849,2877,e
1789467772.0184581,1650,2876,e
1789467772.0197482,2681,2880,e
1789467772.02225,2793,2881,e
1789467772.023545,2284,2880,e
1789467772.026091,1917,2877,e
1789467772.0273888,1922,2878,e
1789467772.0327628,2239,2879,e
1789467772.033175,2393,2880,e
1789467772.035499,2162,2879,e
1789467772.0356312,1482,2876,e
1789467772.0386639,1879,2880,e
1789467772.0405812,2290,2880,e
1789467772.0437398,1814,2877,e
1789467772.043985,1716,2878,e
1789467772.045578,2132,2878,e
1789467772.048447,2883,2882,e
1789467772.0494962,2331,2879,e
1789467772.051647,1625,2876,e
1789467772.053959,2084,2879,e
1789467772.0565178,2313,2880,e
1789467772.057812,2290,2880,e
1789467772.060003,2160,2880,e
1789467772.061294,1824,2878,e
1789467772.06384,2118,2878,e
1789467772.0661519,2085,2878,e
1789467772.068457,2189,2880,e
1789467772.0694988,2020,2879,e
1789467772.072045,2020,2879,e
1789467772.073347,2038,2880,e
1789467772.0793521,2140,2880,e
1789467772.079461,2224,2880,e
1789467772.0798988,2210,2880,e
1789467772.081702,1908,2878,e
1789467772.084895,1417,2877,e
1789467772.08654,2894,2882,e
1789467772.0897338,2109,2879,e
1789467772.0899148,1803,2877,e
1789467772.091837,2368,2879,e
1789467772.094265,2244,2880,e
1789467772.0953112,2213,2880,e
1789467772.097412,2239,2880,e
1789467772.099523,2158,2880,e
1789467772.102083,2174,2879,e
1789467772.1033769,2047,2880,e
1789467772.105809,2042,2879,e
1789467772.1081269,2070,2879,e
1789467772.1104372,1758,2876,e
1789467772.1114922,2350,2881,e
1789467772.1135528,2174,2880,e
1789467772.1159391,2129,2880,e
1789467772.117252,1913,2877,e
1789467772.1193159,2217,2880,e
1789467772.124796,2048,2879,e
1789467772.125568,2927,2881,e
1789467772.125681,2148,2879,e
1789467772.1274722,1770,2876,e
1789467772.130425,2152,2877,e
1789467772.1324,2509,2880,e
1789467772.1357691,2412,2880,e
1789467772.135968,1679,2876,e
1789467772.137828,2187,2879,e
1789467772.140137,2166,2881,e
1789467772.144923,2281,2880,e
1789467772.1453671,1642,2876,e
1789467772.145791,2031,2877,e
1789467772.148649,1754,2879,e
1789467772.1503959,2313,2880,e
1789467772.152117,3079,2883,e
1789467772.155436,2220,2879,e
1789467772.155589,1894,2878,e
1789467772.15816,1423,2878,e
1789467772.159452,3005,2882,e
1789467772.1619651,2465,2881,e
1789467772.163263,2119,2877,e
1789467772.165812,2045,2877,e
1789467772.168127,1979,2878,e
1789467772.169237,2152,2880,e
1789467772.171547,2164,2878,e
1789467772.173847,2051,2878,e
1789467772.175253,1985,2877,e
1789467772.177567,2105,2877,e
1789467772.1798022,2041,2879,e
1789467772.182347,2151,2880,e
1789467772.183635,2166,2880,e
1789467772.1859488,2318,2880,e
1789467772.190683,2065,2879,e
1789467772.1908,1916,2876,e
1789467772.192946,1821,2877,e
1789467772.1950982,2054,2878,e
1789467772.195458,2525,2881,e
1789467772.1978939,2150,2879,e
1789467772.201345,1960,2877,e
1789467772.20144,2130,2880,e
1789467772.204306,2275,2880,e
1789467772.205599,2096,2880,e
1789467772.210902,1984,2877,e
1789467772.2130592,2319,2880,e
1789467772.213207,2210,2880,e
1789467772.2133188,2113,2880,e
1789467772.215837,2006,2877,e
1789467772.2180228,1750,2877,e
1789467772.2214808,2320,2880,e
1789467772.221691,2513,2881,e
1789467772.2236989,2144,2879,e
1789467772.226269,1917,2878,e
1789467772.227563,2296,2880,e
1789467772.2301161,2129,2877,e
1789467772.2312682,1964,2877,e
1789467772.233591,2440,2880,e
1789467772.235893,2020,2880,e
1789467772.2372181,1905,2876,e
1789467772.239764,2112,2879,e
1789467772.241944,2150,2879,e
1789467772.243233,2293,2881,e
1789467772.245777,2268,2881,e
1789467772.2480798,2257,2881,e
1789467772.2493691,2086,2880,e
1789467772.251423,2075,2879,e
1789467772.256027,2048,2879,e
1789467772.256759,2360,2880,e
1789467772.258451,1956,2877,e
1789467772.260524,2428,2880,e
1789467772.266548,1991,2877,e
1789467772.266846,2147,2880,e
1789467772.2671812,2382,2881,e
1789467772.269258,2271,2878,e
1789467772.269322,1924,2877,e
1789467772.2713962,2017,2877,e
1789467772.2768488,1971,2879,e
1789467772.277269,2299,2880,e
1789467772.27849,2314,2879,e
1789467772.279671,2105,2879,e
1789467772.281549,1932,2876,e
1789467772.284618,2095,2877,e
1789467772.2891011,2350,2881,e
1789467772.290853,2224,2879,e
1789467772.2909372,2170,2879,e
1789467772.292133,1937,2876,e
1789467772.293205,2038,2878,e
1789467772.2955258,2292,2881,e
1789467772.298135,2009,2878,e
1789467772.2994308,2399,2880,e
1789467772.3015082,2239,2880,e
1789467772.303584,2028,2880,e
1789467772.30594,2074,2879,e
1789467772.308018,2033,2877,e
1789467772.309213,2250,2881,e
1789467772.311525,2226,2880,e
1789467772.3138618,1762,2878,e
1789467772.3159318,2048,2877,e
1789467772.318004,2573,2881,e
1789467772.319298,2122,2879,e
1789467772.324172,1988,2877,e
1789467772.324747,2270,2881,e
1789467772.328274,2191,2880,e
1789467772.32909,2105,2879,e
1789467772.329597,1988,2878,e
1789467772.332611,2061,2877,e
1789467772.336595,2128,2880,e
1789467772.336871,2206,2879,e
1789467772.338567,1934,2877,e
1789467772.339618,2178,2879,e
1789467772.3417332,2456,2880,e
1789467772.3461509,2214,2880,e
1789467772.3467,2148,2880,e
1789467772.3487082,2170,2880,e
1789467772.3502269,2199,2880,e
1789467772.351792,2105,2880,e
1789467772.357682,1996,2878,e
1789467772.357845,2219,2880,e
1789467772.357974,2264,2879,e
1789467772.360163,2058,2879,e
1789467772.3612192,1828,2877,e
1789467772.363528,2152,2880,e
1789467772.36608,2574,2881,e
1789467772.367179,2069,2879,e
1789467772.369733,2212,2878,e
1789467772.371794,2093,2879,e
1789467772.373174,2218,2881,e
1789467772.3756611,2282,2879,e
1789467772.377974,1914,2877,e
1789467772.379265,1926,2877,e
1789467772.38157,2223,2880,e
1789467772.384118,2234,2880,e
1789467772.38541,2059,2880,e
1789467772.3878882,2152,2879,e
1789467772.389374,2321,2879,e
1789467772.393109,2162,2882,e
1789467772.393518,2204,2879,e
1789467772.3955321,2179,2880,e
1789467772.3985238,2215,2879,e
1789467772.4004211,2174,2879,e
1789467772.4041631,2141,2879,e
1789467772.404299,2079,2879,e
1789467772.406315,2070,2879,e
1789467772.407617,2160,2879,e
1789467772.409865,2171,2880,e
1789467772.4135182,2119,2880,e
1789467772.413924,2266,2879,e
1789467772.415967,2264,2881,e
1789467772.417792,2169,2880,e
1789467772.419225,2219,2879,e
1789467772.424212,2265,2880,e
1789467772.4245162,2076,2881,e
1789467772.4261289,2097,2878,e
1789467772.427426,2069,2878,e
1789467772.429755,2087,2877,e
1789467772.432209,2327,2880,e
1789467772.433268,2322,2880,e
1789467772.435663,2169,2879,e
1789467772.4378188,2231,2879,e
1789467772.439889,2179,2880,e
1789467772.44118,2227,2879,e
1789467772.443489,2167,2880,e
1789467772.4457972,2193,2881,e
1789467772.448031,2197,2879,e
1789467772.449321,2208,2880,e
1789467772.451869,2141,2879,e
1789467772.453951,2142,2879,e
1789467772.4605608,2290,2880,e
1789467772.461826,2242,2880,e
1789467772.4630861,2131,2878,e
1789467772.465714,2034,2877,e
1789467772.466232,2107,2879,e
1789467772.466686,2202,2880,e
1789467772.468555,1955,2877,e
1789467772.472073,2137,2879,e
1789467772.472236,2134,2879,e
1789467772.473841,2094,2879,e
1789467772.47514,2220,2879,e
1789467772.480892,2265,2879,e
1789467772.481298,2130,2878,e
1789467772.481698,2239,2880,e
1789467772.483386,2195,2880,e
1789467772.486376,1878,2876,e
1789467772.492377,1656,2876,e
1789467772.4924958,2370,2879,e
1789467772.492683,2503,2880,e
1789467772.494633,2233,2880,e
1789467772.495692,2008,2876,e
1789467772.4980211,1925,2877,e
1789467772.4991648,2296,2881,e
1789467772.5015512,2394,2882,e
1789467772.50411,2100,2880,e
1789467772.505407,1938,2876,e
1789467772.5077178,1844,2877,e
1789467772.5097878,1998,2877,e
1789467772.511112,1975,2879,e
1789467772.5134149,2188,2880,e
1789467772.515722,2228,2880,e
1789467772.5177972,2113,2879,e
1789467772.519899,2243,2880,e
1789467772.5222468,2042,2880,e
1789467772.523298,2143,2881,e
1789467772.5277061,1982,2877,e
1789467772.52821,2147,2880,e
1789467772.530626,2339,2882,e
1789467772.532625,2021,2877,e
1789467772.5341702,2043,2880,e
1789467772.535708,1923,2876,e
1789467772.53907,1722,2877,e
1789467772.539215,2282,2881,e
1789467772.542048,2495,2880,e
1789467772.54335,1780,2877,e
1789467772.569178,2147,2880,e
1789467772.569257,2156,2880,e
1789467772.56932,1817,2877,e
1789467772.5693812,2245,2880,e
1789467772.569442,2458,2880,e
1789467772.5695019,2047,2879,e
1789467772.5695622,2077,2880,e
1789467772.569621,1781,2878,e
1789467772.569679,1609,2878,e
1789467772.569738,1852,2879,e
1789467772.569797,2239,2880,e
1789467772.569856,2436,2881,e
1789467772.5699148,1948,2880,e
1789467772.571336,2338,2880,e
1789467772.5745962,2514,2881,e
1789467772.5765991,2180,2881,e
1789467772.578569,1934,2878,e
1789467772.579916,2219,2878,e
1789467772.581265,2155,2878,e
1789467772.583908,2098,2879,e
1789467772.585242,1988,2879,e
1789467772.588004,1771,2877,e
1789467772.589368,1941,2879,e
1789467772.597862,2095,2880,e
1789467772.599894,2340,2880,e
1789467772.6008792,2024,2878,e
1789467772.604525,2011,2879,e
1789467772.60883,2515,2880,e
1789467772.61143,1774,2877,e
1789467772.611572,1903,2876,e
1789467772.611676,1939,2877,e
1789467772.611766,1888,2877,e
1789467772.611878,2178,2880,e
1789467772.611948,2199,2879,e
1789467772.613312,1922,2876,e
1789467772.625328,2131,2880,e
1789467772.62902,2098,2879,e
1789467772.6330082,1934,2878,e
1789467772.6337368,2181,2880,e
1789467772.636191,1966,2877,e
1789467772.636535,1928,2878,e
1789467772.636626,1918,2879,e
1789467772.636693,2067,2878,e
1789467772.636758,1936,2877,e
1789467772.636823,2068,2879,e
1789467772.636885,2124,2879,e
1789467772.638365,2043,2879,e
1789467772.639627,2110,2880,e
1789467772.642289,2083,2880,e
1789467772.643472,2044,2878,e
1789467772.646129,2004,2878,e
1789467772.647488,2033,2877,e
1789467772.650374,2067,2878,e
1789467772.651774,2104,2880,e
1789467772.653218,2042,2879,e
1789467772.657504,2019,2880,e
1789467772.657593,1987,2877,e
1789467772.659094,2093,2881,e
1789467772.666195,2007,2878,e
1789467772.6662881,2116,2880,e
1789467772.666362,2090,2880,e
1789467772.667777,2086,2880,e
1789467772.669131,2023,2878,e
1789467772.677674,2081,2879,e
1789467772.682741,2058,2880,e
1789467772.686403,2083,2880,e
1789467772.686681,2064,2879,e
1789467772.6911669,2073,2878,e
1789467772.6915991,2101,2880,e
1789467772.6940951,2071,2880,e
1789467772.694182,2049,2879,e
1789467772.694247,2087,2879,e
1789467772.694313,2124,2878,e
1789467772.6943748,2046,2880,e
1789467772.694437,2003,2877,e
1789467772.6958249,2022,2879,e
1789467772.6973839,1953,2877,e
1789467772.705885,2021,2877,e
1789467772.70644,2155,2880,e
1789467772.708093,2125,2879,e
1789467772.709101,2057,2879,e
1789467772.710767,2058,2879,e
1789467772.711803,2027,2878,e
1789467772.712319,2023,2878,e
1789467772.7141771,2079,2879,e
1789467772.720532,2150,2880,e
1789467772.720625,2158,2879,e
1789467772.720695,1994,2877,e
1789467772.722042,2072,2878,e
1789467772.723388,2107,2879,e
1789467772.7260532,2163,2879,e
1789467772.727469,2161,2879,e
1789467772.731393,2147,2880,e
1789467772.731443,2101,2880,e
1789467772.734122,2114,2879,e
1789467772.735508,1987,2876,e
1789467772.7381608,1976,2877,e
1789467772.739532,2120,2880,e
1789467772.742218,2088,2880,e
1789467772.743579,2075,2879,e
1789467772.746271,2057,2878,e
1789467772.7484539,2091,2877,e
1789467772.749841,2081,2880,e
1789467772.75121,2019,2877,e
1789467772.754007,2114,2879,e
1789467772.755666,2051,2879,e
1789467772.757417,2112,2879,e
1789467772.764043,2104,2879,e
1789467772.7648718,1954,2878,e
1789467772.76565,2020,2877,e
1789467772.767956,2125,2881,e
1789467772.768348,2184,2881,e
1789467772.772804,2154,2879,e
1789467772.775755,2108,2879,e
1789467772.776027,2139,2879,e
1789467772.780396,2126,2879,e
1789467772.781009,1980,2878,e
1789467772.7831879,2013,2877,e
1789467772.7838879,2125,2877,e
1789467772.784236,2252,2881,e
1789467772.785593,2209,2880,e
1789467772.7870688,2080,2879,e
1789467772.7953222,2073,2878,e
1789467772.7982779,2140,2880,e
1789467772.801018,2165,2880,e
1789467772.803042,2156,2880,e
1789467772.803593,2136,2881,e
1789467772.804228,2011,2877,e
1789467772.806315,2045,2880,e
1789467772.810286,2085,2879,e
1789467772.8109062,2056,2878,e
1789467772.81142,2146,2880,e
1789467772.8118432,1920,2876,e
1789467772.814504,2184,2880,e
1789467772.814611,2316,2880,e
1789467772.8159769,2165,2880,e
1789467772.817299,1978,2877,e
1789467772.8198662,2067,2879,e
1789467772.821032,2109,2881,e
1789467772.8236248,2098,2879,e
1789467772.8252501,2038,2876,e
1789467772.827872,1984,2877,e
1789467772.8293068,2146,2881,e
1789467772.832033,2109,2881,e
1789467772.833459,2102,2879,e
1789467772.8360808,2127,2879,e
1789467772.83775,2080,2878,e
1789467772.839099,2035,2879,e
1789467772.841761,2069,2881,e
1789467772.843151,2073,2877,e
1789467772.8457868,2072,2878,e
1789467772.84715,1977,2878,e
1789467772.849786,1842,2878,e
1789467772.8511481,2053,2879,e
1789467772.8539588,2316,2880,e
1789467772.860227,2104,2879,e
1789467772.861475,2127,2879,e
1789467772.864535,2148,2880,e
1789467772.8669481,2139,2880,e
1789467772.868762,2034,2877,e
1789467772.870388,2119,2877,e
1789467772.871041,2197,2880,e
1789467772.876943,2139,2879,e
1789467772.877446,2084,2878,e
1789467772.877886,2054,2879,e
1789467772.87823,1990,2876,e
1789467772.878569,2016,2878,e
1789467772.881162,2107,2879,e
1789467772.881236,2178,2879,e
1789467772.883913,2157,2880,e
1789467772.8854988,2049,2878,e
1789467772.905442,1936,2877,e
1789467772.9061031,1994,2877,e
1789467772.906501,2088,2880,e
1789467772.9068182,2187,2881,e
1789467772.910204,2093,2879,e
1789467772.910309,2017,2877,e
1789467772.910374,2075,2877,e
1789467772.910437,2141,2881,e
1789467772.9105,2011,2880,e
1789467772.910562,1956,2877,e
1789467772.910623,2175,2881,e
1789467772.9106839,2107,2880,e
1789467772.912066,2130,2880,e
1789467772.913478,2267,2882,e
1789467772.916151,2182,2881,e
1789467772.917546,2171,2880,e
1789467772.918968,2096,2880,e
1789467772.921659,2109,2879,e
1789467772.9229991,2140,2879,e
1789467772.925408,2159,2880,e
1789467772.928019,1982,2877,e
1789467772.9294121,1880,2877,e
1789467772.931749,1982,2878,e
1789467772.9340138,2250,2880,e
1789467772.9353778,2080,2879,e
1789467772.937758,2058,2879,e
1789467772.939189,2139,2878,e
1789467772.941781,2030,2877,e
1789467772.9438772,1954,2878,e
1789467772.945023,2040,2877,e
1789467772.947391,2162,2880,e
1789467772.9499688,2068,2879,e
1789467772.951285,2024,2879,e
1789467772.953705,2117,2880,e
1789467772.9550989,2059,2880,e
1789467772.962446,2099,2880,e
1789467772.963049,2082,2878,e
1789467772.964164,2042,2879,e
1789467772.965955,1892,2878,e
1789467772.966166,2330,2880,e
1789467772.968363,2320,2880,e
1789467772.970552,2008,2879,e
1789467772.973182,1946,2877,e
1789467772.9735339,1979,2877,e
1789467772.976962,2123,2879,e
1789467772.977098,2138,2878,e
1789467772.979915,1985,2878,e
1789467772.9812338,2127,2879,e
1789467772.983804,2169,2880,e
1789467772.9902458,2078,2879,e
1789467772.990806,2069,2879,e
1789467772.99279,2142,2880,e
1789467772.9930398,2149,2881,e
1789467772.9955132,2087,2879,e
1789467772.995633,2147,2881,e
1789467772.997813,2020,2879,e
1789467773.0001311,2051,2880,e
1789467773.003541,1991,2879,e
1789467773.003784,1925,2876,e
1789467773.005999,2133,2879,e
1789467773.0073228,2236,2881,e
1789467773.0098681,1948,2877,e
1789467773.010941,2197,2881,e
1789467773.013037,2163,2881,e
1789467773.0153642,2110,2879,e
1789467773.01793,2084,2878,e
1789467773.0190039,2090,2879,e
1789467773.0213308,2138,2879,e
1789467773.0238972,2060,2881,e
1789467773.025109,2028,2878,e
1789467773.027432,2074,2878,e
1789467773.029859,2104,2880,e
1789467773.0309372,2083,2878,e
1789467773.033501,2076,2879,e
1789467773.0358531,2048,2880,e
1789467773.036917,2046,2879,e
1789467773.0392451,2032,2879,e
1789467773.041816,1969,2878,e
1789467773.042956,2152,2880,e
1789467773.0453062,2081,2877,e
1789467773.05129,2013,2878,e
1789467773.0524192,2152,2880,e
1789467773.053113,2041,2878,e
1789467773.0533388,2055,2879,e
1789467773.055498,2199,2879,e
1789467773.057993,2145,2879,e
1789467773.0597508,2038,2878,e
1789467773.062439,1997,2878,e
1789467773.0656881,2051,2878,e
1789467773.0659058,2176,2880,e
1789467773.068775,2087,2880,e
1789467773.068901,2055,2878,e
1789467773.070994,2078,2879,e
1789467773.077471,2125,2879,e
1789467773.077931,2139,2880,e
1789467773.078434,1907,2879,e
1789467773.080517,1951,2878,e
1789467773.083133,2206,2881,e
1789467773.083682,2132,2879,e
1789467773.085206,2055,2880,e
1789467773.0897548,2030,2879,e
1789467773.0900009,2087,2879,e
1789467773.092375,2105,2881,e
1789467773.093672,2004,2878,e
1789467773.095999,2028,2879,e
1789467773.097305,2128,2880,e
1789467773.09962,2114,2879,e
1789467773.101932,2034,2879,e
1789467773.103235,2023,2880,e
1789467773.105773,2048,2880,e
1789467773.106875,2114,2879,e
1789467773.108944,2106,2880,e
1789467773.111257,2093,2878,e
1789467773.113819,2116,2879,e
1789467773.114912,2126,2881,e
1789467773.116989,2063,2878,e
1789467773.119313,2003,2879,e
1789467773.121707,2130,2880,e
1789467773.122904,2139,2879,e
1789467773.1254668,2089,2880,e
1789467773.132329,2071,2878,e
1789467773.1329348,2094,2879,e
1789467773.1342468,2100,2880,e
1789467773.135969,2104,2880,e
1789467773.136106,2063,2878,e
1789467773.137932,2060,2879,e
1789467773.1401842,2068,2879,e
1789467773.142289,2083,2880,e
1789467773.145159,2056,2877,e
1789467773.145391,2086,2879,e
1789467773.1476932,2097,2878,e
1789467773.1490161,2100,2880,e
1789467773.151828,2099,2879,e
1789467773.157793,2047,2879,e
1789467773.158925,2056,2878,e
1789467773.16115,2113,2879,e
1789467773.1614919,2077,2880,e
1789467773.16416,2056,2878,e
1789467773.164387,2103,2878,e
1789467773.170711,2122,2880,e
1789467773.170936,2103,2880,e
1789467773.1710799,2073,2879,e
1789467773.171276,2062,2879,e
1789467773.1736279,2109,2879,e
1789467773.17572,2062,2879,e
1789467773.1768808,2025,2878,e
1789467773.1794639,2060,2879,e
1789467773.181545,2115,2882,e
1789467773.1836338,2100,2879,e
1789467773.1849432,2065,2878,e
1789467773.187506,2051,2879,e
1789467773.188868,2042,2879,e
1789467773.1911922,2061,2880,e
1789467773.1937752,2088,2879,e
1789467773.1950772,2108,2880,e
1789467773.197185,2101,2879,e
1789467773.199274,2070,2880,e
1789467773.2016032,2088,2879,e
1789467773.203685,2114,2878,e
1789467773.205825,2090,2879,e
1789467773.206877,2116,2880,e
1789467773.209224,2055,2877,e
1789467773.214211,2043,2879,e
1789467773.216226,2072,2877,e
1789467773.217684,2077,2880,e
1789467773.218081,2111,2879,e
1789467773.220339,2077,2878,e
1789467773.2215722,2075,2878,e
1789467773.224246,2096,2881,e
1789467773.2275698,2075,2880,e
1789467773.227911,2044,2879,e
1789467773.2303371,2083,2879,e
1789467773.231665,2144,2880,e
1789467773.2340019,2144,2879,e
1789467773.238964,2038,2879,e
1789467773.240309,2044,2877,e
1789467773.240436,2109,2879,e
1789467773.242455,2110,2879,e
1789467773.244756,2073,2877,e
1789467773.246067,2098,2878,e
1789467773.2487621,2093,2880,e
1789467773.2489758,2093,2879,e
1789467773.251508,2077,2879,e
1789467773.2535129,2075,2879,e
1789467773.255848,2076,2879,e
1789467773.257163,2095,2879,e
1789467773.259514,2072,2879,e
1789467773.260915,2064,2878,e
1789467773.263329,2093,2878,e
1789467773.265794,2106,2881,e
1789467773.2669592,2115,2879,e
1789467773.2693481,2067,2878,e
1789467773.2719538,2075,2878,e
1789467773.273291,2095,2879,e
1789467773.275676,2043,2877,e
1789467773.276802,2006,2879,e
1789467773.27897,2057,2879,e
1789467773.28134,2106,2881,e
1789467773.282939,2079,2879,e
1789467773.285551,2067,2878,e
1789467773.286939,2161,2878,e
1789467773.289271,1979,2876,e
1789467773.291643,1655,2877,e
1789467773.292738,2151,2879,e
1789467773.2992861,2779,2881,e
1789467773.3000479,2086,2880,e
1789467773.303403,1980,2878,e
1789467773.303595,1849,2876,e
1789467773.306473,2177,2879,e
1789467773.307113,2440,2881,e
1789467773.3077838,2274,2881,e
1789467773.309812,1864,2877,e
1789467773.3119109,1848,2878,e
1789467773.315091,1918,2878,e
1789467773.315305,2260,2879,e
1789467773.318304,2223,2878,e
1789467773.319467,1903,2876,e
1789467773.32186,1882,2877,e
1789467773.327179,2135,2880,e
1789467773.328733,2149,2880,e
1789467773.329895,2261,2880,e
1789467773.331696,1977,2877,e
1789467773.333798,2444,2881,e
1789467773.334358,1945,2879,e
1789467773.336564,2002,2878,e
1789467773.3388412,2112,2880,e
1789467773.339145,1976,2876,e
1789467773.342099,2036,2877,e
1789467773.3448231,2067,2880,e
1789467773.3450649,2245,2879,e
1789467773.3473952,2027,2878,e
1789467773.3497422,2073,2880,e
1789467773.3508291,1735,2878,e
1789467773.352919,1463,2877,e
1789467773.355594,1992,2878,e
1789467773.3568199,3298,2884,e
1789467773.359179,2508,2881,e
1789467773.361516,1668,2876,e
1789467773.362956,2028,2877,e
1789467773.365618,1779,2879,e
1789467773.368032,2254,2878,e
1789467773.36951,2535,2880,e
1789467773.370987,2007,2876,e
1789467773.3733509,1637,2877,e
1789467773.375977,2259,2880,e
1789467773.377295,1771,2877,e
1789467773.379516,1610,2877,e
1789467773.381738,2012,2878,e
1789467773.383203,2568,2880,e
1789467773.390021,2340,2880,e
1789467773.391232,1878,2877,e
1789467773.3918972,2363,2880,e
1789467773.392568,1953,2879,e
1789467773.394363,857,2877,e
1789467773.3964748,2269,2880,e
1789467773.399327,2447,2881,e
1789467773.400032,2118,2880,e
1789467773.40197,2255,2881,e
1789467773.405323,1984,2879,e
1789467773.4057689,2019,2879,e
1789467773.408434,1940,2877,e
1789467773.409765,2025,2877,e
1789467773.410848,2016,2877,e
1789467773.418716,1678,2877,e
1789467773.4220679,2343,2881,e
1789467773.4225862,1169,2876,e
1789467773.424858,1837,2876,e
1789467773.425537,3100,2883,e
1789467773.42612,2051,2880,e
1789467773.426782,1960,2878,e
1789467773.4273589,1982,2877,e
1789467773.430681,2496,2880,e
1789467773.43389,2390,2880,e
1789467773.4342809,1855,2877,e
1789467773.437242,1904,2877,e
1789467773.437373,1908,2877,e
1789467773.438723,1908,2877,e
1789467773.441121,2059,2880,e
1789467773.443732,1985,2878,e
1789467773.44492,1504,2878,e
1789467773.447008,1502,2877,e
1789467773.4490938,2592,2881,e
1789467773.451443,2136,2879,e
1789467773.453556,1199,2877,e
1789467773.454674,2599,2881,e
1789467773.4569972,2800,2882,e
1789467773.459114,1550,2877,e
1789467773.4612072,1665,2878,e
1789467773.463555,2174,2879,e
1789467773.464863,2055,2878,e
1789467773.466965,1985,2878,e
1789467773.4690518,1956,2879,e
1789467773.471387,1266,2877,e
1789467773.4726999,2300,2880,e
1789467773.4752681,2126,2880,e
1789467773.476823,1783,2878,e
1789467773.482396,2318,2880,e
1789467773.483595,1919,2878,e
1789467773.486443,1983,2877,e
1789467773.489183,1705,2878,e
1789467773.490282,1870,2878,e
1789467773.491969,2691,2880,e
1789467773.492169,2251,2879,e
1789467773.497626,1692,2876,e
1789467773.497974,2144,2877,e
1789467773.498191,1730,2879,e
1789467773.500863,2261,2879,e
1789467773.5012,2604,2881,e
1789467773.5033011,2047,2880,e
1789467773.505524,1459,2875,e
1789467773.510965,1230,2877,e
1789467773.511555,2022,2877,e
1789467773.514178,2548,2881,e
1789467773.514405,2051,2879,e
1789467773.5167859,1939,2878,e
1789467773.5174289,2264,2880,e
1789467773.51906,2231,2880,e
1789467773.521471,1781,2877,e
1789467773.525134,1288,2877,e
1789467773.525708,1462,2877,e
1789467773.528606,1873,2878,e
1789467773.52866,2431,2880,e
1789467773.531012,2243,2879,e
1789467773.53334,1969,2879,e
1789467773.534689,1823,2877,e
1789467773.53705,1966,2877,e
1789467773.539624,2462,2882,e
1789467773.5409338,2231,2881,e
1789467773.5432608,1297,2877,e
1789467773.545357,1551,2878,e
1789467773.546666,2057,2881,e
1789467773.549273,2272,2879,e
1789467773.551609,1686,2877,e
1789467773.55269,1990,2879,e
1789467773.555178,1907,2877,e
1789467773.556692,2194,2877,e
1789467773.559058,1962,2877,e
1789467773.5616581,1969,2877,e
1789467773.562966,2481,2880,e
1789467773.565536,1388,2877,e
1789467773.5734248,248,2876,e
1789467773.574165,1262,2878,e
1789467773.5776262,2702,2881,e
1789467773.58087,3059,2882,e
1789467773.581114,2000,2879,e
1789467773.582172,1541,2877,e
1789467773.5832372,2346,2881,e
1789467773.584268,1465,2877,e
1789467773.589443,2483,2880,e
1789467773.589636,2488,2879,e
1789467773.589925,1753,2877,e
1789467773.590338,1739,2877,e
1789467773.592455,1698,2878,e
1789467773.594265,1936,2878,e
1789467773.595783,1667,2877,e
1789467773.597247,1993,2877,e
1789467773.6025789,1691,2878,e
1789467773.6064,2334,2880,e
1789467773.60669,2447,2880,e
1789467773.609505,1058,2876,e
1789467773.61009,1247,2878,e
1789467773.611155,2097,2878,e
1789467773.612271,2758,2881,e
1789467773.618029,1761,2878,e
1789467773.618449,2124,2879,e
1789467773.618858,1678,2877,e
1789467773.6216488,1872,2876,e
1789467773.62174,2023,2877,e
1789467773.623297,2046,2879,e
1789467773.62559,2027,2879,e
1789467773.626783,1849,2877,e
1789467773.629649,1602,2878,e
1789467773.6308632,1915,2878,e
1789467773.6332958,2055,2877,e
1789467773.634625,2286,2879,e
1789467773.637224,1866,2877,e
1789467773.6385999,691,2876,e
1789467773.641263,2099,2877,e
1789467773.643661,3360,2884,e
1789467773.648505,1484,2877,e
1789467773.6486359,2242,2878,e
1789467773.648766,2186,2880,e
1789467773.651443,1990,2877,e
1789467773.653228,2341,2881,e
1789467773.654656,1805,2878,e
1789467773.657544,2169,2879,e
1789467773.658945,2085,2879,e
1789467773.661621,1372,2878,e
1789467773.668371,1081,2877,e
1789467773.672245,3215,2883,e
1789467773.6756291,2573,2881,e
1789467773.6764429,1086,2878,e
1789467773.6801999,1993,2878,e
1789467773.680643,3224,2883,e
1789467773.684534,2167,2879,e
1789467773.6852648,1844,2877,e
1789467773.685524,1846,2878,e
1789467773.6881979,2046,2877,e
1789467773.6883311,2013,2878,e
1789467773.688378,2054,2880,e
1789467773.688423,1964,2877,e
1789467773.689852,2332,2880,e
1789467773.691156,1367,2876,e
1789467773.693641,2101,2877,e
1789467773.700369,2289,2881,e
1789467773.701186,2061,2880,e
1789467773.704202,1884,2877,e
1789467773.706184,2242,2880,e
1789467773.7115378,2255,2879,e
1789467773.711843,2146,2879,e
1789467773.715789,2115,2880,e
1789467773.716008,1737,2877,e
1789467773.716652,2451,2880,e
1789467773.719425,2670,2883,e
1789467773.7198489,1211,2876,e
1789467773.719966,2706,2881,e
1789467773.720077,2191,2880,e
1789467773.721567,2239,2880,e
1789467773.7229261,2109,2880,e
1789467773.725301,2061,2877,e
1789467773.72666,1494,2878,e
1789467773.7293708,1216,2877,e
1789467773.730769,2665,2882,e
1789467773.733336,2711,2881,e
1789467773.7346601,2046,2878,e
1789467773.73717,1996,2880,e
1789467773.7395809,1902,2879,e
1789467773.741089,2309,2881,e
1789467773.743514,2645,2881,e
1789467773.74475,2012,2879,e
1789467773.747464,1574,2878,e
1789467773.749152,2184,2880,e
1789467773.750638,2065,2878,e
1789467773.753304,1806,2880,e
1789467773.75456,1909,2879,e
1789467773.757302,2042,2878,e
1789467773.7587001,1961,2878,e
1789467773.761259,2299,2879,e
1789467773.763551,2419,2881,e
1789467773.775991,2393,2880,e
1789467773.776334,1769,2877,e
1789467773.780339,1926,2877,e
1789467773.785067,1452,2878,e
1789467773.789969,2002,2877,e
1789467773.790737,3073,2882,e
1789467773.7935622,1775,2877,e
1789467773.794956,2047,2880,e
1789467773.7952619,1757,2876,e
1789467773.795317,1747,2878,e
1789467773.795456,2529,2880,e
1789467773.795506,2684,2882,e
1789467773.795555,2193,2879,e
1789467773.795603,1802,2877,e
1789467773.795651,1928,2877,e
1789467773.795698,1899,2877,e
1789467773.79734,2565,2881,e
1789467773.798749,1957,2877,e
1789467773.8077078,1885,2877,e
1789467773.8087318,2391,2879,e
1789467773.810057,1504,2877,e
1789467773.812248,1313,2877,e
1789467773.8156428,3275,2884,e
1789467773.8177762,2080,2879,e
1789467773.818649,1386,2877,e
1789467773.820021,2136,2880,e
1789467773.827518,2645,2881,e
1789467773.8277602,2000,2879,e
1789467773.828105,2057,2880,e
1789467773.828487,2063,2881,e
1789467773.828971,2080,2877,e
1789467773.829324,1888,2878,e
1789467773.8318331,1613,2878,e
1789467773.832968,2093,2879,e
1789467773.833125,2234,2880,e
1789467773.8359349,2065,2879,e
1789467773.837326,1875,2880,e
1789467773.8387258,1916,2877,e
1789467773.841093,1959,2877,e
1789467773.8425732,2201,2880,e
1789467773.84527,1840,2877,e
1789467773.846717,2217,2881,e
1789467773.849258,1909,2875,e
1789467773.850573,2590,2880,e
1789467773.852992,1943,2880,e
1789467773.8545768,1118,2877,e
1789467773.857067,2290,2880,e
1789467773.859746,2712,2882,e
1789467773.861111,2053,2878,e
1789467773.8626099,1755,2877,e
1789467773.8650298,1971,2879,e
1789467773.867579,1867,2878,e
1789467773.8687081,1971,2877,e
1789467773.871136,1339,2876,e
1789467773.872538,2608,2880,e
1789467773.875133,3215,2882,e
1789467773.877414,1697,2876,e
1789467773.8787751,1739,2877,e
1789467773.886605,2382,2880,e
1789467773.886663,2040,2877,e
1789467773.889171,2278,2880,e
1789467773.890113,2074,2880,e
1789467773.892361,2077,2879,e
1789467773.892689,2042,2879,e
1789467773.8929129,1744,2878,e
1789467773.896035,2237,2881,e
1789467773.8988008,2192,2879,e
1789467773.901609,2325,2881,e
1789467773.901941,1976,2877,e
1789467773.907187,2145,2880,e
1789467773.907416,1454,2877,e
1789467773.907758,1771,2878,e
1789467773.908981,2145,2879,e
1789467773.912151,2395,2880,e
1789467773.913339,2297,2880,e
1789467773.9147031,1987,2880,e
1789467773.917046,2135,2881,e
1789467773.929307,2007,2878,e
1789467773.933627,2206,2877,e
1789467773.935613,2531,2881,e
1789467773.943691,2009,2879,e
1789467773.94413,1946,2879,e
1789467773.94442,1983,2879,e
1789467773.946551,2000,2877,e
1789467773.9473522,1960,2877,e
1789467773.947401,2151,2881,e
1789467773.947465,2277,2880,e
1789467773.947516,2385,2880,e
1789467773.947562,2239,2879,e
1789467773.947605,1998,2879,e
1789467773.947647,2118,2880,e
1789467773.9478269,1503,2877,e
1789467773.9488928,1893,2877,e
1789467773.9512389,2289,2880,e
1789467773.953599,1844,2878,e
1789467773.954997,2306,2880,e
1789467773.957369,2654,2881,e
1789467773.958681,1705,2877,e
1789467773.960902,1791,2878,e
1789467773.963476,2676,2881,e
1789467773.964544,2288,2881,e
1789467773.96695,2306,2880,e
1789467773.969522,1987,2877,e
1789467773.9708328,1909,2878,e
1789467773.973025,1993,2880,e
1789467773.975605,1723,2876,e
1789467773.976913,2403,2880,e
1789467773.979295,1988,2877,e
1789467773.980604,2518,2881,e
1789467773.9830132,2367,2881,e
1789467773.985227,1320,2878,e
1789467773.9925911,2281,2881,e
1789467773.993206,2239,2880,e
1789467773.9938822,2388,2879,e
1789467773.9955788,2093,2880,e
1789467773.997321,1901,2877,e
1789467773.9976451,2196,2881,e
1789467774.001364,2032,2878,e
1789467774.0024252,1878,2877,e
1789467774.0025878,2107,2879,e
1789467774.00542,2553,2880,e
1789467774.010488,1972,2879,e
1789467774.0109282,2123,2880,e
1789467774.011111,2249,2880,e
1789467774.0139918,1925,2878,e
1789467774.015313,1959,2877,e
1789467774.016621,2022,2880,e
1789467774.019016,2382,2879,e
1789467774.024663,2029,2879,e
1789467774.024786,2024,2879,e
1789467774.025837,1829,2877,e
1789467774.028171,1891,2876,e
1789467774.029948,2051,2878,e
1789467774.0321112,2337,2881,e
1789467774.0352159,1860,2877,e
1789467774.0353339,2174,2880,e
1789467774.040203,2958,2881,e
1789467774.0405178,2107,2880,e
1789467774.0407,1899,2877,e
1789467774.043466,2384,2881,e
1789467774.044538,2197,2881,e
1789467774.0471182,1659,2877,e
1789467774.0484538,2192,2877,e
1789467774.050783,2406,2881,e
1789467774.0531101,2120,2879,e
1789467774.055521,1943,2879,e
1789467774.056597,1164,2876,e
1789467774.058696,1370,2877,e
1789467774.061036,3501,2884,e
1789467774.0633652,2415,2880,e
1789467774.064474,2081,2879,e
1789467774.0668,2363,2879,e
1789467774.0688798,1776,2877,e
1789467774.071219,2190,2878,e
1789467774.073556,2174,2878,e
1789467774.074618,2009,2877,e
1789467774.0770502,1978,2877,e
1789467774.078945,2054,2879,e
1789467774.0813088,2003,2879,e
1789467774.082716,1945,2876,e
1789467774.092041,2175,2880,e
1789467774.0932,1788,2879,e
1789467774.093875,2040,2878,e
1789467774.094511,2144,2878,e
1789467774.096129,2147,2879,e
1789467774.096571,2088,2879,e
1789467774.098859,1831,2877,e
1789467774.100014,2160,2879,e
1789467774.10161,2385,2880,e
1789467774.109222,2001,2878,e
1789467774.109393,2136,2877,e
1789467774.1095848,2261,2881,e
1789467774.1097522,2119,2880,e
1789467774.1120481,2153,2880,e
1789467774.113334,2177,2880,e
1789467774.114649,1765,2878,e
1789467774.116985,2304,2880,e
1789467774.1232572,2322,2881,e
1789467774.123938,1670,2878,e
1789467774.126119,2199,2881,e
1789467774.1263292,2243,2879,e
1789467774.126642,2103,2879,e
1789467774.128991,1689,2876,e
1789467774.131062,2114,2880,e
1789467774.133406,2502,2881,e
1789467774.1384032,2214,2880,e
1789467774.138741,2153,2880,e
1789467774.1389928,2229,2881,e
1789467774.141048,2255,2880,e
1789467774.143391,2182,2880,e
1789467774.144618,2033,2878,e
1789467774.146703,2139,2882,e
1789467774.149034,1925,2877,e
1789467774.151375,1877,2878,e
1789467774.152687,2242,2880,e
1789467774.155034,2168,2880,e
1789467774.157606,2435,2880,e
1789467774.1588979,1843,2878,e
1789467774.161279,2013,2879,e
1789467774.162582,2313,2881,e
1789467774.164906,2232,2880,e
1789467774.167239,1998,2880,e
1789467774.168538,1680,2878,e
1789467774.1706188,2649,2881,e
1789467774.1731,2392,2880,e
1789467774.1744058,2050,2880,e
1789467774.1767218,2197,2881,e
1789467774.1787899,2232,2881,e
1789467774.184761,2148,2880,e
1789467774.18539,2133,2881,e
1789467774.185499,2169,2881,e
1789467774.188403,2156,2880,e
1789467774.1886451,2174,2881,e
1789467774.1917949,2224,2880,e
1789467774.19332,1980,2878,e
1789467774.1951659,1969,2878,e
1789467774.19971,2295,2880,e
1789467774.199949,2278,2880,e
1789467774.202514,2223,2880,e
1789467774.2027898,1941,2877,e
1789467774.205127,2100,2879,e
1789467774.2074602,2344,2880,e
1789467774.211879,2207,2881,e
1789467774.2120152,2211,2880,e
1789467774.2151139,2229,2882,e
1789467774.215203,2207,2880,e
1789467774.217141,2211,2880,e
1789467774.2189708,2155,2880,e
1789467774.2262762,2035,2879,e
1789467774.226442,2125,2879,e
1789467774.226667,2397,2880,e
1789467774.226849,2274,2881,e
1789467774.229342,2188,2880,e
1789467774.230654,2168,2880,e
1789467774.232995,2192,2880,e
1789467774.235351,2298,2880,e
1789467774.236427,2135,2880,e
1789467774.238563,2062,2879,e
1789467774.24088,2104,2879,e
1789467774.242962,2125,2879,e
1789467774.245281,2092,2880,e
1789467774.246581,2186,2879,e
1789467774.2491388,2277,2880,e
1789467774.2504342,2245,2879,e
1789467774.252764,2110,2879,e
1789467774.254946,2149,2878,e
1789467774.257034,2228,2880,e
1789467774.259361,2213,2880,e
1789467774.260664,2118,2880,e
1789467774.263222,2087,2879,e
1789467774.264548,2087,2880,e
1789467774.271161,2334,2879,e
1789467774.27176,2197,2879,e
1789467774.271842,2156,2880,e
1789467774.274261,2171,2881,e
1789467774.274413,2173,2880,e
1789467774.2782989,2125,2879,e
1789467774.278778,2123,2879,e
1789467774.280871,2145,2880,e
1789467774.285534,2147,2881,e
1789467774.285769,2184,2880,e
1789467774.288173,2133,2880,e
1789467774.289493,2175,2880,e
1789467774.290796,2101,2879,e
1789467774.2970638,2044,2878,e
1789467774.2984178,2145,2880,e
1789467774.2985559,2052,2877,e
1789467774.299042,2274,2880,e
1789467774.300501,2450,2881,e
1789467774.303241,2229,2880,e
1789467774.306114,2187,2879,e
1789467774.310626,2248,2878,e
1789467774.310785,2151,2880,e
1789467774.311084,2138,2878,e
1789467774.3133912,2190,2879,e
1789467774.314671,2147,2881,e
1789467774.317045,2007,2879,e
1789467774.318347,1992,2879,e
1789467774.3206668,1833,2877,e
1789467774.322751,1879,2877,e
1789467774.325332,2390,2880,e
1789467774.326636,2173,2880,e
1789467774.328724,2211,2880,e
1789467774.331079,2117,2878,e
1789467774.3334022,2278,2878,e
1789467774.3346329,2363,2880,e
1789467774.35311,2083,2879,e
1789467774.3532019,2150,2880,e
1789467774.353358,2129,2880,e
1789467774.361892,2232,2880,e
1789467774.3751318,2093,2880,e
1789467774.375193,1814,2877,e
1789467774.375233,1876,2877,e
1789467774.3752708,1967,2877,e
1789467774.375307,1965,2879,e
1789467774.375344,2113,2879,e
1789467774.375381,1730,2876,e
1789467774.375417,1974,2876,e
1789467774.375454,2406,2880,e
1789467774.37549,2111,2880,e
1789467774.376195,2304,2880,e
1789467774.37624,2049,2879,e
1789467774.377248,1821,2877,e
1789467774.3774562,2144,2880,e
1789467774.378276,2611,2881,e
1789467774.378324,2300,2878,e
1789467774.378363,1919,2877,e
1789467774.3784,1910,2877,e
1789467774.3911748,2218,2880,e
1789467774.398199,2120,2877,e
1789467774.398497,1991,2877,e
1789467774.398926,2149,2879,e
1789467774.399102,1975,2877,e
1789467774.399317,2108,2880,e
1789467774.4011781,1957,2877,e
1789467774.401828,2017,2878,e
1789467774.401875,2072,2878,e
1789467774.4019141,2122,2880,e
1789467774.4019551,2223,2879,e
1789467774.403284,2010,2877,e
1789467774.404585,2247,2879,e
1789467774.407059,2242,2879,e
1789467774.409399,1842,2877,e
1789467774.410704,2208,2881,e
1789467774.413266,2140,2880,e
1789467774.414346,2404,2879,e
1789467774.4169788,2406,2879,e
1789467774.419296,2172,2879,e
1789467774.420655,1606,2876,e
1789467774.422996,1800,2878,e
1789467774.4242518,2077,2877,e
1789467774.4265862,1807,2878,e
1789467774.42892,1690,2876,e
1789467774.431296,2262,2880,e
1789467774.432599,2226,2880,e
1789467774.434669,2072,2880,e
1789467774.436995,2115,2880,e
1789467774.438621,2186,2880,e
1789467774.444117,2287,2881,e
1789467774.444675,2008,2878,e
1789467774.446923,2177,2881,e
1789467774.447168,1916,2877,e
1789467774.449384,1912,2877,e
1789467774.4507961,1828,2877,e
1789467774.452986,2124,2879,e
1789467774.457055,1947,2877,e
1789467774.457248,2279,2879,e
1789467774.459532,2231,2881,e
1789467774.460601,1913,2878,e
1789467774.4629261,2042,2878,e
1789467774.467293,2230,2881,e
1789467774.467767,2008,2880,e
1789467774.470104,1980,2876,e
1789467774.470392,2016,2877,e
1789467774.473668,2128,2881,e
1789467774.475893,2100,2880,e
1789467774.479808,1931,2878,e
1789467774.4799418,2019,2877,e
1789467774.482093,2118,2881,e
1789467774.48229,1923,2877,e
1789467774.484608,2068,2880,e
1789467774.4871738,2058,2880,e
1789467774.4884748,2155,2879,e
1789467774.491028,2171,2879,e
1789467774.4922292,2059,2877,e
1789467774.4942951,2060,2877,e
1789467774.4968479,1990,2878,e
1789467774.499064,2137,2880,e
1789467774.50036,2179,2880,e
1789467774.50243,2064,2879,e
1789467774.504748,1958,2877,e
1789467774.507058,2040,2879,e
1789467774.508356,2096,2880,e
1789467774.510431,2058,2879,e
1789467774.512873,2065,2878,e
1789467774.514184,2084,2880,e
1789467774.519239,1997,2877,e
1789467774.519783,2099,2879,e
1789467774.521707,2100,2879,e
1789467774.523426,2021,2878,e
1789467774.525045,2164,2879,e
1789467774.527143,2043,2877,e
1789467774.5310469,1994,2878,e
1789467774.5313852,2200,2880,e
1789467774.533132,2080,2879,e
1789467774.534813,2013,2880,e
1789467774.537227,2087,2880,e
1789467774.54221,2027,2879,e
1789467774.542742,2238,2880,e
1789467774.544377,2022,2877,e
1789467774.5445561,2019,2879,e
1789467774.548289,2185,2880,e
1789467774.5499709,2076,2877,e
1789467774.553938,2048,2879,e
1789467774.554188,2022,2880,e
1789467774.5544052,2050,2878,e
1789467774.556889,2042,2879,e
1789467774.558214,2060,2880,e
1789467774.560357,2015,2878,e
1789467774.562458,2039,2879,e
1789467774.564998,1949,2878,e
1789467774.566298,2190,2880,e
1789467774.568615,2162,2879,e
1789467774.570935,1962,2876,e
1789467774.573005,2041,2879,e
1789467774.575328,2061,2879,e
1789467774.5763881,1984,2878,e
1789467774.578947,2192,2881,e
1789467774.581084,2191,2880,e
1789467774.582226,1965,2876,e
1789467774.584348,1987,2876,e
1789467774.586665,2024,2880,e
1789467774.5889869,2042,2878,e
1789467774.594144,2014,2876,e
1789467774.594621,1913,2878,e
1789467774.595131,2039,2878,e
1789467774.596906,2092,2881,e
1789467774.598922,2087,2879,e
1789467774.6009011,2136,2879,e
1789467774.6028318,2119,2879,e
1789467774.606582,2102,2879,e
1789467774.60675,2141,2881,e
1789467774.608896,2107,2880,e
1789467774.611211,2052,2878,e
1789467774.612511,2066,2879,e
1789467774.6169531,2053,2878,e
1789467774.618253,2070,2879,e
1789467774.618735,2031,2879,e
1789467774.622027,1968,2876,e
1789467774.625412,2131,2879,e
1789467774.625559,2053,2877,e
1789467774.629062,2072,2877,e
1789467774.629214,2086,2878,e
1789467774.631524,2133,2879,e
1789467774.6328409,2181,2880,e
1789467774.6351209,2080,2879,e
1789467774.636182,2062,2879,e
1789467774.638494,2224,2879,e
1789467774.6410592,2197,2881,e
1789467774.6423612,2085,2880,e
1789467774.644914,1935,2878,e
1789467774.6462111,1923,2877,e
1789467774.648761,2131,2879,e
1789467774.6510851,2181,2879,e
1789467774.652191,2049,2878,e
1789467774.654507,2030,2879,e
1789467774.6565828,2063,2879,e
1789467774.658886,2104,2880,e
1789467774.661189,2100,2877,e
1789467774.6622431,2042,2879,e
1789467774.667739,2132,2881,e
1789467774.6681678,2142,2880,e
1789467774.668601,2057,2879,e
1789467774.670547,2021,2878,e
1789467774.67365,2027,2879,e
1789467774.675657,1955,2879,e
1789467774.678796,1887,2879,e
1789467774.678993,2270,2881,e
1789467774.680671,2392,2881,e
1789467774.68323,1959,2876,e
1789467774.684521,1955,2877,e
1789467774.688187,2153,2879,e
1789467774.689004,2321,2880,e
1789467774.690872,2029,2877,e
1789467774.692822,2012,2878,e
1789467774.694898,2113,2877,e
1789467774.699232,2101,2880,e
1789467774.6995058,2092,2879,e
1789467774.7011352,1870,2877,e
1789467774.7021928,1900,2876,e
1789467774.704471,2130,2880,e
1789467774.70703,2089,2879,e
1789467774.708322,2079,2879,e
1789467774.710479,2026,2879,e
1789467774.713032,2068,2879,e
1789467774.714327,2074,2878,e
1789467774.716715,2085,2880,e
1789467774.719265,2096,2879,e
1789467774.7205582,2102,2879,e
1789467774.722862,2063,2880,e
1789467774.725174,2004,2876,e
1789467774.726466,2123,2881,e
1789467774.7290182,1971,2878,e
1789467774.73031,2170,2881,e
1789467774.736041,2221,2879,e
1789467774.736895,2110,2880,e
1789467774.737782,2120,2880,e
1789467774.7389681,2111,2879,e
1789467774.7405581,2142,2880,e
1789467774.74409,2107,2880,e
1789467774.744283,2066,2877,e
1789467774.74733,2067,2878,e
1789467774.749373,2081,2880,e
1789467774.7504342,2070,2879,e
1789467774.757032,2032,2880,e
1789467774.757917,2046,2879,e
1789467774.758744,2070,2880,e
1789467774.7599869,2026,2879,e
1789467774.760162,2074,2877,e
1789467774.7628522,2004,2879,e
1789467774.765267,1839,2878,e
1789467774.768234,2113,2880,e
1789467774.768437,2295,2879,e
1789467774.770536,2092,2879,e
1789467774.772863,2176,2879,e
1789467774.774933,2220,2880,e
1789467774.776126,2080,2878,e
1789467774.7786791,2099,2879,e
1789467774.7809951,2153,2879,e
1789467774.7822888,2108,2879,e
1789467774.784605,1994,2876,e
1789467774.7869241,2010,2878,e
1789467774.78899,2060,2879,e
1789467774.790108,2096,2881,e
1789467774.792226,2084,2880,e
1789467774.7945359,2081,2877,e
1789467774.7970839,2078,2878,e
1789467774.798259,2131,2881,e
1789467774.8005672,2064,2880,e
1789467774.8048708,2021,2879,e
1789467774.804987,2010,2879,e
1789467774.8074949,1958,2877,e
1789467774.8090749,1875,2878,e
1789467774.811046,2074,2879,e
1789467774.8127449,2295,2881,e
1789467774.815664,2181,2880,e
1789467774.817811,2004,2877,e
1789467774.819094,2076,2880,e
1789467774.820388,2156,2879,e
1789467774.8252642,2053,2879,e
1789467774.825706,2018,2877,e
1789467774.828088,2181,2881,e
1789467774.828331,2103,2880,e
1789467774.831142,2106,2880,e
1789467774.833153,2207,2881,e
1789467774.835881,2164,2879,e
1789467774.8375769,1958,2877,e
1789467774.838642,1999,2876,e
1789467774.841194,2112,2880,e
1789467774.8425019,2100,2879,e
1789467774.844827,1986,2877,e
1789467774.8461199,2063,2881,e
1789467774.84867,2059,2879,e
1789467774.8511329,2069,2879,e
1789467774.852424,2064,2879,e
1789467774.8549728,2203,2879,e
1789467774.8560908,2141,2880,e
1789467774.85856,2048,2877,e
1789467774.8611069,2003,2877,e
1789467774.8623989,2066,2878,e
1789467774.864946,2092,2879,e
1789467774.8662379,2014,2876,e
1789467774.872233,2028,2879,e
1789467774.873058,2027,2880,e
1789467774.873177,2156,2879,e
1789467774.875242,2095,2880,e
1789467774.877155,2137,2880,e
1789467774.878464,2068,2878,e
1789467774.880509,2156,2880,e
1789467774.8831072,2158,2880,e
1789467774.885138,2075,2878,e
1789467774.886188,2069,2879,e
1789467774.8887732,2188,2879,e
1789467774.892885,2118,2879,e
1789467774.893677,2042,2878,e
1789467774.8956149,1942,2878,e
1789467774.897434,2039,2878,e
1789467774.8993049,2226,2881,e
1789467774.903073,2074,2879,e
1789467774.9032729,2116,2879,e
1789467774.904948,2130,2879,e
1789467774.907258,2007,2877,e
1789467774.908553,2099,2880,e
1789467774.910869,2045,2877,e
1789467774.9131851,2035,2878,e
1789467774.914479,2090,2881,e
1789467774.9168699,2055,2879,e
1789467774.91814,2030,2879,e
1789467774.920691,2028,2879,e
1789467774.923201,2107,2880,e
1789467774.924493,2091,2880,e
1789467774.926794,2104,2880,e
1789467774.929245,2123,2880,e
1789467774.930542,2036,2876,e
1789467774.932843,2029,2878,e
1789467774.934916,2020,2876,e
1789467774.9397929,2227,2880,e
1789467774.9402518,2126,2878,e
1789467774.9410071,2047,2878,e
1789467774.943393,2097,2879,e
1789467774.944993,2046,2878,e
1789467774.947509,2096,2879,e
1789467774.950218,2092,2877,e
1789467774.950475,2004,2878,e
1789467774.9520938,2131,2881,e
1789467774.954409,2043,2878,e
1789467774.959414,2076,2878,e
1789467774.9598532,2062,2879,e
1789467774.9606771,2064,2877,e
1789467774.962517,2101,2878,e
1789467774.965536,2134,2881,e
1789467774.967583,2100,2881,e
1789467774.97011,2064,2879,e
1789467774.9702919,2075,2878,e
1789467774.972453,2069,2878,e
1789467774.975007,2039,2879,e
1789467774.976318,1956,2878,e
1789467774.9786408,2060,2879,e
1789467774.9799502,2161,2881,e
1789467774.982504,2086,2879,e
1789467774.9849758,2095,2879,e
1789467774.986031,2112,2880,e
1789467774.988333,2092,2878,e
1789467774.990658,2165,2880,e
1789467774.991958,2133,2879,e
1789467774.9945102,2080,2878,e
1789467774.996723,2103,2878,e
1789467774.999037,2116,2880,e
1789467775.000083,2084,2878,e
1789467775.0021482,2040,2879,e
1789467775.007654,2054,2879,e
1789467775.007812,2015,2879,e
1789467775.008328,1977,2877,e
1789467775.0116422,2000,2878,e
1789467775.013383,2101,2878,e
1789467775.015249,2039,2877,e
1789467775.0177522,2059,2879,e
1789467775.019704,2167,2879,e
1789467775.021007,2054,2877,e
1789467775.0223098,2129,2879,e
1789467775.027273,2156,2880,e
1789467775.028049,1965,2878,e
1789467775.0284538,1950,2879,e
1789467775.031286,2323,2881,e
1789467775.033188,2187,2880,e
1789467775.034467,1640,2877,e
1789467775.036573,1965,2878,e
1789467775.03822,2201,2879,e
1789467775.040781,2365,2881,e
1789467775.0420759,2713,2881,e
1789467775.0446348,1999,2877,e
1789467775.0469341,1766,2878,e
1789467775.0479832,2104,2878,e
1789467775.050285,2428,2881,e
1789467775.05283,1858,2877,e
1789467775.0541198,2288,2879,e
1789467775.0562382,2079,2878,e
1789467775.058783,1816,2877,e
1789467775.060071,1747,2878,e
1789467775.062616,2321,2881,e
1789467775.0649269,2173,2880,e
1789467775.066217,2032,2879,e
1789467775.070872,2308,2880,e
1789467775.070998,2293,2880,e
1789467775.0733361,1998,2878,e
1789467775.075181,1850,2878,e
1789467775.078181,2111,2878,e
1789467775.078318,2125,2879,e
1789467775.0824661,1983,2879,e
1789467775.082685,1925,2877,e
1789467775.084994,2263,2879,e
1789467775.0860522,2332,2880,e
1789467775.08862,1921,2879,e
1789467775.089917,1953,2876,e
1789467775.092245,2124,2880,e
1789467775.0945542,1956,2877,e
1789467775.097106,2078,2878,e
1789467775.0983949,2128,2880,e
1789467775.1008809,2409,2879,e
1789467775.102172,2050,2879,e
1789467775.104471,1917,2879,e
1789467775.106775,2064,2879,e
1789467775.107928,2078,2877,e
1789467775.110315,2144,2879,e
1789467775.116431,2020,2878,e
1789467775.116528,2265,2880,e
1789467775.117213,2025,2879,e
1789467775.118824,1911,2876,e
1789467775.120333,2028,2879,e
1789467775.122446,1952,2876,e
1789467775.1259,2204,2881,e
1789467775.126037,2364,2880,e
1789467775.128618,2177,2881,e
1789467775.1308448,2075,2878,e
1789467775.132156,2171,2879,e
1789467775.134731,2023,2878,e
1789467775.136032,1859,2878,e
1789467775.138358,1525,2877,e
1789467775.140694,2138,2879,e
1789467775.143007,2873,2882,e
1789467775.1440651,2049,2880,e
1789467775.146383,1935,2877,e
1789467775.1487,2171,2880,e
1789467775.149997,2259,2881,e
1789467775.1523252,1846,2878,e
1789467775.154615,2092,2877,e
1789467775.1570702,2089,2880,e
1789467775.1616058,2141,2880,e
1789467775.162115,2127,2879,e
1789467775.162622,1644,2876,e
1789467775.167479,1836,2877,e
1789467775.167947,2331,2879,e
1789467775.168777,2331,2881,e
1789467775.171217,2125,2879,e
1789467775.173538,2044,2879,e
1789467775.175692,1969,2877,e
1789467775.176995,2164,2880,e
1789467775.1782908,1940,2878,e
1789467775.183445,1658,2879,e
1789467775.183928,1864,2877,e
1789467775.18473,1831,2878,e
1789467775.187718,2249,2880,e
1789467775.188212,2581,2880,e
1789467775.191087,1976,2878,e
1789467775.193303,1402,2878,e
1789467775.1954591,2032,2878,e
1789467775.196758,2407,2881,e
1789467775.198248,2218,2879,e
1789467775.200734,2065,2880,e
1789467775.201886,1573,2877,e
1789467775.2042172,2120,2879,e
1789467775.2065432,2456,2881,e
1789467775.207865,1977,2880,e
1789467775.210189,1714,2876,e
1789467775.212509,2257,2879,e
1789467775.215065,2310,2880,e
1789467775.216363,2310,2880,e
1789467775.2186902,1758,2878,e
1789467775.2208269,1259,2877,e
1789467775.221906,1636,2876,e
1789467775.224215,2439,2879,e
1789467775.230269,2146,2880,e
1789467775.230837,1729,2876,e
1789467775.2313972,1976,2878,e
1789467775.233921,2718,2881,e
1789467775.234126,1901,2877,e
1789467775.2373812,1789,2877,e
1789467775.239362,2474,2880,e
1789467775.241736,1892,2878,e
1789467775.242072,1351,2877,e
1789467775.2449112,2069,2879,e
1789467775.2459579,1703,2878,e
1789467775.2525299,1819,2878,e
1789467775.253047,1937,2877,e
1789467775.254733,2323,2881,e
1789467775.254941,1932,2878,e
1789467775.257405,2238,2880,e
1789467775.260158,2355,2880,e
1789467775.260503,1612,2876,e
1789467775.265026,2093,2878,e
1789467775.265078,2121,2879,e
1789467775.2661319,1506,2878,e
1789467775.268689,1126,2877,e
1789467775.269801,2156,2879,e
1789467775.272372,2506,2881,e
1789467775.2746692,1786,2876,e
1789467775.275969,1733,2877,e
1789467775.278283,2410,2881,e
1789467775.280837,2009,2879,e
1789467775.2821388,2270,2880,e
1789467775.284693,1742,2879,e
1789467775.2861319,1302,2878,e
1789467775.28848,2538,2879,e
1789467775.289794,2107,2880,e
1789467775.292115,2008,2880,e
1789467775.294432,1914,2878,e
1789467775.3008268,1349,2878,e
1789467775.303019,2187,2878,e
1789467775.3031812,2463,2881,e
1789467775.303326,1989,2878,e
1789467775.304852,1707,2877,e
1789467775.306932,1711,2877,e
1789467775.3088288,1821,2876,e
1789467775.3130171,1591,2878,e
1789467775.313568,1994,2878,e
1789467775.314629,2051,2878,e
1789467775.315926,1421,2877,e
1789467775.3213398,2309,2880,e
1789467775.322122,2556,2880,e
1789467775.322252,1832,2876,e
1789467775.3241441,1627,2877,e
1789467775.328191,1293,2877,e
1789467775.329731,2144,2878,e
1789467775.329864,1803,2878,e
1789467775.332698,1450,2878,e
1789467775.335171,2488,2880,e
1789467775.336492,1651,2877,e
1789467775.3388631,2256,2880,e
1789467775.340169,2391,2880,e
1789467775.342701,1864,2878,e
1789467775.343999,1566,2878,e
1789467775.3465521,2312,2880,e
1789467775.347865,2017,2877,e
1789467775.350441,1619,2877,e
1789467775.35174,1163,2877,e
1789467775.353908,1691,2877,e
1789467775.356459,2136,2879,e
1789467775.35774,2749,2881,e
1789467775.360051,1838,2877,e
1789467775.362134,1190,2878,e
1789467775.3642628,1852,2878,e
1789467775.366549,2347,2880,e
1789467775.373023,1703,2877,e
1789467775.374059,1260,2877,e
1789467775.375471,2139,2880,e
1789467775.3757381,2037,2881,e
1789467775.3771951,1015,2877,e
1789467775.379292,1764,2877,e
1789467775.381469,2023,2879,e
1789467775.384299,2054,2878,e
1789467775.3846312,2090,2877,e
1789467775.386452,1851,2877,e
1789467775.388785,1326,2876,e
1789467775.3900852,1778,2876,e
1789467775.395299,2055,2879,e
1789467775.3957279,1692,2876,e
1789467775.39617,2223,2881,e
1789467775.39938,2303,2880,e
1789467775.401145,2151,2880,e
1789467775.403564,1902,2877,e
1789467775.403755,1113,2878,e
1789467775.40673,2152,2879,e
1789467775.408868,2355,2879,e
1789467775.409984,2058,2879,e
1789467775.412147,2037,2879,e
1789467775.4145339,2136,2880,e
1789467775.415838,1335,2879,e
1789467775.418319,1643,2878,e
1789467775.420587,3349,2883,e
1789467775.421729,2247,2880,e
1789467775.424076,1317,2877,e
1789467775.426396,1487,2878,e
1789467775.428752,1684,2878,e
1789467775.43007,2168,2880,e
1789467775.432287,2736,2881,e
1789467775.433734,2399,2880,e
1789467775.4361029,2216,2881,e
1789467775.43847,1865,2877,e
1789467775.439779,1927,2877,e
1789467775.446657,1662,2878,e
1789467775.446826,1768,2879,e
1789467775.447288,2614,2881,e
1789467775.4496481,1962,2878,e
1789467775.449905,2317,2879,e
1789467775.4529762,1262,2877,e
1789467775.4554439,2304,2881,e
1789467775.458554,2653,2880,e
1789467775.4587488,2036,2878,e
1789467775.46119,1323,2878,e
1789467775.462261,2277,2881,e
1789467775.4652328,1867,2877,e
1789467775.47015,2017,2880,e
1789467775.470743,1156,2876,e
1789467775.4726038,2015,2880,e
1789467775.474462,2405,2881,e
1789467775.4749372,2323,2881,e
1789467775.476892,2158,2880,e
1789467775.481492,1427,2878,e
1789467775.4817479,2425,2880,e
1789467775.482208,2682,2881,e
1789467775.483925,1804,2877,e
1789467775.486712,1691,2876,e
1789467775.488086,1936,2878,e
1789467775.490483,1536,2877,e
1789467775.4918551,1920,2877,e
1789467775.494346,1475,2877,e
1789467775.495709,1570,2878,e
1789467775.4982631,2693,2881,e
1789467775.50087,1779,2878,e
1789467775.502165,2151,2881,e
1789467775.504483,1690,2878,e
1789467775.505781,1715,2878,e
1789467775.5078669,2743,2882,e
1789467775.5104342,1916,2878,e
1789467775.512545,1778,2878,e
1789467775.513846,2469,2879,e
1789467775.515928,1832,2879,e
1789467775.521783,1382,2876,e
1789467775.523305,1227,2878,e
1789467775.5234299,2535,2881,e
1789467775.525295,2124,2880,e
1789467775.527974,1347,2878,e
1789467775.52813,1764,2878,e
1789467775.5312152,2469,2880,e
1789467775.534723,2610,2881,e
1789467775.534869,1917,2879,e
1789467775.536662,1040,2876,e
1789467775.537725,2481,2881,e
1789467775.54016,2211,2878,e
1789467775.545279,2048,2878,e
1789467775.545727,2518,2881,e
1789467775.546685,1657,2876,e
1789467775.548377,1791,2876,e
1789467775.550076,1877,2876,e
1789467775.551702,2288,2878,e
1789467775.5573041,1601,2876,e
1789467775.557581,2140,2877,e
1789467775.557725,1981,2878,e
1789467775.5606039,1559,2877,e
1789467775.561902,2445,2879,e
1789467775.564168,2548,2881,e
1789467775.566489,2496,2881,e
1789467775.567791,1692,2877,e
1789467775.570154,2159,2878,e
1789467775.5727181,1851,2879,e
1789467775.573765,2100,2879,e
1789467775.575837,2889,2883,e
1789467775.578153,1546,2876,e
1789467775.58068,1630,2877,e
1789467775.581974,1646,2877,e
1789467775.584528,1959,2877,e
1789467775.585674,2245,2881,e
1789467775.5882611,1244,2877,e
1789467775.590581,2830,2882,e
1789467775.5916579,3215,2884,e
1789467775.597266,1866,2879,e
1789467775.597785,1590,2877,e
1789467775.598738,2183,2879,e
1789467775.600537,2530,2881,e
1789467775.603206,2083,2878,e
1789467775.604714,1997,2877,e
1789467775.6065211,2014,2878,e
1789467775.609777,1142,2876,e
1789467775.610045,2132,2880,e
1789467775.612114,2121,2879,e
1789467775.614424,2262,2880,e
1789467775.6189451,2160,2880,e
1789467775.6193469,2449,2881,e
1789467775.620717,2647,2881,e
1789467775.6221619,1645,2878,e
1789467775.624036,2430,2879,e
1789467775.6271539,2127,2879,e
1789467775.630464,2166,2879,e
1789467775.630713,1658,2877,e
1789467775.632808,1455,2878,e
1789467775.634113,2180,2879,e
1789467775.63688,2450,2879,e
1789467775.638208,2072,2880,e
1789467775.640526,1747,2877,e
1789467775.6416261,1946,2878,e
1789467775.644188,2797,2881,e
1789467775.646741,1980,2877,e
1789467775.648034,2092,2880,e
1789467775.650582,2245,2880,e
1789467775.651875,1608,2877,e
1789467775.6542342,2579,2882,e
1789467775.656632,1808,2878,e
1789467775.6577961,2601,2882,e
1789467775.659872,2420,2881,e
1789467775.6623528,2356,2880,e
1789467775.6673942,1992,2876,e
1789467775.667865,1878,2877,e
1789467775.668712,2302,2880,e
1789467775.670751,2491,2879,e
1789467775.672847,1871,2876,e
1789467775.67418,1706,2877,e
1789467775.676149,2143,2880,e
1789467775.679574,2351,2880,e
1789467775.6797261,2529,2881,e
1789467775.682668,2294,2879,e
1789467775.683962,2170,2880,e
1789467775.689482,2511,2880,e
1789467775.68992,2157,2879,e
1789467775.690505,1926,2878,e
1789467775.692464,2395,2881,e
1789467775.694165,2036,2879,e
1789467775.696034,1948,2876,e
1789467775.697838,1855,2877,e
1789467775.7014132,2104,2880,e
1789467775.701777,2169,2880,e
1789467775.703848,1996,2878,e
1789467775.706156,2137,2880,e
1789467775.7084742,2116,2879,e
1789467775.709532,2681,2880,e
1789467775.712082,2448,2880,e
1789467775.7142138,1802,2877,e
1789467775.716525,2267,2880,e
1789467775.717817,2178,2880,e
1789467775.7203891,2299,2880,e
1789467775.721691,1671,2879,e
1789467775.724115,2417,2880,e
1789467775.725645,2460,2880,e
1789467775.7279859,1515,2877,e
1789467775.730539,1969,2877,e
1789467775.731594,2158,2879,e
1789467775.7339032,1876,2877,e
1789467775.739211,2566,2880,e
1789467775.7412229,2804,2881,e
1789467775.741332,1014,2876,e
1789467775.743167,1714,2876,e
1789467775.744451,2130,2878,e
1789467775.746782,3093,2884,e
1789467775.750417,2167,2880,e
1789467775.750566,1976,2879,e
1789467775.752861,2069,2880,e
1789467775.7541802,2128,2879,e
1789467775.75548,2341,2881,e
1789467775.7609851,2155,2878,e
1789467775.761473,2117,2880,e
1789467775.762223,1896,2877,e
1789467775.765036,2222,2880,e
1789467775.7667031,2444,2880,e
1789467775.768848,1614,2876,e
1789467775.772546,1985,2878,e
1789467775.772702,2341,2881,e
1789467775.774768,2244,2881,e
1789467775.7760699,1976,2877,e
1789467775.7781398,2167,2881,e
1789467775.780458,1684,2878,e
1789467775.781518,2150,2882,e
1789467775.7840698,2437,2880,e
1789467775.7862809,2043,2879,e
1789467775.78744,2403,2880,e
1789467775.7897658,2424,2880,e
1789467775.7922392,2128,2878,e
1789467775.7943099,1913,2879,e
1789467775.795603,1780,2878,e
1789467775.7979121,2412,2880,e
1789467775.800469,2000,2880,e
1789467775.801766,1647,2876,e
1789467775.804075,2172,2879,e
1789467775.810004,2621,2881,e
1789467775.810878,2380,2881,e
1789467775.811359,2096,2879,e
1789467775.812883,1835,2878,e
1789467775.814315,1726,2878,e
1789467775.8163588,2595,2881,e
1789467775.822048,2318,2880,e
1789467775.822171,1956,2879,e
1789467775.822285,2050,2879,e
1789467775.8244128,2067,2879,e
1789467775.82571,994,2877,e
1789467775.8281941,2361,2879,e
1789467775.8319821,2274,2880,e
1789467775.832756,1702,2876,e
1789467775.8381891,2829,2881,e
1789467775.844349,2545,2880,e
1789467775.844508,2000,2878,e
1789467775.844686,2096,2880,e
1789467775.844864,2019,2878,e
1789467775.845037,2406,2879,e
1789467775.8468091,2247,2880,e
1789467775.847878,1867,2879,e
1789467775.850386,1645,2877,e
1789467775.851735,1632,2878,e
1789467775.854335,1686,2877,e
1789467775.85567,2235,2879,e
1789467775.858072,2224,2879,e
1789467775.860298,2057,2878,e
1789467775.861742,2034,2877,e
1789467775.864096,2188,2878,e
1789467775.866422,2149,2881,e
1789467775.867727,2294,2880,e
1789467775.870282,2231,2879,e
1789467775.871441,2115,2879,e
1789467775.873763,1734,2877,e
1789467775.875832,1941,2878,e
1789467775.882358,2129,2878,e
1789467775.882839,2491,2881,e
1789467775.883368,2001,2877,e
1789467775.8835049,2019,2879,e
1789467775.885802,1904,2878,e
1789467775.8889759,1627,2876,e
1789467775.891138,2296,2881,e
1789467775.8951192,2515,2881,e
1789467775.8953578,2110,2878,e
1789467775.895529,2350,2881,e
1789467775.89838,2178,2879,e
1789467775.89968,2235,2880,e
1789467775.9051461,2275,2880,e
1789467775.905647,1920,2877,e
1789467775.9065301,1826,2878,e
1789467775.908243,1949,2878,e
1789467775.9101179,2317,2881,e
1789467775.911721,1844,2877,e
1789467775.917376,2601,2880,e
1789467775.917595,2307,2880,e
1789467775.91774,2007,2878,e
1789467775.919939,1705,2877,e
1789467775.9222558,2328,2881,e
1789467775.923459,2437,2880,e
1789467775.925786,2043,2877,e
1789467775.9280992,2107,2881,e
1789467775.930402,1947,2877,e
1789467775.931454,1983,2876,e
1789467775.9340181,1985,2877,e
1789467775.936343,2269,2879,e
1789467775.937402,2406,2880,e
1789467775.93972,2173,2879,e
1789467775.942334,2012,2877,e
1789467775.943635,1876,2877,e
1789467775.946191,2080,2877,e
1789467775.947498,2106,2880,e
1789467775.950051,2223,2879,e
1789467775.9557278,2179,2880,e
1789467775.957084,2302,2878,e
1789467775.958563,2219,2879,e
1789467775.95871,2146,2880,e
1789467775.960425,1986,2878,e
1789467775.9620328,1382,2879,e
1789467775.9641001,2973,2881,e
1789467775.968242,2865,2882,e
1789467775.968342,1801,2879,e
1789467775.9705322,1850,2877,e
1789467775.971838,2356,2880,e
1789467775.9744582,2392,2881,e
1789467775.978266,2327,2880,e
1789467775.979467,2157,2877,e
1789467775.979892,2030,2877,e
1789467775.982618,2290,2881,e
1789467775.984096,1697,2877,e
1789467775.986333,1700,2876,e
1789467775.990486,2156,2880,e
1789467775.990616,2252,2880,e
1789467775.9923441,2109,2879,e
1789467775.9936519,2359,2881,e
1789467775.996207,2442,2881,e
1789467775.9975061,2075,2880,e
1789467775.9998348,2112,2880,e
1789467776.002145,2165,2880,e
1789467776.004457,2066,2879,e
1789467776.0056598,2412,2880,e
1789467776.007967,2235,2879,e
1789467776.01052,2132,2880,e
1789467776.011563,1992,2878,e
1789467776.014113,1792,2878,e
1789467776.015442,2149,2881,e
1789467776.0179331,2649,2881,e
1789467776.020237,2298,2880,e
1789467776.021413,2005,2879,e
1789467776.0272582,2252,2879,e
1789467776.027734,2226,2880,e
1789467776.02822,2186,2881,e
1789467776.030166,2093,2877,e
1789467776.03208,2193,2879,e
1789467776.033747,2152,2881,e
1789467776.035599,2059,2879,e
1789467776.039693,2142,2879,e
1789467776.039958,2182,2880,e
1789467776.04195,2176,2878,e
1789467776.0445461,2184,2880,e
1789467776.049696,2223,2880,e
1789467776.0521321,2254,2880,e
1789467776.0524108,2166,2879,e
1789467776.053925,2233,2880,e
1789467776.054862,2159,2879,e
1789467776.058072,2135,2879,e
1789467776.062189,2234,2879,e
1789467776.062305,2124,2880,e
1789467776.0625339,2213,2880,e
1789467776.0642471,2225,2880,e
1789467776.0654762,2153,2880,e
1789467776.068039,2175,2879,e
1789467776.070121,2345,2879,e
1789467776.072427,2252,2878,e
1789467776.0735319,2218,2879,e
1789467776.075938,2249,2880,e
1789467776.078024,2271,2879,e
1789467776.0801,2340,2880,e
1789467776.081413,2329,2880,e
1789467776.08377,2258,2880,e
1789467776.0861151,2212,2881,e
1789467776.08829,2262,2880,e
1789467776.089588,2275,2880,e
1789467776.091893,2206,2880,e
1789467776.094211,2073,2878,e
1789467776.099523,2377,2880,e
1789467776.10042,2365,2879,e
1789467776.1008909,2243,2880,e
1789467776.1028101,2242,2878,e
1789467776.10422,2194,2880,e
1789467776.1063192,2033,2878,e
1789467776.108497,2038,2877,e
1789467776.1125472,2273,2880,e
1789467776.11267,2373,2881,e
1789467776.114414,2339,2880,e
1789467776.1154728,2409,2880,e
1789467776.118029,2321,2881,e
1789467776.122306,2008,2878,e
1789467776.123532,2151,2880,e
1789467776.125205,2546,2881,e
1789467776.1254091,2426,2880,e
1789467776.128854,2079,2879,e
1789467776.130622,1965,2877,e
1789467776.134541,2222,2880,e
1789467776.134675,2233,2880,e
1789467776.1367612,2170,2878,e
1789467776.138072,2123,2880,e
1789467776.139265,2116,2881,e
1789467776.141584,1919,2877,e
1789467776.1441422,1916,2877,e
1789467776.145437,2190,2880,e
1789467776.1477492,2463,2880,e
1789467776.1502988,2294,2879,e
1789467776.151346,2249,2880,e
1789467776.153666,2155,2879,e
1789467776.156296,2155,2880,e
1789467776.157351,2316,2880,e
1789467776.1599019,2104,2877,e
1789467776.162215,1943,2877,e
1789467776.163274,2159,2880,e
1789467776.165827,2316,2880,e
1789467776.16724,1923,2878,e
1789467776.171825,2087,2879,e
1789467776.1726668,1971,2877,e
1789467776.174596,2023,2878,e
1789467776.1761642,2296,2881,e
1789467776.17776,2245,2881,e
1789467776.179958,2154,2879,e
1789467776.184111,1995,2879,e
1789467776.1842618,2057,2880,e
1789467776.186728,2204,2880,e
1789467776.1879182,2226,2880,e
1789467776.193995,2449,2881,e
1789467776.1952472,2173,2881,e
1789467776.1957061,1863,2877,e
1789467776.1958241,1921,2878,e
1789467776.198782,2287,2881,e
1789467776.200018,2157,2879,e
1789467776.201979,1840,2877,e
1789467776.206058,2052,2879,e
1789467776.206198,2117,2878,e
1789467776.208261,2160,2880,e
1789467776.2095811,2195,2880,e
1789467776.2118962,2112,2880,e
1789467776.213193,2108,2880,e
1789467776.215275,2040,2879,e
1789467776.217603,1979,2877,e
1789467776.2207181,2145,2879,e
1789467776.2220318,2080,2880,e
1789467776.2243872,2241,2879,e
1789467776.225661,2298,2880,e
1789467776.2282062,1966,2878,e
1789467776.229502,1752,2877,e
1789467776.232054,2199,2879,e
1789467776.234126,2335,2881,e
1789467776.235421,2073,2880,e
1789467776.237497,1880,2876,e
1789467776.239829,1971,2877,e
1789467776.24437,2264,2880,e
1789467776.245734,2128,2882,e
1789467776.245868,2288,2879,e
1789467776.248579,2178,2879,e
1789467776.2502458,1951,2879,e
1789467776.2563908,1988,2878,e
1789467776.256643,2137,2880,e
1789467776.256813,2166,2880,e
1789467776.2590332,1904,2877,e
1789467776.2603352,1938,2877,e
1789467776.261387,1911,2879,e
1789467776.265972,2265,2880,e
1789467776.26645,2206,2879,e
1789467776.2689931,2097,2880,e
1789467776.271053,2064,2880,e
1789467776.271884,2186,2880,e
1789467776.2745001,2036,2879,e
1789467776.278356,2176,2880,e
1789467776.278483,1970,2878,e
1789467776.280573,2059,2879,e
1789467776.281874,2142,2880,e
1789467776.2843149,1814,2877,e
1789467776.285543,2414,2880,e
1789467776.2876348,2201,2879,e
1789467776.290208,2102,2879,e
1789467776.291512,1979,2878,e
1789467776.294065,2088,2879,e
1789467776.295277,2236,2880,e
1789467776.297594,2159,2880,e
1789467776.3001442,2181,2880,e
1789467776.3013902,2034,2880,e
1789467776.303707,1982,2877,e
1789467776.3062642,1957,2879,e
1789467776.3074381,2041,2877,e
1789467776.3099918,2091,2877,e
1789467776.311285,1942,2878,e
1789467776.316098,2155,2880,e
1789467776.317023,2152,2878,e
1789467776.318629,1954,2876,e
1789467776.3207428,2071,2879,e
1789467776.322423,2133,2880,e
1789467776.324318,2114,2880,e
1789467776.327987,2335,2880,e
1789467776.328094,1911,2877,e
1789467776.3299031,1893,2877,e
1789467776.331977,2230,2880,e
1789467776.3332741,2178,2880,e
1789467776.33763,1782,2876,e
1789467776.338044,2017,2878,e
1789467776.340373,2327,2881,e
1789467776.3423092,2115,2881,e
1789467776.3443048,1945,2878,e
1789467776.345729,1882,2878,e
1789467776.349331,2389,2880,e
1789467776.349654,2348,2879,e
1789467776.351712,2082,2878,e
1789467776.354194,1952,2876,e
1789467776.355249,1754,2877,e
1789467776.357598,2115,2878,e
1789467776.360151,2156,2879,e
1789467776.361444,2139,2880,e
1789467776.3639941,2013,2878,e
1789467776.365303,1927,2876,e
1789467776.367384,1977,2877,e
1789467776.36948,2089,2881,e
1789467776.371812,2123,2879,e
1789467776.3738828,2142,2879,e
1789467776.375183,2085,2879,e
1789467776.377485,2028,2877,e
1789467776.379796,2034,2879,e
1789467776.3811789,1988,2878,e
1789467776.386684,1957,2877,e
1789467776.387247,2168,2881,e
1789467776.387796,2146,2879,e
1789467776.389745,2078,2879,e
1789467776.3913238,2047,2876,e
1789467776.398114,2044,2877,e
1789467776.3982038,2158,2879,e
1789467776.398327,2055,2877,e
1789467776.4000142,2095,2880,e
1789467776.401312,2090,2879,e
1789467776.4038668,1992,2876,e
1789467776.408104,2122,2879,e
1789467776.4087691,2038,2879,e
1789467776.410354,1968,2878,e
1789467776.4120488,2032,2877,e
1789467776.413573,2053,2877,e
1789467776.415273,2059,2879,e
1789467776.418537,2039,2879,e
1789467776.4205089,2030,2879,e
1789467776.421828,2046,2879,e
1789467776.423149,2059,2879,e
1789467776.4256809,1984,2876,e
1789467776.4283142,2068,2878,e
1789467776.429627,2042,2877,e
1789467776.431982,2140,2880,e
1789467776.433289,2084,2879,e
1789467776.435838,2031,2878,e
1789467776.43814,2038,2877,e
1789467776.439436,2028,2877,e
1789467776.441698,1993,2878,e
1789467776.444003,2077,2879,e
1789467776.4452941,2027,2878,e
1789467776.4476008,2101,2881,e
1789467776.4496799,2084,2880,e
1789467776.4556632,2043,2878,e
1789467776.456573,1968,2878,e
1789467776.457983,2212,2879,e
1789467776.458189,2101,2880,e
1789467776.459604,2065,2878,e
1789467776.4614668,2116,2881,e
1789467776.463273,2085,2880,e
1789467776.4663901,2020,2877,e
1789467776.46864,2108,2879,e
1789467776.469944,2311,2881,e
1789467776.47599,1881,2877,e
1789467776.476469,2054,2881,e
