timestamp,ch1,ch2,label
1789467785.618504,2138,2879,e_S
1789467785.618588,2014,2880,e_S
1789467785.6215,1921,2877,e_S
1789467785.623379,2132,2880,e_S
1789467785.6247349,2053,2879,e_S
1789467785.626774,2087,2878,e_S
1789467785.629498,2194,2880,e_S
1789467785.630802,2060,2878,e_S
1789467785.632869,2143,2879,e_S
1789467785.635183,2143,2879,e_S
1789467785.63643,1912,2877,e_S
1789467785.638981,2101,2880,e_S
1789467785.640178,2203,2880,e_S
1789467785.642731,2057,2877,e_S
1789467785.6441221,2059,2877,e_S
1789467785.646423,2023,2876,e_S
1789467785.648737,2028,2878,e_S
1789467785.651307,2139,2880,e_S
1789467785.652411,2078,2877,e_S
1789467785.654721,2004,2876,e_S
1789467785.657372,1972,2876,e_S
1789467785.661472,2094,2879,e_S
1789467785.662337,2083,2880,e_S
1789467785.662496,2009,2877,e_S
1789467785.666516,2128,2880,e_S
1789467785.66698,2136,2878,e_S
1789467785.669997,2111,2880,e_S
1789467785.672365,2100,2879,e_S
1789467785.672788,2119,2879,e_S
1789467785.674152,2076,2879,e_S
1789467785.676715,2007,2878,e_S
1789467785.678127,2089,2878,e_S
1789467785.6806889,2124,2879,e_S
1789467785.683004,2055,2879,e_S
1789467785.684135,2009,2879,e_S
1789467785.686455,2044,2878,e_S
1789467785.689014,2101,2880,e_S
1789467785.690309,2111,2879,e_S
1789467785.6926231,2121,2879,e_S
1789467785.695185,2061,2878,e_S
1789467785.696479,2035,2878,e_S
1789467785.698712,2059,2878,e_S
1789467785.700783,2015,2876,e_S
1789467785.705654,2115,2879,e_S
1789467785.7061188,2161,2879,e_S
1789467785.7066538,2106,2878,e_S
1789467785.708915,2030,2877,e_S
1789467785.710548,2072,2878,e_S
1789467785.7137809,2123,2879,e_S
1789467785.716665,2079,2877,e_S
1789467785.716892,2125,2879,e_S
1789467785.718403,2150,2879,e_S
1789467785.7209752,2079,2879,e_S
1789467785.7222788,2036,2879,e_S
1789467785.7246,2078,2878,e_S
1789467785.726963,1992,2877,e_S
1789467785.729103,1989,2879,e_S
1789467785.730415,2106,2877,e_S
1789467785.7327318,2062,2881,e_S
1789467785.734154,2055,2879,e_S
1789467785.7362292,2180,2878,e_S
1789467785.738543,2069,2879,e_S
1789467785.740855,2153,2879,e_S
1789467785.742146,2099,2880,e_S
1789467785.7444532,2086,2878,e_S
1789467785.7504761,2144,2880,e_S
1789467785.751348,2116,2880,e_S
1789467785.751799,2087,2880,e_S
1789467785.7533948,2046,2878,e_S
1789467785.7549708,2062,2878,e_S
1789467785.756588,2051,2878,e_S
1789467785.75869,2036,2878,e_S
1789467785.761081,2049,2879,e_S
1789467785.762301,2066,2878,e_S
1789467785.7644758,2078,2877,e_S
1789467785.766784,2113,2878,e_S
1789467785.768856,2073,2878,e_S
1789467785.77124,2030,2877,e_S
1789467785.772295,1988,2876,e_S
1789467785.7748458,1970,2878,e_S
1789467785.776139,2078,2878,e_S
1789467785.778694,2147,2880,e_S
1789467785.780768,2190,2880,e_S
1789467785.783085,2133,2879,e_S
1789467785.784141,1940,2877,e_S
1789467785.78669,2092,2880,e_S
1789467785.788991,2258,2878,e_S
1789467785.790281,2116,2880,e_S
1789467785.7957811,2021,2877,e_S
1789467785.7966359,2024,2876,e_S
1789467785.797805,2133,2879,e_S
1789467785.7994938,2153,2878,e_S
1789467785.8009422,2063,2878,e_S
1789467785.8029141,2057,2878,e_S
1789467785.8055308,2075,2879,e_S
1789467785.8067358,1988,2877,e_S
1789467785.809058,2124,2879,e_S
1789467785.8103628,2106,2880,e_S
1789467785.812901,2079,2877,e_S
1789467785.814111,2090,2880,e_S
1789467785.816442,2031,2878,e_S
1789467785.818917,2029,2878,e_S
1789467785.820117,2100,2879,e_S
1789467785.822182,2123,2880,e_S
1789467785.824507,2016,2878,e_S
1789467785.826665,2000,2877,e_S
1789467785.82929,2078,2878,e_S
1789467785.830401,2088,2880,e_S
1789467785.832962,2125,2878,e_S
1789467785.8342779,2128,2878,e_S
1789467785.836473,2114,2879,e_S
1789467785.8422642,2088,2879,e_S
1789467785.843138,2090,2880,e_S
1789467785.844712,2056,2878,e_S
1789467785.8462038,2066,2878,e_S
1789467785.846373,2104,2879,e_S
1789467785.849626,2082,2880,e_S
1789467785.8536918,2077,2878,e_S
1789467785.854275,2040,2878,e_S
1789467785.9019399,2061,2878,e_S
1789467785.902126,2057,2878,e_S
1789467785.9021828,2013,2877,e_S
1789467785.902221,2036,2878,e_S
1789467785.902256,2062,2877,e_S
1789467785.902406,2147,2880,e_S
1789467785.902516,2064,2879,e_S
1789467785.9025521,2054,2879,e_S
1789467785.9025862,2075,2880,e_S
1789467785.902698,2080,2879,e_S
1789467785.902816,2057,2877,e_S
1789467785.902904,2019,2879,e_S
1789467785.902943,2064,2879,e_S
1789467785.90298,2095,2879,e_S
1789467785.903017,2185,2880,e_S
1789467785.903073,2051,2879,e_S
1789467785.9031098,2003,2878,e_S
1789467785.903146,2057,2879,e_S
1789467785.903182,2161,2880,e_S
1789467785.903229,2113,2880,e_S
1789467785.903318,1980,2879,e_S
1789467785.90339,1969,2877,e_S
1789467785.90343,2032,2878,e_S
1789467785.903466,2240,2880,e_S
1789467785.903507,2088,2879,e_S
1789467785.904822,2074,2878,e_S
1789467785.908863,2096,2879,e_S
1789467785.90891,2146,2880,e_S
1789467785.9102561,1921,2878,e_S
1789467785.912999,2135,2879,e_S
1789467785.9144251,2140,2879,e_S
1789467785.921481,1775,2877,e_S
1789467785.922132,1704,2876,e_S
1789467785.9222348,2634,2878,e_S
1789467785.923284,2533,2879,e_S
1789467785.925138,1537,2877,e_S
1789467785.927449,1905,2879,e_S
1789467785.929392,2244,2878,e_S
1789467785.931346,2301,2881,e_S
1789467785.932771,2016,2878,e_S
1789467785.934676,1745,2876,e_S
1789467785.93679,2222,2879,e_S
1789467785.93962,2405,2880,e_S
1789467785.944614,2077,2879,e_S
1789467785.945181,1842,2876,e_S
1789467785.945726,1761,2877,e_S
1789467785.94787,2102,2879,e_S
1789467785.949606,2591,2881,e_S
1789467785.9510632,2148,2879,e_S
1789467785.9536572,1654,2876,e_S
1789467785.955232,1647,2877,e_S
1789467785.957428,1907,2876,e_S
1789467785.9587462,2527,2880,e_S
1789467785.961956,2190,2880,e_S
1789467785.963285,2016,2877,e_S
1789467785.964589,1852,2879,e_S
1789467785.966731,1848,2878,e_S
1789467785.9688268,1912,2878,e_S
1789467785.9701278,2391,2880,e_S
1789467785.972699,2392,2880,e_S
1789467785.975261,1967,2879,e_S
1789467785.976316,1795,2877,e_S
1789467785.9786382,2057,2877,e_S
1789467785.981197,2016,2878,e_S
1789467785.9824991,1993,2877,e_S
1789467785.985172,2228,2879,e_S
1789467785.986486,1885,2877,e_S
1789467785.988798,1890,2879,e_S
1789467785.990098,1483,2877,e_S
1789467785.995834,2000,2878,e_S
1789467785.996537,2499,2880,e_S
1789467785.997982,1693,2877,e_S
1789467785.999746,1819,2877,e_S
1789467786.002123,2267,2880,e_S
1789467786.002252,2255,2880,e_S
1789467786.007411,1979,2879,e_S
1789467786.007874,1829,2877,e_S
1789467786.010216,1881,2877,e_S
1789467786.0103412,1937,2878,e_S
1789467786.013092,1839,2879,e_S
1789467786.014773,2168,2881,e_S
1789467786.020844,2011,2877,e_S
1789467786.022361,2031,2879,e_S
1789467786.023933,1905,2879,e_S
1789467786.026195,1848,2876,e_S
1789467786.032029,1834,2877,e_S
1789467786.032168,2323,2881,e_S
1789467786.032436,2196,2881,e_S
1789467786.0325959,1817,2877,e_S
1789467786.032704,2023,2878,e_S
1789467786.035177,2057,2878,e_S
1789467786.036321,1807,2877,e_S
1789467786.039016,1338,2877,e_S
1789467786.040328,1990,2877,e_S
1789467786.042411,2449,2881,e_S
1789467786.04469,1848,2878,e_S
1789467786.04734,2249,2879,e_S
1789467786.048394,2083,2879,e_S
1789467786.050673,1877,2877,e_S
1789467786.0521832,1977,2878,e_S
1789467786.054959,1871,2878,e_S
1789467786.05635,1638,2878,e_S
1789467786.060287,1822,2877,e_S
1789467786.0604758,2156,2880,e_S
1789467786.062871,1923,2880,e_S
1789467786.064613,1757,2876,e_S
1789467786.067162,1815,2877,e_S
1789467786.06883,1860,2878,e_S
1789467786.070393,1699,2877,e_S
1789467786.085543,2368,2881,e_S
1789467786.090812,1918,2876,e_S
1789467786.091128,966,2875,e_S
1789467786.094035,1667,2876,e_S
1789467786.094192,1510,2877,e_S
1789467786.094317,3446,2884,e_S
1789467786.094358,1940,2880,e_S
1789467786.0944252,1539,2876,e_S
1789467786.09451,2164,2878,e_S
1789467786.094601,1901,2878,e_S
1789467786.09464,1603,2878,e_S
1789467786.09478,1648,2878,e_S
1789467786.096127,1999,2876,e_S
1789467786.099205,1466,2876,e_S
1789467786.106278,1903,2879,e_S
1789467786.1082492,1771,2877,e_S
1789467786.108545,1833,2877,e_S
1789467786.112604,1508,2877,e_S
1789467786.11556,2268,2877,e_S
1789467786.121012,2490,2880,e_S
1789467786.121557,1514,2878,e_S
1789467786.121693,612,2877,e_S
1789467786.1218839,1336,2876,e_S
1789467786.1221619,2835,2881,e_S
1789467786.1224241,1871,2879,e_S
1789467786.122522,726,2877,e_S
1789467786.125383,1128,2877,e_S
1789467786.126839,1744,2878,e_S
1789467786.128256,1414,2878,e_S
1789467786.1310349,1457,2876,e_S
1789467786.132519,2571,2881,e_S
1789467786.135239,1767,2878,e_S
1789467786.136555,1518,2876,e_S
1789467786.1388118,1454,2877,e_S
1789467786.1410902,1496,2878,e_S
1789467786.1425762,1751,2878,e_S
1789467786.1450932,1293,2878,e_S
1789467786.146579,1735,2876,e_S
1789467786.148926,1660,2876,e_S
1789467786.150667,1060,2876,e_S
1789467786.15209,974,2876,e_S
1789467786.1547258,1228,2877,e_S
1789467786.157104,1789,2879,e_S
1789467786.163127,1770,2878,e_S
1789467786.163892,1729,2878,e_S
1789467786.16498,1450,2877,e_S
1789467786.1655328,319,2877,e_S
1789467786.168916,1354,2876,e_S
1789467786.169108,2976,2883,e_S
1789467786.170332,1562,2876,e_S
1789467786.17582,1040,2877,e_S
1789467786.1759849,1089,2877,e_S
1789467786.176206,1656,2877,e_S
1789467786.1790001,1874,2878,e_S
1789467786.180515,1168,2877,e_S
1789467786.182893,593,2876,e_S
1789467786.1892748,1730,2877,e_S
1789467786.1922839,1645,2879,e_S
1789467786.1924741,1249,2876,e_S
1789467786.1927218,1878,2878,e_S
1789467786.194315,1774,2877,e_S
1789467786.195581,1678,2877,e_S
1789467786.1976058,1763,2877,e_S
1789467786.199452,1754,2878,e_S
1789467786.201727,1291,2876,e_S
1789467786.2043872,1286,2876,e_S
1789467786.2044642,1098,2877,e_S
1789467786.206793,1158,2877,e_S
1789467786.2080882,1826,2877,e_S
1789467786.210752,1466,2877,e_S
1789467786.2134311,649,2877,e_S
1789467786.2146208,1999,2876,e_S
1789467786.216883,2441,2880,e_S
1789467786.2180429,1055,2877,e_S
1789467786.220119,2110,2879,e_S
1789467786.222549,1601,2876,e_S
1789467786.224857,1613,2878,e_S
1789467786.226156,2428,2880,e_S
1789467786.228601,1665,2877,e_S
1789467786.231412,1426,2878,e_S
1789467786.232491,1999,2877,e_S
1789467786.2349079,2163,2879,e_S
1789467786.237059,1243,2876,e_S
1789467786.243296,1263,2876,e_S
1789467786.243789,1978,2878,e_S
1789467786.2444239,2475,2882,e_S
1789467786.244998,1631,2877,e_S
1789467786.2465951,1406,2877,e_S
1789467786.2487738,2196,2881,e_S
1789467786.253637,1595,2877,e_S
1789467786.2562501,1338,2878,e_S
1789467786.256466,2995,2882,e_S
1789467786.256746,2324,2879,e_S
1789467786.25882,1623,2877,e_S
1789467786.26091,1708,2878,e_S
1789467786.2622132,2416,2880,e_S
1789467786.268235,1810,2877,e_S
1789467786.270032,2332,2880,e_S
1789467786.271703,1957,2880,e_S
1789467786.2719738,1619,2877,e_S
1789467786.273796,1258,2877,e_S
1789467786.2755048,1020,2877,e_S
1789467786.280916,2583,2881,e_S
1789467786.2813902,2832,2881,e_S
1789467786.281829,2081,2880,e_S
1789467786.284141,1832,2876,e_S
1789467786.284279,1753,2877,e_S
1789467786.2868538,2364,2880,e_S
1789467786.289176,1855,2878,e_S
1789467786.290241,1937,2878,e_S
1789467786.292812,1723,2877,e_S
1789467786.294164,1663,2877,e_S
1789467786.296502,1647,2877,e_S
1789467786.299077,1811,2876,e_S
1789467786.300281,1947,2878,e_S
1789467786.302607,2124,2880,e_S
1789467786.304935,1981,2877,e_S
1789467786.306064,1905,2877,e_S
1789467786.30838,2302,2880,e_S
1789467786.310441,1343,2877,e_S
1789467786.3126998,2756,2881,e_S
1789467786.3140428,2136,2880,e_S
1789467786.3166,1976,2879,e_S
1789467786.318026,1997,2878,e_S
1789467786.323043,1828,2877,e_S
1789467786.3235562,1969,2877,e_S
1789467786.3249578,1584,2877,e_S
1789467786.32641,1773,2877,e_S
1789467786.329362,1542,2876,e_S
1789467786.3308952,2360,2880,e_S
1789467786.332438,2285,2878,e_S
1789467786.3353589,1713,2876,e_S
1789467786.337791,2642,2881,e_S
1789467786.339115,2359,2881,e_S
1789467786.3401809,2464,2881,e_S
1789467786.345786,2314,2879,e_S
1789467786.3467531,1711,2877,e_S
1789467786.347219,1662,2878,e_S
1789467786.348565,1865,2877,e_S
1789467786.355092,2146,2879,e_S
1789467786.355262,1917,2880,e_S
1789467786.358204,2240,2881,e_S
1789467786.358322,2681,2881,e_S
1789467786.358612,2517,2880,e_S
1789467786.361038,2290,2880,e_S
1789467786.362188,1997,2878,e_S
1789467786.3647869,1970,2879,e_S
1789467786.366123,2242,2881,e_S
1789467786.368667,2161,2880,e_S
1789467786.370037,1796,2878,e_S
1789467786.372133,1442,2877,e_S
1789467786.3748622,1644,2878,e_S
1789467786.376189,2600,2881,e_S
1789467786.3784058,2612,2882,e_S
1789467786.380816,2817,2882,e_S
1789467786.382126,2402,2880,e_S
1789467786.385099,1952,2878,e_S
1789467786.3862379,1841,2878,e_S
1789467786.388854,2086,2878,e_S
1789467786.3902268,1434,2879,e_S
1789467786.392746,1250,2876,e_S
1789467786.39407,2961,2881,e_S
1789467786.396186,1938,2878,e_S
1789467786.403751,1595,2876,e_S
1789467786.4054542,2314,2882,e_S
1789467786.40925,2035,2878,e_S
1789467786.409847,1463,2878,e_S
1789467786.4108548,2113,2878,e_S
1789467786.411446,2534,2880,e_S
1789467786.413034,1956,2880,e_S
1789467786.4149609,1887,2880,e_S
1789467786.415248,1888,2879,e_S
1789467786.4185228,2011,2880,e_S
1789467786.419192,1850,2877,e_S
1789467786.421987,1966,2879,e_S
1789467786.4221,1967,2878,e_S
1789467786.424722,1855,2878,e_S
1789467786.426111,2267,2879,e_S
1789467786.433076,2234,2879,e_S
1789467786.43512,1609,2876,e_S
1789467786.435348,2083,2879,e_S
1789467786.4355462,1655,2877,e_S
1789467786.43727,2262,2881,e_S
1789467786.438561,2421,2880,e_S
1789467786.44181,2173,2880,e_S
1789467786.4450781,1937,2877,e_S
1789467786.445266,1747,2877,e_S
1789467786.447883,1748,2876,e_S
1789467786.449194,2013,2878,e_S
1789467786.450592,1913,2878,e_S
1789467786.452907,2319,2880,e_S
1789467786.454216,2362,2880,e_S
1789467786.456348,1857,2877,e_S
1789467786.458436,1607,2878,e_S
1789467786.460526,2137,2879,e_S
1789467786.462629,2083,2880,e_S
1789467786.464024,2776,2881,e_S
1789467786.466381,2040,2879,e_S
1789467786.468728,1791,2876,e_S
1789467786.471052,1633,2877,e_S
1789467786.472364,2368,2880,e_S
1789467786.4745338,2331,2880,e_S
1789467786.476845,2420,2880,e_S
1789467786.4781399,1939,2879,e_S
1789467786.48046,1502,2877,e_S
1789467786.483031,2243,2880,e_S
1789467786.48421,2342,2881,e_S
1789467786.492349,2157,2880,e_S
1789467786.492558,1069,2877,e_S
1789467786.492697,3121,2882,e_S
1789467786.492934,2120,2880,e_S
1789467786.494845,2218,2879,e_S
1789467786.4965088,1987,2879,e_S
1789467786.4991539,1949,2879,e_S
1789467786.5053298,2011,2877,e_S
1789467786.505398,2197,2879,e_S
1789467786.505455,2633,2881,e_S
1789467786.5065331,2451,2881,e_S
1789467786.508883,1841,2877,e_S
1789467786.51001,1663,2876,e_S
1789467786.5147798,2192,2880,e_S
1789467786.5152059,2187,2880,e_S
1789467786.520344,2449,2880,e_S
1789467786.52087,2373,2881,e_S
1789467786.521436,2063,2879,e_S
1789467786.524514,2083,2879,e_S
1789467786.524642,1873,2878,e_S
1789467786.528051,2042,2877,e_S
1789467786.528189,2609,2881,e_S
1789467786.5306082,2265,2880,e_S
1789467786.533074,1565,2876,e_S
1789467786.534144,2112,2880,e_S
1789467786.5362601,1889,2876,e_S
1789467786.53882,2392,2880,e_S
1789467786.540119,2587,2881,e_S
1789467786.5426402,2163,2880,e_S
1789467786.5448,1956,2878,e_S
1789467786.547117,1972,2877,e_S
1789467786.548207,2339,2881,e_S
1789467786.5502841,2824,2880,e_S
1789467786.552874,1734,2877,e_S
1789467786.5539389,2153,2880,e_S
1789467786.556415,2160,2880,e_S
1789467786.5587242,1818,2877,e_S
1789467786.56002,2317,2881,e_S
1789467786.562104,2441,2881,e_S
1789467786.568616,2200,2881,e_S
1789467786.569112,2097,2880,e_S
1789467786.56924,2111,2879,e_S
1789467786.571808,2500,2881,e_S
1789467786.5740402,1882,2878,e_S
1789467786.574543,2086,2877,e_S
1789467786.5777369,2534,2880,e_S
1789467786.581292,2204,2880,e_S
1789467786.5814168,1766,2876,e_S
1789467786.583363,2227,2879,e_S
1789467786.584673,2140,2879,e_S
1789467786.586949,1988,2877,e_S
1789467786.5914931,2214,2879,e_S
1789467786.592291,2661,2881,e_S
1789467786.5923772,1765,2877,e_S
1789467786.5943308,1593,2878,e_S
1789467786.597318,2618,2882,e_S
1789467786.599874,2486,2880,e_S
1789467786.600054,2310,2879,e_S
1789467786.603595,2000,2879,e_S
1789467786.605493,2273,2879,e_S
1789467786.6067982,2379,2880,e_S
1789467786.6081002,2098,2877,e_S
1789467786.61066,1608,2878,e_S
1789467786.612978,2241,2880,e_S
1789467786.6142771,2628,2881,e_S
1789467786.616597,2140,2879,e_S
1789467786.618908,1955,2879,e_S
1789467786.620203,2029,2880,e_S
1789467786.622515,1823,2877,e_S
1789467786.624821,2260,2880,e_S
1789467786.626115,2833,2881,e_S
1789467786.6284301,1863,2878,e_S
1789467786.630986,2319,2879,e_S
1789467786.6320472,2120,2879,e_S
1789467786.63437,2316,2880,e_S
1789467786.6366878,1971,2877,e_S
1789467786.642408,2075,2878,e_S
1789467786.643338,2385,2881,e_S
1789467786.6438222,2172,2881,e_S
1789467786.6442828,1932,2878,e_S
1789467786.646067,1726,2877,e_S
1789467786.649343,2251,2880,e_S
1789467786.651503,2509,2880,e_S
1789467786.6551669,2142,2880,e_S
1789467786.655334,2026,2877,e_S
1789467786.657681,1802,2878,e_S
1789467786.658986,2506,2881,e_S
1789467786.660118,2177,2880,e_S
1789467786.666139,2495,2880,e_S
1789467786.6665778,2457,2880,e_S
1789467786.667485,2223,2880,e_S
1789467786.6688588,1943,2877,e_S
1789467786.6716301,2135,2877,e_S
1789467786.674401,2370,2881,e_S
1789467786.6745229,2134,2878,e_S
1789467786.6782641,2171,2879,e_S
1789467786.678442,2048,2879,e_S
1789467786.680647,1670,2876,e_S
1789467786.6819499,2314,2880,e_S
1789467786.684033,2452,2879,e_S
1789467786.686358,2201,2879,e_S
1789467786.688685,2321,2879,e_S
1789467786.689984,1937,2877,e_S
1789467786.6923032,2373,2880,e_S
1789467786.6948612,2424,2880,e_S
1789467786.695913,1743,2877,e_S
1789467786.698474,2260,2880,e_S
1789467786.7007942,2312,2880,e_S
1789467786.701898,2209,2879,e_S
1789467786.704211,2072,2879,e_S
1789467786.706763,2222,2879,e_S
1789467786.7078521,2539,2880,e_S
1789467786.7101882,2364,2881,e_S
1789467786.712752,2361,2879,e_S
1789467786.7175171,2216,2879,e_S
1789467786.7180579,2200,2879,e_S
1789467786.7185369,2189,2879,e_S
1789467786.720662,2351,2880,e_S
1789467786.722786,2351,2881,e_S
1789467786.724638,2140,2880,e_S
1789467786.730866,2196,2880,e_S
1789467786.731437,2263,2880,e_S
1789467786.731852,2312,2879,e_S
1789467786.733967,2313,2880,e_S
1789467786.734164,2059,2880,e_S
1789467786.736301,2420,2879,e_S
1789467786.7440279,2578,2881,e_S
1789467786.7458508,2572,2881,e_S
1789467786.7462752,2233,2880,e_S
1789467786.7485619,2325,2880,e_S
1789467786.748791,2408,2881,e_S
1789467786.7499719,2405,2880,e_S
1789467786.750453,2434,2880,e_S
1789467786.75651,2353,2880,e_S
1789467786.757052,2561,2880,e_S
1789467786.7593012,2195,2879,e_S
1789467786.759608,2080,2878,e_S
1789467786.7609222,2531,2880,e_S
1789467786.761996,2370,2880,e_S
1789467786.764357,2525,2880,e_S
1789467786.766649,2276,2880,e_S
1789467786.7678962,2204,2879,e_S
1789467786.770528,2584,2880,e_S
1789467786.7718642,2436,2880,e_S
1789467786.773936,2408,2880,e_S
1789467786.7763772,2327,2880,e_S
1789467786.7787259,2340,2880,e_S
1789467786.7808151,2520,2880,e_S
1789467786.7819111,2398,2879,e_S
1789467786.784045,2301,2880,e_S
1789467786.7865942,2349,2880,e_S
1789467786.788924,2383,2880,e_S
1789467786.790071,2328,2881,e_S
1789467786.797267,2325,2881,e_S
1789467786.799996,2358,2880,e_S
1789467786.8002272,2343,2881,e_S
1789467786.800416,2259,2880,e_S
1789467786.802203,2318,2880,e_S
1789467786.8028002,2291,2879,e_S
1789467786.804754,2316,2879,e_S
1789467786.806632,2399,2879,e_S
1789467786.810575,2437,2880,e_S
1789467786.81081,2324,2879,e_S
1789467786.812667,2330,2881,e_S
1789467786.813979,2387,2880,e_S
1789467786.816763,2404,2880,e_S
1789467786.8209841,2380,2879,e_S
1789467786.821472,2418,2879,e_S
1789467786.823842,2350,2880,e_S
1789467786.8240068,2285,2880,e_S
1789467786.827024,2329,2879,e_S
1789467786.829498,2355,2880,e_S
1789467786.833408,2311,2880,e_S
1789467786.833639,2389,2879,e_S
1789467786.835872,2419,2879,e_S
1789467786.835993,2197,2879,e_S
1789467786.838228,2263,2880,e_S
1789467786.840582,2382,2879,e_S
1789467786.842894,2378,2881,e_S
1789467786.844099,2220,2880,e_S
1789467786.846657,2454,2880,e_S
1789467786.847956,2693,2881,e_S
1789467786.8502789,2388,2880,e_S
1789467786.852617,1918,2877,e_S
1789467786.854926,2148,2881,e_S
1789467786.856228,2472,2880,e_S
1789467786.8585348,2412,2880,e_S
1789467786.859872,2437,2881,e_S
1789467786.8621829,2348,2881,e_S
1789467786.864523,2284,2880,e_S
1789467786.866839,2289,2881,e_S
1789467786.868108,2253,2880,e_S
1789467786.87343,2178,2881,e_S
1789467786.873953,2307,2880,e_S
1789467786.87532,2397,2880,e_S
1789467786.876778,2250,2879,e_S
1789467786.87887,1779,2877,e_S
1789467786.880678,2104,2878,e_S
1789467786.8825989,2313,2879,e_S
1789467786.8867571,2246,2880,e_S
1789467786.88694,2349,2880,e_S
1789467786.889081,2358,2879,e_S
1789467786.890146,2608,2880,e_S
1789467786.8924658,2215,2879,e_S
1789467786.896835,2106,2877,e_S
1789467786.897704,2217,2879,e_S
1789467786.900296,2280,2879,e_S
1789467786.902421,2194,2880,e_S
1789467786.90299,2003,2878,e_S
1789467786.904682,2003,2879,e_S
1789467786.906278,1955,2875,e_S
1789467786.910065,2275,2881,e_S
1789467786.910242,2114,2880,e_S
1789467786.912492,1849,2877,e_S
1789467786.9138381,2375,2881,e_S
1789467786.916394,2480,2880,e_S
1789467786.918686,2105,2879,e_S
1789467786.919999,2168,2880,e_S
1789467786.922316,2513,2880,e_S
1789467786.924736,2238,2879,e_S
1789467786.926034,1895,2878,e_S
1789467786.928586,2051,2878,e_S
1789467786.930751,2270,2879,e_S
1789467786.932043,2138,2881,e_S
1789467786.9343941,2076,2879,e_S
1789467786.9367082,2275,2879,e_S
1789467786.937823,2146,2880,e_S
1789467786.940379,1660,2877,e_S
1789467786.942868,2002,2878,e_S
1789467786.9441438,1953,2878,e_S
1789467786.948237,2002,2878,e_S
1789467786.948691,2583,2880,e_S
1789467786.950927,2460,2880,e_S
1789467786.953415,2023,2879,e_S
1789467786.954773,2011,2879,e_S
1789467786.956527,2246,2880,e_S
1789467786.9603388,2360,2881,e_S
1789467786.9604611,2109,2878,e_S
1789467786.962591,2138,2880,e_S
1789467786.963891,2132,2880,e_S
1789467786.966282,1867,2876,e_S
1789467786.970303,1750,2877,e_S
1789467786.970804,2301,2879,e_S
1789467786.972863,2233,2880,e_S
1789467786.9750242,2699,2881,e_S
1789467786.9766521,2075,2880,e_S
1789467786.9784162,1837,2877,e_S
1789467786.9820218,1995,2878,e_S
1789467786.9821901,2243,2881,e_S
1789467786.9844081,2299,2879,e_S
1789467786.9858649,2118,2879,e_S
1789467786.988184,1871,2879,e_S
1789467786.990744,2048,2879,e_S
1789467786.991889,2212,2880,e_S
1789467786.994446,2367,2880,e_S
1789467786.996779,1759,2879,e_S
1789467786.997855,2149,2878,e_S
1789467787.000544,2985,2883,e_S
1789467787.0018802,1868,2879,e_S
1789467787.00419,1796,2877,e_S
1789467787.006738,2071,2880,e_S
1789467787.00784,2068,2878,e_S
1789467787.0103931,2285,2880,e_S
1789467787.012915,2154,2878,e_S
1789467787.013962,1779,2879,e_S
1789467787.01959,2103,2881,e_S
1789467787.0201411,1950,2877,e_S
1789467787.0202398,1797,2876,e_S
1789467787.02246,2230,2880,e_S
1789467787.024232,2198,2880,e_S
1789467787.026289,1780,2878,e_S
1789467787.0279858,1996,2878,e_S
1789467787.0315871,2492,2880,e_S
1789467787.033396,2390,2881,e_S
1789467787.034703,2447,2880,e_S
1789467787.0360022,2154,2880,e_S
1789467787.0419579,2018,2879,e_S
1789467787.0424309,2373,2879,e_S
1789467787.0428429,2131,2878,e_S
1789467787.045981,2018,2879,e_S
1789467787.046408,2023,2878,e_S
1789467787.049336,2132,2880,e_S
1789467787.052935,1813,2877,e_S
1789467787.053034,1832,2877,e_S
1789467787.055068,2199,2880,e_S
1789467787.05637,2085,2880,e_S
1789467787.058681,2032,2877,e_S
1789467787.059982,2274,2881,e_S
1789467787.062295,2138,2880,e_S
1789467787.064847,2152,2879,e_S
1789467787.066141,2140,2881,e_S
1789467787.068692,2077,2880,e_S
1789467787.069985,2056,2880,e_S
1789467787.07229,2140,2880,e_S
1789467787.074838,1983,2877,e_S
1789467787.075894,2000,2879,e_S
1789467787.078457,2078,2877,e_S
1789467787.080775,2122,2880,e_S
1789467787.081835,2067,2877,e_S
1789467787.084157,2120,2879,e_S
1789467787.0900311,2099,2879,e_S
1789467787.090915,2069,2879,e_S
1789467787.091668,1972,2877,e_S
1789467787.0930061,2092,2880,e_S
1789467787.095051,2122,2880,e_S
1789467787.096938,2113,2880,e_S
1789467787.098331,2111,2880,e_S
1789467787.101963,2056,2880,e_S
1789467787.1020749,2100,2879,e_S
1789467787.104151,2033,2879,e_S
1789467787.10671,1994,2878,e_S
1789467787.1119769,2051,2877,e_S
1789467787.112452,2083,2878,e_S
1789467787.112855,2157,2881,e_S
1789467787.115293,2132,2880,e_S
1789467787.1174169,2129,2878,e_S
1789467787.119145,2104,2880,e_S
1789467787.122781,2058,2879,e_S
1789467787.12302,2073,2881,e_S
1789467787.1247108,2085,2881,e_S
1789467787.1258292,2001,2877,e_S
1789467787.1282701,2161,2880,e_S
1789467787.130827,2021,2877,e_S
1789467787.1321201,2124,2879,e_S
1789467787.1344252,2079,2880,e_S
1789467787.1357172,1972,2877,e_S
1789467787.138023,2106,2879,e_S
1789467787.1405618,2298,2880,e_S
1789467787.142912,2168,2880,e_S
1789467787.144209,2106,2881,e_S
1789467787.146476,2109,2880,e_S
1789467787.147769,2181,2879,e_S
1789467787.15008,2120,2880,e_S
1789467787.152391,2080,2879,e_S
1789467787.15495,2111,2879,e_S
1789467787.159869,1977,2878,e_S
1789467787.1599512,2043,2878,e_S
1789467787.160838,2042,2879,e_S
1789467787.162708,1912,2878,e_S
1789467787.164408,2196,2879,e_S
1789467787.1659808,2084,2879,e_S
1789467787.168013,2015,2879,e_S
1789467787.171461,2136,2879,e_S
1789467787.1735291,2257,2880,e_S
1789467787.174836,2191,2880,e_S
1789467787.1761322,2126,2880,e_S
1789467787.181351,2048,2877,e_S
1789467787.181792,2139,2879,e_S
1789467787.181938,1931,2878,e_S
1789467787.1859221,1989,2876,e_S
1789467787.186075,2286,2879,e_S
1789467787.1889951,2196,2879,e_S
1789467787.192377,2019,2879,e_S
1789467787.192551,1972,2877,e_S
1789467787.194653,2130,2880,e_S
1789467787.195956,2100,2878,e_S
1789467787.1982179,2112,2881,e_S
1789467787.2005289,2316,2879,e_S
1789467787.202844,2095,2878,e_S
1789467787.20414,2013,2879,e_S
1789467787.206666,1930,2876,e_S
1789467787.207959,2151,2881,e_S
1789467787.211755,2091,2878,e_S
1789467787.2117891,2075,2879,e_S
1789467787.214336,2108,2880,e_S
1789467787.216684,2136,2879,e_S
1789467787.217978,2149,2879,e_S
1789467787.2205079,2130,2878,e_S
1789467787.2216551,2077,2879,e_S
1789467787.223875,1995,2879,e_S
1789467787.2298,2146,2879,e_S
1789467787.230365,2086,2877,e_S
1789467787.2312279,2067,2877,e_S
1789467787.2328372,2108,2880,e_S
1789467787.2343822,1962,2877,e_S
1789467787.236394,2138,2879,e_S
1789467787.238116,2236,2879,e_S
1789467787.241445,1933,2877,e_S
1789467787.243764,1920,2878,e_S
1789467787.243816,2276,2880,e_S
1789467787.245878,2314,2880,e_S
1789467787.250836,2230,2881,e_S
1789467787.251868,1962,2877,e_S
1789467787.252395,2040,2879,e_S
1789467787.254358,2078,2879,e_S
1789467787.256638,2212,2880,e_S
1789467787.2596328,2113,2881,e_S
1789467787.259731,2074,2877,e_S
1789467787.262945,2068,2877,e_S
1789467787.264815,2070,2879,e_S
1789467787.266123,2028,2877,e_S
1789467787.268679,2151,2879,e_S
1789467787.269984,2094,2879,e_S
1789467787.2725399,2105,2879,e_S
1789467787.273834,2045,2877,e_S
1789467787.2763252,1992,2878,e_S
1789467787.2783942,2128,2880,e_S
1789467787.279688,2230,2880,e_S
1789467787.282209,2180,2880,e_S
1789467787.28453,1980,2876,e_S
1789467787.285662,1986,2877,e_S
1789467787.287901,2155,2878,e_S
1789467787.290195,2249,2879,e_S
1789467787.292512,2118,2879,e_S
1789467787.294589,1991,2877,e_S
1789467787.3003871,2040,2878,e_S
1789467787.301641,2092,2880,e_S
1789467787.303008,2075,2879,e_S
1789467787.3031418,2006,2876,e_S
1789467787.3054059,2158,2880,e_S
1789467787.308297,2149,2880,e_S
1789467787.308581,1999,2877,e_S
1789467787.311718,2103,2879,e_S
1789467787.31189,2105,2880,e_S
1789467787.314174,2025,2879,e_S
1789467787.316493,2192,2880,e_S
1789467787.322725,2108,2879,e_S
1789467787.323613,2096,2878,e_S
1789467787.325624,2223,2879,e_S
1789467787.325863,2028,2877,e_S
1789467787.326018,2105,2881,e_S
1789467787.329747,2215,2879,e_S
1789467787.334123,2038,2877,e_S
1789467787.334811,2064,2878,e_S
1789467787.336847,2162,2881,e_S
1789467787.336908,2122,2878,e_S
1789467787.33796,2048,2879,e_S
1789467787.340053,2092,2878,e_S
1789467787.342346,2182,2879,e_S
1789467787.344447,2135,2881,e_S
1789467787.3457038,2148,2880,e_S
1789467787.348263,2082,2877,e_S
1789467787.349671,2061,2881,e_S
1789467787.3520179,2180,2880,e_S
1789467787.354491,2090,2879,e_S
1789467787.3568141,2064,2880,e_S
1789467787.358113,1994,2878,e_S
1789467787.360671,1844,2879,e_S
1789467787.361969,2058,2877,e_S
1789467787.3645499,2225,2881,e_S
1789467787.365846,2131,2880,e_S
1789467787.3725288,2051,2879,e_S
1789467787.373184,2102,2879,e_S
1789467787.373749,2209,2879,e_S
1789467787.374141,2158,2880,e_S
1789467787.376983,2082,2878,e_S
1789467787.378675,2079,2878,e_S
1789467787.380645,2146,2880,e_S
1789467787.3863082,2265,2879,e_S
1789467787.386354,2074,2879,e_S
1789467787.386388,2032,2878,e_S
1789467787.3876941,2026,2878,e_S
1789467787.390014,2085,2879,e_S
1789467787.3951302,2054,2878,e_S
1789467787.395676,2118,2879,e_S
1789467787.3962398,2086,2877,e_S
1789467787.3983161,2198,2879,e_S
1789467787.399842,2073,2878,e_S
1789467787.403381,2018,2879,e_S
1789467787.4063869,1935,2877,e_S
1789467787.40655,1970,2877,e_S
1789467787.408491,2355,2880,e_S
1789467787.409795,2145,2880,e_S
1789467787.4120681,2087,2879,e_S
1789467787.4146292,2100,2878,e_S
1789467787.415924,2104,2879,e_S
1789467787.418338,2124,2878,e_S
1789467787.420647,2091,2878,e_S
1789467787.421702,2066,2880,e_S
1789467787.4242299,2087,2879,e_S
1789467787.4267929,2093,2879,e_S
1789467787.42809,2096,2879,e_S
1789467787.430649,2072,2879,e_S
1789467787.431946,2040,2878,e_S
1789467787.434515,2084,2880,e_S
1789467787.435811,2124,2878,e_S
1789467787.4383628,2153,2879,e_S
1789467787.439693,2012,2877,e_S
1789467787.444941,2053,2878,e_S
1789467787.445737,2048,2878,e_S
1789467787.446265,1869,2877,e_S
1789467787.4489112,2042,2876,e_S
1789467787.452966,2206,2879,e_S
1789467787.453132,2347,2880,e_S
1789467787.457976,2083,2879,e_S
1789467787.4582112,2224,2880,e_S
1789467787.458251,1593,2878,e_S
1789467787.4608152,1977,2879,e_S
1789467787.465971,2281,2880,e_S
1789467787.466465,1829,2878,e_S
1789467787.467318,1655,2876,e_S
1789467787.468884,2289,2880,e_S
1789467787.470836,2821,2880,e_S
1789467787.472523,2190,2879,e_S
1789467787.4742458,1715,2876,e_S
1789467787.476973,2479,2880,e_S
1789467787.479098,2485,2881,e_S
1789467787.480404,1753,2878,e_S
1789467787.481706,1868,2877,e_S
1789467787.4843469,2435,2879,e_S
1789467787.485698,1973,2879,e_S
1789467787.4880252,2008,2879,e_S
1789467787.4905689,2028,2879,e_S
1789467787.4916558,1679,2877,e_S
1789467787.494217,1868,2878,e_S
1789467787.496532,2557,2882,e_S
1789467787.497827,2370,2881,e_S
1789467787.500106,2102,2880,e_S
1789467787.502708,2409,2879,e_S
1789467787.5040052,2328,2880,e_S
1789467787.506557,1494,2876,e_S
1789467787.507849,1981,2878,e_S
1789467787.514334,2611,2882,e_S
1789467787.515096,2256,2880,e_S
1789467787.515237,1993,2877,e_S
1789467787.517494,1922,2879,e_S
1789467787.517656,1785,2877,e_S
1789467787.520937,1905,2876,e_S
1789467787.523069,2175,2880,e_S
1789467787.525863,2233,2880,e_S
1789467787.526052,2406,2880,e_S
1789467787.5277739,1348,2878,e_S
1789467787.5303428,1629,2878,e_S
1789467787.531672,3646,2885,e_S
1789467787.536503,1953,2879,e_S
1789467787.5369651,1694,2876,e_S
1789467787.538833,1842,2878,e_S
1789467787.5403929,2133,2878,e_S
1789467787.542099,2317,2880,e_S
1789467787.544132,2474,2880,e_S
1789467787.546916,2175,2879,e_S
1789467787.548697,2007,2880,e_S
1789467787.550078,1942,2878,e_S
1789467787.552613,2031,2880,e_S
1789467787.5539148,2138,2880,e_S
1789467787.556414,2072,2878,e_S
1789467787.558732,1876,2878,e_S
1789467787.559786,2149,2878,e_S
1789467787.5623522,2374,2879,e_S
1789467787.564671,1494,2876,e_S
1789467787.565969,1915,2876,e_S
1789467787.568104,2660,2881,e_S
1789467787.570412,1940,2879,e_S
1789467787.5727239,2040,2879,e_S
1789467787.5740201,2086,2878,e_S
1789467787.57653,1951,2877,e_S
1789467787.577826,2443,2881,e_S
1789467787.5854259,1964,2877,e_S
1789467787.585962,2056,2878,e_S
1789467787.5860631,2195,2880,e_S
1789467787.587393,1088,2876,e_S
1789467787.589327,1621,2878,e_S
1789467787.59101,2944,2882,e_S
1789467787.5927758,2408,2879,e_S
1789467787.59549,1075,2877,e_S
1789467787.595671,2443,2880,e_S
1789467787.598353,2495,2879,e_S
1789467787.600671,1956,2877,e_S
1789467787.604922,2056,2879,e_S
1789467787.605433,2180,2879,e_S
1789467787.607553,2077,2877,e_S
1789467787.607698,1611,2876,e_S
1789467787.611404,1705,2878,e_S
1789467787.612894,1768,2877,e_S
1789467787.615625,1823,2878,e_S
1789467787.615776,2898,2882,e_S
1789467787.618714,1679,2876,e_S
1789467787.62001,2165,2880,e_S
1789467787.622324,1712,2877,e_S
1789467787.6236281,1673,2878,e_S
1789467787.625705,2208,2878,e_S
1789467787.628007,2714,2881,e_S
1789467787.630323,1967,2880,e_S
1789467787.632407,1596,2877,e_S
1789467787.63472,1580,2877,e_S
1789467787.635766,2091,2879,e_S
1789467787.638324,2288,2880,e_S
1789467787.639621,2054,2878,e_S
1789467787.6421719,1826,2877,e_S
1789467787.644246,1968,2877,e_S
1789467787.64658,1669,2878,e_S
1789467787.647866,2165,2879,e_S
1789467787.652501,2460,2880,e_S
1789467787.65264,1492,2876,e_S
1789467787.655099,2384,2880,e_S
1789467787.656715,2069,2878,e_S
1789467787.658342,806,2877,e_S
1789467787.660293,1970,2878,e_S
1789467787.663073,2944,2883,e_S
1789467787.6651661,2629,2881,e_S
1789467787.6664782,1328,2876,e_S
1789467787.667609,1849,2877,e_S
1789467787.672436,1627,2877,e_S
1789467787.673217,2063,2877,e_S
1789467787.6753669,2464,2880,e_S
1789467787.6771982,2185,2881,e_S
1789467787.67886,1702,2878,e_S
1789467787.680588,1314,2876,e_S
1789467787.6834738,2383,2880,e_S
1789467787.683619,1893,2877,e_S
1789467787.6862872,1348,2877,e_S
1789467787.687616,2705,2881,e_S
1789467787.689748,2506,2880,e_S
1789467787.6921291,1503,2877,e_S
1789467787.694431,1445,2877,e_S
1789467787.696744,2173,2880,e_S
1789467787.698035,2235,2880,e_S
1789467787.7001019,1666,2878,e_S
1789467787.7023659,997,2876,e_S
1789467787.7046819,1249,2877,e_S
1789467787.705751,3430,2884,e_S
1789467787.7081652,1825,2876,e_S
1789467787.710491,1320,2876,e_S
1789467787.711871,1374,2876,e_S
1789467787.7141042,1818,2877,e_S
1789467787.715585,2069,2877,e_S
1789467787.723443,2188,2881,e_S
1789467787.724863,1881,2876,e_S
1789467787.724992,1553,2876,e_S
1789467787.726743,1448,2877,e_S
1789467787.7268548,1448,2877,e_S
1789467787.7285771,1059,2878,e_S
1789467787.730149,2640,2880,e_S
1789467787.732213,1686,2877,e_S
1789467787.7352588,1327,2876,e_S
1789467787.7371662,1758,2879,e_S
1789467787.73823,1568,2878,e_S
1789467787.7396522,1302,2878,e_S
1789467787.745205,2143,2878,e_S
1789467787.7456079,2645,2880,e_S
1789467787.7460532,1355,2876,e_S
1789467787.7478762,1926,2876,e_S
1789467787.7513258,1713,2878,e_S
1789467787.753072,2008,2879,e_S
1789467787.756028,815,2876,e_S
1789467787.7562182,1394,2878,e_S
1789467787.758347,1942,2877,e_S
1789467787.7596521,1509,2876,e_S
1789467787.761774,1030,2876,e_S
1789467787.764082,776,2876,e_S
1789467787.766389,2106,2878,e_S
1789467787.768449,935,2875,e_S
1789467787.769755,2607,2881,e_S
1789467787.7723079,1872,2876,e_S
1789467787.774378,1031,2877,e_S
1789467787.776442,1692,2878,e_S
1789467787.777739,2018,2878,e_S
1789467787.779843,628,2877,e_S
1789467787.781909,493,2877,e_S
1789467787.7843468,1292,2876,e_S
1789467787.785681,1082,2876,e_S
1789467787.788237,1875,2879,e_S
1789467787.7930748,1139,2876,e_S
1789467787.793952,2061,2879,e_S
1789467787.7948642,2169,2880,e_S
1789467787.796417,1768,2877,e_S
1789467787.7984488,1719,2878,e_S
1789467787.800406,1649,2878,e_S
1789467787.801879,1311,2877,e_S
1789467787.805075,998,2878,e_S
1789467787.807304,1543,2877,e_S
1789467787.808613,1328,2877,e_S
1789467787.8099048,0,2876,e_S
1789467787.815119,2349,2879,e_S
1789467787.815223,2598,2880,e_S
1789467787.8174999,1580,2876,e_S
1789467787.817806,1183,2878,e_S
1789467787.82111,1159,2878,e_S
1789467787.822847,1982,2878,e_S
1789467787.826046,1965,2878,e_S
1789467787.826163,1574,2876,e_S
1789467787.828287,943,2877,e_S
1789467787.82959,1631,2876,e_S
1789467787.831903,2208,2880,e_S
1789467787.83446,1018,2876,e_S
1789467787.8357508,918,2877,e_S
1789467787.83803,2169,2877,e_S
1789467787.840592,2008,2878,e_S
1789467787.841645,1758,2877,e_S
1789467787.844,1210,2877,e_S
1789467787.846186,1786,2877,e_S
1789467787.8474948,2238,2879,e_S
1789467787.849808,2223,2879,e_S
1789467787.852117,1871,2876,e_S
1789467787.853478,2155,2879,e_S
1789467787.856031,1576,2878,e_S
1789467787.8583722,1881,2877,e_S
1789467787.86242,1883,2877,e_S
1789467787.8631868,1499,2877,e_S
1789467787.86501,1776,2877,e_S
1789467787.866484,2017,2879,e_S
1789467787.867896,2251,2879,e_S
1789467787.8698518,2108,2878,e_S
1789467787.8729641,2917,2882,e_S
1789467787.8749871,1505,2877,e_S
1789467787.876287,1815,2878,e_S
1789467787.8775868,2316,2880,e_S
1789467787.87989,2337,2879,e_S
1789467787.882443,2771,2881,e_S
1789467787.8834891,2532,2881,e_S
1789467787.8858082,1721,2876,e_S
1789467787.8883572,1992,2878,e_S
1789467787.8896482,2446,2882,e_S
1789467787.892194,2574,2881,e_S
1789467787.893486,2006,2878,e_S
1789467787.896031,2343,2879,e_S
1789467787.89749,2331,2880,e_S
1789467787.8998652,2139,2879,e_S
1789467787.901974,2168,2879,e_S
1789467787.907702,2294,2880,e_S
1789467787.908163,2409,2880,e_S
1789467787.908652,2444,2880,e_S
1789467787.9106,2682,2881,e_S
1789467787.912554,2137,2879,e_S
1789467787.91454,1801,2877,e_S
1789467787.9159958,1686,2878,e_S
1789467787.919559,2453,2880,e_S
1789467787.919775,3359,2883,e_S
1789467787.922051,2339,2879,e_S
1789467787.924648,1685,2877,e_S
1789467787.929474,2156,2878,e_S
1789467787.9302871,2297,2877,e_S
1789467787.930433,2401,2881,e_S
1789467787.931957,2208,2879,e_S
1789467787.9351182,3089,2881,e_S
1789467787.936994,1982,2878,e_S
1789467787.940265,1562,2876,e_S
1789467787.9404979,1772,2877,e_S
1789467787.942574,2824,2882,e_S
1789467787.943871,2976,2882,e_S
1789467787.945945,2438,2881,e_S
1789467787.948504,1684,2877,e_S
1789467787.9497972,1977,2876,e_S
1789467787.9521742,1694,2879,e_S
1789467787.9534779,2707,2882,e_S
1789467787.955557,2771,2880,e_S
1789467787.957624,1921,2877,e_S
1789467787.960174,2362,2880,e_S
1789467787.961479,2394,2881,e_S
1789467787.9640262,2275,2879,e_S
1789467787.966157,2375,2879,e_S
1789467787.967519,2121,2879,e_S
1789467787.969826,2033,2878,e_S
1789467787.972472,2160,2881,e_S
1789467787.976684,2310,2879,e_S
1789467787.977076,2211,2879,e_S
1789467787.978863,1918,2877,e_S
1789467787.98138,1451,2877,e_S
1789467787.981815,2076,2877,e_S
1789467787.983979,2288,2880,e_S
1789467787.98749,2048,2879,e_S
1789467787.987614,2925,2882,e_S
1789467787.990258,2270,2879,e_S
1789467787.9914901,1821,2876,e_S
1789467787.9964328,2003,2877,e_S
1789467787.997175,2401,2881,e_S
1789467787.99907,2816,2882,e_S
1789467788.001204,2520,2880,e_S
1789467788.003912,1717,2876,e_S
1789467788.004062,1544,2878,e_S
1789467788.0074072,2571,2879,e_S
1789467788.007586,2038,2879,e_S
1789467788.0101728,1971,2877,e_S
1789467788.011474,2070,2879,e_S
1789467788.014036,1810,2878,e_S
1789467788.016522,2207,2880,e_S
1789467788.01782,2343,2881,e_S
1789467788.0203688,2423,2880,e_S
1789467788.0216599,2451,2881,e_S
1789467788.024079,1616,2877,e_S
1789467788.02639,2420,2881,e_S
1789467788.027682,2484,2882,e_S
1789467788.029799,1398,2878,e_S
1789467788.0323572,1855,2878,e_S
1789467788.0334249,2664,2882,e_S
1789467788.0355341,2205,2879,e_S
1789467788.03784,2162,2880,e_S
1789467788.042725,2002,2880,e_S
1789467788.044605,1981,2878,e_S
1789467788.044938,1853,2878,e_S
1789467788.046368,2561,2882,e_S
1789467788.047633,2566,2881,e_S
1789467788.0497558,2165,2880,e_S
1789467788.0530272,1541,2876,e_S
1789467788.0551412,1972,2879,e_S
1789467788.056472,2138,2879,e_S
1789467788.057526,2125,2880,e_S
1789467788.059849,2132,2878,e_S
1789467788.062409,2436,2881,e_S
1789467788.063701,1955,2877,e_S
1789467788.066252,1804,2877,e_S
1789467788.067543,1695,2877,e_S
1789467788.0700958,2456,2880,e_S
1789467788.0722141,1540,2877,e_S
1789467788.074521,3145,2882,e_S
1789467788.07581,2260,2880,e_S
1789467788.078111,1858,2878,e_S
1789467788.0794299,2730,2881,e_S
1789467788.081978,2557,2880,e_S
1789467788.087502,2406,2880,e_S
1789467788.088258,2291,2880,e_S
1789467788.088376,1861,2877,e_S
1789467788.090157,1831,2876,e_S
1789467788.0918798,2094,2879,e_S
1789467788.094856,1898,2877,e_S
1789467788.098262,1426,2876,e_S
1789467788.098361,2907,2881,e_S
1789467788.100378,2581,2880,e_S
1789467788.101444,2319,2880,e_S
1789467788.103752,1941,2877,e_S
1789467788.1060638,2065,2877,e_S
1789467788.1074188,2288,2881,e_S
1789467788.1094909,2201,2879,e_S
1789467788.111802,1725,2878,e_S
1789467788.114256,2384,2880,e_S
1789467788.116467,1997,2879,e_S
1789467788.117748,2297,2880,e_S
1789467788.120448,2283,2879,e_S
1789467788.12176,2233,2880,e_S
1789467788.124317,2158,2878,e_S
1789467788.12562,2265,2881,e_S
1789467788.128184,2317,2881,e_S
1789467788.134342,2043,2877,e_S
1789467788.1348858,2119,2879,e_S
1789467788.136139,2097,2879,e_S
1789467788.137573,2266,2879,e_S
1789467788.1377,2081,2880,e_S
1789467788.1416051,2351,2880,e_S
1789467788.14177,1858,2879,e_S
1789467788.146851,1986,2877,e_S
1789467788.147087,2524,2880,e_S
1789467788.14944,1996,2878,e_S
1789467788.1495109,1917,2877,e_S
1789467788.1520782,2119,2879,e_S
1789467788.156965,1884,2877,e_S
1789467788.1570718,2558,2881,e_S
1789467788.15966,2298,2880,e_S
1789467788.159898,2142,2878,e_S
1789467788.1632488,2212,2881,e_S
1789467788.1649961,2330,2881,e_S
1789467788.1687958,1975,2878,e_S
1789467788.168913,1671,2878,e_S
1789467788.170917,1877,2877,e_S
1789467788.172225,2518,2881,e_S
1789467788.174361,2342,2880,e_S
1789467788.175528,2000,2880,e_S
1789467788.178096,2302,2880,e_S
1789467788.180476,1962,2877,e_S
1789467788.181767,1647,2878,e_S
1789467788.184312,2597,2882,e_S
1789467788.185607,2401,2881,e_S
1789467788.1878211,1880,2879,e_S
1789467788.190133,2272,2878,e_S
1789467788.1914508,2167,2880,e_S
1789467788.193763,2268,2879,e_S
1789467788.196312,2002,2878,e_S
1789467788.197603,2089,2878,e_S
1789467788.200149,2039,2879,e_S
1789467788.2043579,2899,2881,e_S
1789467788.204766,2210,2880,e_S
1789467788.206903,981,2876,e_S
1789467788.20821,2004,2876,e_S
1789467788.209936,2307,2879,e_S
1789467788.211835,1808,2878,e_S
1789467788.215447,2561,2881,e_S
1789467788.215708,2060,2880,e_S
1789467788.218495,1781,2876,e_S
1789467788.2197912,2726,2881,e_S
1789467788.2221,2216,2879,e_S
1789467788.224416,2102,2879,e_S
1789467788.225468,2080,2878,e_S
1789467788.227654,2150,2878,e_S
1789467788.230208,2213,2880,e_S
1789467788.2315059,2160,2880,e_S
1789467788.233707,1784,2877,e_S
1789467788.236267,1943,2877,e_S
1789467788.23756,1195,2876,e_S
1789467788.2399411,2247,2879,e_S
1789467788.242251,2926,2880,e_S
1789467788.243542,1747,2876,e_S
1789467788.245791,2156,2879,e_S
1789467788.250051,2658,2880,e_S
1789467788.250498,2229,2879,e_S
1789467788.2525702,1867,2877,e_S
1789467788.254496,2270,2880,e_S
1789467788.2563572,2012,2877,e_S
1789467788.2612128,2095,2881,e_S
1789467788.261354,1718,2876,e_S
1789467788.261503,2132,2880,e_S
1789467788.264111,2103,2880,e_S
1789467788.265408,1959,2877,e_S
1789467788.2706518,2038,2878,e_S
1789467788.271016,1785,2878,e_S
1789467788.273115,2219,2879,e_S
1789467788.274845,2808,2881,e_S
1789467788.276402,2495,2881,e_S
1789467788.2779672,2113,2879,e_S
1789467788.281621,1629,2876,e_S
1789467788.2817228,1552,2877,e_S
1789467788.284843,1997,2879,e_S
1789467788.2858958,2322,2880,e_S
1789467788.288096,2570,2881,e_S
1789467788.290402,2329,2880,e_S
1789467788.291691,1812,2879,e_S
1789467788.2940001,1851,2876,e_S
1789467788.296314,2157,2877,e_S
1789467788.2984362,2265,2879,e_S
1789467788.2994921,2258,2878,e_S
1789467788.3016691,2625,2882,e_S
1789467788.304215,2297,2879,e_S
1789467788.305504,1663,2875,e_S
1789467788.307905,1701,2876,e_S
1789467788.310453,2249,2881,e_S
1789467788.311753,2068,2878,e_S
1789467788.317237,1979,2878,e_S
1789467788.319202,2620,2881,e_S
1789467788.3206131,2022,2879,e_S
1789467788.3207529,2182,2879,e_S
1789467788.3223171,2141,2880,e_S
1789467788.3244731,2015,2879,e_S
1789467788.3284621,1785,2878,e_S
1789467788.3286972,1916,2878,e_S
1789467788.3302798,2908,2881,e_S
1789467788.331588,2399,2881,e_S
1789467788.334041,2064,2879,e_S
1789467788.337883,2082,2879,e_S
1789467788.338638,2022,2877,e_S
1789467788.340013,2045,2878,e_S
1789467788.343176,1963,2877,e_S
1789467788.3449962,2156,2879,e_S
1789467788.348827,2048,2877,e_S
1789467788.348941,2055,2880,e_S
1789467788.351032,1711,2876,e_S
1789467788.3523352,1762,2877,e_S
1789467788.353638,2767,2881,e_S
1789467788.355946,2442,2880,e_S
1789467788.3573172,2609,2880,e_S
1789467788.359863,1944,2877,e_S
1789467788.362169,2019,2878,e_S
1789467788.363459,2207,2878,e_S
1789467788.3657658,2382,2880,e_S
1789467788.367999,2097,2879,e_S
1789467788.369302,1934,2877,e_S
1789467788.371616,1919,2878,e_S
1789467788.3740811,2152,2879,e_S
1789467788.376398,1950,2877,e_S
1789467788.377447,1995,2878,e_S
1789467788.379501,2108,2879,e_S
1789467788.383488,2148,2880,e_S
1789467788.385785,2371,2880,e_S
1789467788.385889,1779,2877,e_S
1789467788.3887339,1888,2877,e_S
1789467788.3906062,2684,2881,e_S
1789467788.392351,2110,2880,e_S
1789467788.39636,2142,2881,e_S
1789467788.3965309,2217,2881,e_S
1789467788.398169,2208,2881,e_S
1789467788.399471,2310,2879,e_S
1789467788.405697,2152,2880,e_S
1789467788.405804,1993,2878,e_S
1789467788.406158,2192,2880,e_S
1789467788.4080288,2133,2880,e_S
1789467788.4109042,1997,2877,e_S
1789467788.41268,2059,2879,e_S
1789467788.416758,2298,2880,e_S
1789467788.416963,2417,2879,e_S
1789467788.41885,2117,2879,e_S
1789467788.420148,2095,2879,e_S
1789467788.4212952,2283,2880,e_S
1789467788.423625,2252,2881,e_S
1789467788.4261792,1803,2877,e_S
1789467788.427468,2268,2879,e_S
1789467788.429842,2383,2881,e_S
1789467788.43214,2250,2880,e_S
1789467788.4334311,2175,2879,e_S
1789467788.4357362,2211,2879,e_S
1789467788.437805,2297,2879,e_S
1789467788.440026,2167,2880,e_S
1789467788.442347,2261,2881,e_S
1789467788.4436412,2219,2880,e_S
1789467788.445947,2279,2879,e_S
1789467788.452446,2391,2880,e_S
1789467788.452909,2266,2879,e_S
1789467788.4533298,2343,2879,e_S
1789467788.454449,2357,2879,e_S
1789467788.4564621,2288,2879,e_S
1789467788.458223,2288,2879,e_S
1789467788.463457,2320,2881,e_S
1789467788.463627,2343,2881,e_S
1789467788.463729,2339,2879,e_S
1789467788.465652,2329,2880,e_S
1789467788.4679601,2374,2879,e_S
1789467788.472884,2370,2880,e_S
1789467788.473652,2410,2880,e_S
1789467788.47377,2404,2881,e_S
1789467788.4755158,2407,2880,e_S
1789467788.478646,2439,2880,e_S
1789467788.480217,2396,2880,e_S
1789467788.484241,2314,2879,e_S
1789467788.4844532,2315,2880,e_S
1789467788.486387,2327,2881,e_S
1789467788.4874501,2347,2881,e_S
1789467788.489763,2363,2880,e_S
1789467788.492074,2349,2879,e_S
1789467788.494397,2357,2880,e_S
1789467788.495457,2387,2880,e_S
1789467788.4979048,2407,2881,e_S
1789467788.500203,2338,2880,e_S
1789467788.50128,2280,2878,e_S
1789467788.5035908,2283,2880,e_S
1789467788.506115,2334,2880,e_S
1789467788.507405,2313,2880,e_S
1789467788.5098739,2278,2879,e_S
1789467788.512428,2264,2878,e_S
1789467788.513719,2262,2880,e_S
1789467788.5216498,2271,2880,e_S
1789467788.522989,2243,2878,e_S
1789467788.5232599,2193,2880,e_S
1789467788.5246909,2213,2880,e_S
1789467788.525098,2157,2879,e_S
1789467788.5266922,2178,2880,e_S
1789467788.5284019,2241,2880,e_S
1789467788.5324118,2276,2879,e_S
1789467788.532618,2165,2880,e_S
1789467788.534215,2238,2880,e_S
1789467788.5355232,2307,2879,e_S
1789467788.537827,2197,2879,e_S
1789467788.542165,2135,2880,e_S
1789467788.5422752,2044,2877,e_S
1789467788.544231,2257,2880,e_S
1789467788.546061,2221,2881,e_S
1789467788.547586,2277,2879,e_S
1789467788.552727,2182,2879,e_S
1789467788.552835,2263,2880,e_S
1789467788.554979,2230,2879,e_S
1789467788.556031,2239,2880,e_S
1789467788.557326,2168,2880,e_S
1789467788.559705,2205,2880,e_S
1789467788.562262,2223,2881,e_S
1789467788.563553,2212,2880,e_S
1789467788.565662,2176,2879,e_S
1789467788.56821,2025,2878,e_S
1789467788.5692701,1986,2878,e_S
1789467788.571816,2081,2880,e_S
1789467788.574236,2494,2880,e_S
1789467788.575524,2469,2880,e_S
1789467788.577634,1974,2877,e_S
1789467788.579788,2130,2880,e_S
1789467788.582339,2069,2877,e_S
1789467788.583402,2009,2877,e_S
1789467788.587845,2217,2880,e_S
1789467788.588277,2778,2880,e_S
1789467788.590094,1823,2877,e_S
1789467788.591511,1838,2876,e_S
1789467788.5946639,1957,2879,e_S
1789467788.59841,2016,2878,e_S
1789467788.598549,2211,2879,e_S
1789467788.6005309,2395,2880,e_S
1789467788.601589,1894,2877,e_S
1789467788.607358,2041,2879,e_S
1789467788.6081228,2329,2880,e_S
1789467788.6082299,2201,2880,e_S
1789467788.609947,2199,2880,e_S
1789467788.613236,2093,2877,e_S
1789467788.6136289,2185,2880,e_S
1789467788.6185431,2269,2880,e_S
1789467788.618838,2412,2879,e_S
1789467788.6203892,2015,2879,e_S
1789467788.621692,1727,2877,e_S
1789467788.623824,2017,2878,e_S
1789467788.6258922,2179,2880,e_S
1789467788.628205,2379,2880,e_S
1789467788.629496,2018,2877,e_S
1789467788.631802,1961,2878,e_S
1789467788.6343198,1869,2879,e_S
1789467788.6355488,2027,2877,e_S
1789467788.6380959,2500,2880,e_S
1789467788.639248,2314,2880,e_S
1789467788.6413991,2205,2880,e_S
1789467788.643782,2043,2876,e_S
1789467788.6460428,2472,2881,e_S
1789467788.647338,1841,2877,e_S
1789467788.6498098,1926,2878,e_S
1789467788.653483,2107,2881,e_S
1789467788.654021,2087,2880,e_S
1789467788.6560462,2090,2880,e_S
1789467788.6578188,1963,2880,e_S
1789467788.6608598,1913,2877,e_S
1789467788.664462,2119,2881,e_S
1789467788.664711,2201,2881,e_S
1789467788.666629,2188,2880,e_S
1789467788.667935,2418,2880,e_S
1789467788.6692312,2156,2880,e_S
1789467788.6741629,1568,2877,e_S
1789467788.674989,1849,2877,e_S
1789467788.676425,2336,2881,e_S
1789467788.678132,1899,2878,e_S
1789467788.6799119,1999,2878,e_S
1789467788.6846879,2381,2880,e_S
1789467788.684992,2074,2879,e_S
1789467788.686817,2235,2880,e_S
1789467788.6878731,2113,2879,e_S
1789467788.689248,2073,2878,e_S
1789467788.691395,1975,2877,e_S
1789467788.693701,2067,2879,e_S
1789467788.695936,2038,2878,e_S
1789467788.698004,1986,2877,e_S
1789467788.6993,1903,2877,e_S
1789467788.701653,1801,2877,e_S
1789467788.7042859,2122,2879,e_S
1789467788.705345,1909,2877,e_S
1789467788.707673,1766,2878,e_S
1789467788.7100139,2105,2878,e_S
1789467788.7113101,2228,2880,e_S
1789467788.713436,2047,2879,e_S
1789467788.720352,2184,2879,e_S
1789467788.720854,2187,2879,e_S
1789467788.720958,2093,2879,e_S
1789467788.723862,2243,2879,e_S
1789467788.7242749,2120,2878,e_S
1789467788.725895,1999,2878,e_S
1789467788.7306519,2333,2881,e_S
1789467788.7307909,2005,2877,e_S
1789467788.7329621,1740,2877,e_S
1789467788.734305,2291,2879,e_S
1789467788.7354639,1979,2880,e_S
1789467788.7402182,1907,2876,e_S
1789467788.7406049,2054,2878,e_S
1789467788.742363,1941,2877,e_S
1789467788.744444,1846,2878,e_S
1789467788.747395,1989,2878,e_S
1789467788.7475681,1928,2875,e_S
1789467788.751101,2160,2878,e_S
1789467788.751359,2099,2879,e_S
1789467788.754126,2085,2879,e_S
1789467788.755423,2229,2880,e_S
1789467788.757744,2114,2878,e_S
1789467788.7598069,2102,2877,e_S
1789467788.762124,2048,2879,e_S
1789467788.7634182,2015,2878,e_S
1789467788.765965,2104,2880,e_S
1789467788.767257,1945,2879,e_S
1789467788.769332,1991,2878,e_S
1789467788.771646,2070,2880,e_S
1789467788.773709,1904,2879,e_S
1789467788.776257,1954,2879,e_S
1789467788.777308,2219,2881,e_S
1789467788.779419,2206,2880,e_S
1789467788.781675,2057,2880,e_S
1789467788.785713,2048,2879,e_S
1789467788.786228,2013,2879,e_S
1789467788.788333,2176,2880,e_S
1789467788.7898638,2063,2877,e_S
1789467788.793171,2084,2878,e_S
1789467788.7932851,2282,2880,e_S
1789467788.7965288,2181,2880,e_S
1789467788.798497,1962,2876,e_S
1789467788.799707,2042,2878,e_S
1789467788.802034,2097,2879,e_S
1789467788.804378,2009,2877,e_S
1789467788.805436,2171,2880,e_S
1789467788.8079848,2054,2878,e_S
1789467788.8102982,1839,2878,e_S
1789467788.811438,1871,2877,e_S
1789467788.813985,1957,2878,e_S
1789467788.815287,2181,2879,e_S
1789467788.817837,1970,2880,e_S
1789467788.819246,1896,2877,e_S
1789467788.821325,2087,2879,e_S
1789467788.823874,2115,2880,e_S
1789467788.826299,2108,2881,e_S
1789467788.8313339,2151,2880,e_S
1789467788.8326762,2138,2881,e_S
1789467788.834211,2077,2881,e_S
1789467788.8344698,1928,2878,e_S
1789467788.836277,2209,2880,e_S
1789467788.838211,2098,2881,e_S
1789467788.839658,2021,2880,e_S
1789467788.8427362,2025,2877,e_S
1789467788.8448892,2002,2877,e_S
1789467788.846188,2143,2880,e_S
1789467788.847486,2135,2880,e_S
1789467788.8517509,2054,2879,e_S
1789467788.8521721,2100,2878,e_S
1789467788.8538828,2037,2878,e_S
1789467788.855744,2028,2879,e_S
1789467788.8587341,2085,2880,e_S
1789467788.861839,2031,2877,e_S
1789467788.862095,2158,2879,e_S
1789467788.863886,2106,2879,e_S
1789467788.865242,1903,2877,e_S
1789467788.867794,2079,2879,e_S
1789467788.8703492,2157,2879,e_S
1789467788.8716412,2025,2878,e_S
1789467788.87419,1958,2877,e_S
1789467788.8754802,2129,2880,e_S
1789467788.8777092,2152,2880,e_S
1789467788.88001,2083,2880,e_S
1789467788.881299,2193,2880,e_S
1789467788.8834162,2107,2879,e_S
1789467788.885698,2003,2877,e_S
1789467788.888243,2163,2880,e_S
1789467788.889536,2002,2877,e_S
1789467788.892084,1773,2877,e_S
1789467788.897397,2130,2880,e_S
1789467788.8975182,2296,2879,e_S
1789467788.8979468,2268,2880,e_S
1789467788.899415,2139,2879,e_S
1789467788.901951,1951,2877,e_S
1789467788.904175,1997,2879,e_S
1789467788.9070132,2131,2877,e_S
1789467788.908997,2082,2878,e_S
1789467788.9103072,2055,2877,e_S
1789467788.9116,2059,2879,e_S
1789467788.913919,1953,2875,e_S
1789467788.916242,1907,2877,e_S
1789467788.9175339,2178,2879,e_S
1789467788.920192,2202,2879,e_S
1789467788.9214919,2196,2880,e_S
1789467788.9238,2279,2881,e_S
1789467788.9258611,2278,2880,e_S
1789467788.928164,2101,2880,e_S
1789467788.9294531,1945,2877,e_S
1789467788.932003,2109,2880,e_S
1789467788.933219,2090,2879,e_S
1789467788.9355361,2091,2879,e_S
1789467788.9378402,2046,2878,e_S
1789467788.942484,2077,2879,e_S
1789467788.942981,1972,2877,e_S
1789467788.945191,2027,2878,e_S
1789467788.9453619,2093,2878,e_S
1789467788.9480479,2175,2879,e_S
1789467788.953179,2143,2879,e_S
1789467788.9533281,2164,2880,e_S
1789467788.953426,2133,2879,e_S
1789467788.9562502,2087,2879,e_S
1789467788.957547,2052,2877,e_S
1789467788.960117,2333,2880,e_S
1789467788.9614148,2298,2880,e_S
1789467788.963966,1898,2878,e_S
1789467788.965197,1917,2877,e_S
1789467788.9677498,2003,2876,e_S
1789467788.9703,1948,2877,e_S
1789467788.971596,2123,2880,e_S
1789467788.9741461,2054,2878,e_S
1789467788.975436,2050,2880,e_S
1789467788.977985,1988,2878,e_S
1789467788.979276,2193,2880,e_S
1789467788.981827,2200,2881,e_S
1789467788.9832,2137,2880,e_S
1789467788.9883049,2120,2878,e_S
1789467788.988391,2060,2878,e_S
1789467788.990387,1994,2878,e_S
1789467788.9925902,2033,2878,e_S
1789467788.995286,2104,2880,e_S
1789467788.9953659,1944,2877,e_S
1789467788.998252,2130,2879,e_S
1789467789.000302,2155,2880,e_S
1789467789.001354,2130,2879,e_S
1789467789.0036721,2071,2880,e_S
1789467789.006249,2168,2879,e_S
1789467789.0073102,2114,2879,e_S
1789467789.0097978,2013,2878,e_S
1789467789.012112,2031,2878,e_S
1789467789.0131688,2262,2880,e_S
1789467789.015716,2146,2879,e_S
1789467789.017962,2120,2879,e_S
1789467789.019256,2110,2878,e_S
1789467789.021804,2114,2880,e_S
1789467789.024168,2084,2877,e_S
1789467789.025225,2026,2878,e_S
1789467789.027532,2081,2877,e_S
1789467789.0335,2135,2881,e_S
1789467789.034335,2044,2879,e_S
1789467789.03473,2020,2878,e_S
1789467789.0362089,2069,2879,e_S
1789467789.0379221,2047,2879,e_S
1789467789.0392451,2244,2881,e_S
1789467789.043644,2168,2880,e_S
1789467789.043901,2051,2878,e_S
1789467789.045511,2107,2880,e_S
1789467789.04807,2118,2880,e_S
1789467789.0492952,2121,2878,e_S
1789467789.0518699,2090,2879,e_S
1789467789.053168,2089,2879,e_S
1789467789.055413,2062,2880,e_S
1789467789.057728,2061,2877,e_S
1789467789.0602748,2071,2878,e_S
1789467789.0615628,2111,2880,e_S
1789467789.063871,2114,2879,e_S
1789467789.06516,2094,2880,e_S
1789467789.067706,2106,2878,e_S
1789467789.0700018,2069,2879,e_S
1789467789.07118,2059,2881,e_S
1789467789.073479,2082,2880,e_S
1789467789.078731,2165,2881,e_S
1789467789.0791821,2208,2881,e_S
1789467789.0793128,2059,2880,e_S
1789467789.081563,2073,2880,e_S
1789467789.083103,2100,2879,e_S
1789467789.0864909,2133,2879,e_S
1789467789.089084,2070,2879,e_S
1789467789.0892348,1937,2878,e_S
1789467789.09203,2028,2878,e_S
1789467789.093091,2160,2881,e_S
1789467789.095412,2422,2881,e_S
1789467789.0977511,2154,2879,e_S
1789467789.099099,2014,2879,e_S
1789467789.101412,2078,2880,e_S
1789467789.1039622,2051,2879,e_S
1789467789.105272,2133,2879,e_S
1789467789.1075861,2299,2880,e_S
1789467789.109895,2170,2880,e_S
1789467789.111187,1767,2876,e_S
1789467789.113733,1907,2876,e_S
1789467789.115999,2200,2880,e_S
1789467789.11729,1969,2878,e_S
1789467789.1198342,1970,2878,e_S
1789467789.121312,2570,2881,e_S
1789467789.124855,2197,2880,e_S
1789467789.127255,2022,2880,e_S
1789467789.127403,1889,2878,e_S
1789467789.1298969,2174,2880,e_S
1789467789.134704,1893,2877,e_S
1789467789.134858,2172,2880,e_S
1789467789.136598,2212,2879,e_S
1789467789.1379032,2332,2880,e_S
1789467789.1391969,2192,2879,e_S
1789467789.141751,1965,2876,e_S
1789467789.1440718,2282,2881,e_S
1789467789.1453671,2315,2881,e_S
1789467789.147918,2282,2881,e_S
1789467789.150244,2408,2879,e_S
1789467789.15132,2050,2879,e_S
1789467789.153402,1957,2878,e_S
1789467789.15571,2015,2879,e_S
1789467789.1577768,1237,2877,e_S
1789467789.159085,1854,2878,e_S
1789467789.161592,2829,2880,e_S
1789467789.1639118,2235,2880,e_S
1789467789.1652071,2052,2879,e_S
1789467789.169761,1847,2876,e_S
1789467789.170221,2215,2880,e_S
1789467789.1721869,2527,2881,e_S
1789467789.174043,1753,2878,e_S
1789467789.176097,2375,2880,e_S
1789467789.177432,2378,2880,e_S
1789467789.179928,1687,2876,e_S
1789467789.181619,1890,2878,e_S
1789467789.1841788,2125,2879,e_S
1789467789.185226,2193,2880,e_S
1789467789.187296,1689,2877,e_S
1789467789.189384,2256,2880,e_S
1789467789.1919339,1840,2877,e_S
1789467789.193197,1726,2878,e_S
1789467789.195721,2760,2880,e_S
1789467789.1970901,2262,2880,e_S
1789467789.199154,2072,2879,e_S
1789467789.2017071,2025,2880,e_S
1789467789.203081,2094,2878,e_S
1789467789.205392,2524,2880,e_S
1789467789.207691,2011,2878,e_S
1789467789.209087,1269,2878,e_S
1789467789.21488,1978,2878,e_S
1789467789.215306,2323,2880,e_S
1789467789.215771,1613,2877,e_S
1789467789.2179189,2546,2881,e_S
1789467789.219372,2722,2881,e_S
1789467789.2226481,2094,2879,e_S
1789467789.225076,1850,2878,e_S
1789467789.22525,2119,2879,e_S
1789467789.2278469,2289,2878,e_S
1789467789.230176,2005,2878,e_S
1789467789.231235,2194,2880,e_S
1789467789.233551,1505,2877,e_S
1789467789.236116,1987,2878,e_S
1789467789.237417,2171,2879,e_S
1789467789.239962,697,2878,e_S
1789467789.241138,2915,2881,e_S
1789467789.2431931,2641,2881,e_S
1789467789.245739,1867,2878,e_S
1789467789.2470698,1925,2879,e_S
1789467789.249142,2060,2879,e_S
1789467789.251233,2080,2880,e_S
1789467789.253533,2304,2880,e_S
1789467789.256227,2058,2877,e_S
1789467789.259885,1216,2878,e_S
1789467789.260021,2390,2881,e_S
1789467789.262356,1584,2878,e_S
1789467789.264572,2092,2881,e_S
1789467789.2661262,1381,2877,e_S
1789467789.269828,2378,2880,e_S
1789467789.269981,2541,2880,e_S
1789467789.271574,1939,2876,e_S
1789467789.274132,1947,2877,e_S
1789467789.275219,2703,2881,e_S
1789467789.277545,1753,2877,e_S
1789467789.2800992,1582,2877,e_S
1789467789.281389,2298,2879,e_S
1789467789.283651,1141,2877,e_S
1789467789.28595,1008,2877,e_S
1789467789.2870882,3263,2882,e_S
1789467789.289641,2448,2881,e_S
1789467789.2920551,1969,2879,e_S
1789467789.2933471,2007,2877,e_S
1789467789.295868,1960,2878,e_S
1789467789.2979379,2123,2879,e_S
1789467789.2992299,1535,2878,e_S
1789467789.305729,2450,2880,e_S
1789467789.306499,2142,2879,e_S
1789467789.307748,1526,2875,e_S
1789467789.3079429,1257,2877,e_S
1789467789.309367,2365,2881,e_S
1789467789.312497,2387,2880,e_S
1789467789.3151622,2143,2879,e_S
1789467789.3153121,2283,2881,e_S
1789467789.317906,2386,2880,e_S
1789467789.31903,1409,2877,e_S
1789467789.321402,1150,2877,e_S
1789467789.32372,1266,2877,e_S
1789467789.325013,2494,2881,e_S
1789467789.327113,2294,2880,e_S
1789467789.329191,1593,2876,e_S
1789467789.331511,1510,2877,e_S
1789467789.333625,1858,2878,e_S
1789467789.3357,2845,2881,e_S
1789467789.337775,2810,2880,e_S
1789467789.339113,1814,2876,e_S
1789467789.341658,1368,2877,e_S
1789467789.343743,1955,2877,e_S
1789467789.345047,2239,2880,e_S
1789467789.349905,1783,2877,e_S
1789467789.3504372,1426,2877,e_S
1789467789.353879,2022,2879,e_S
1789467789.354282,1258,2876,e_S
1789467789.3558881,2080,2879,e_S
1789467789.357719,2301,2881,e_S
1789467789.360489,1463,2878,e_S
1789467789.36251,2031,2878,e_S
1789467789.3635561,2232,2879,e_S
1789467789.366119,1645,2879,e_S
1789467789.367632,2180,2878,e_S
1789467789.369023,2105,2880,e_S
1789467789.37133,383,2877,e_S
1789467789.373644,2029,2878,e_S
1789467789.375956,2401,2881,e_S
1789467789.377246,2188,2880,e_S
1789467789.3797948,652,2877,e_S
1789467789.381866,1675,2878,e_S
1789467789.383158,1612,2878,e_S
1789467789.3854709,3020,2880,e_S
1789467789.38802,2284,2880,e_S
1789467789.389081,1300,2876,e_S
1789467789.391627,1439,2878,e_S
1789467789.396357,1731,2878,e_S
1789467789.3971908,1621,2878,e_S
1789467789.3976161,2102,2878,e_S
1789467789.4005299,1522,2877,e_S
1789467789.402334,1230,2877,e_S
1789467789.4037051,1862,2876,e_S
1789467789.4064388,1881,2876,e_S
1789467789.4081018,1027,2877,e_S
1789467789.40974,1902,2878,e_S
1789467789.41206,2590,2880,e_S
1789467789.4133482,1549,2877,e_S
1789467789.41567,1745,2876,e_S
1789467789.417977,1489,2877,e_S
1789467789.4192011,460,2877,e_S
1789467789.4217489,2995,2881,e_S
1789467789.424065,2449,2879,e_S
1789467789.4253561,943,2877,e_S
1789467789.427903,1265,2877,e_S
1789467789.429195,1740,2878,e_S
1789467789.431626,1346,2877,e_S
1789467789.43292,694,2878,e_S
1789467789.43547,2958,2882,e_S
1789467789.4380229,1435,2877,e_S
1789467789.4417322,979,2876,e_S
1789467789.4418318,2684,2880,e_S
1789467789.444196,1640,2877,e_S
1789467789.445651,1499,2877,e_S
1789467789.447124,2421,2881,e_S
1789467789.449164,2205,2877,e_S
1789467789.4520829,1838,2876,e_S
1789467789.454219,1508,2877,e_S
1789467789.455383,1674,2877,e_S
1789467789.457914,1780,2876,e_S
1789467789.4592059,2071,2879,e_S
1789467789.461523,1749,2877,e_S
1789467789.46416,1864,2877,e_S
1789467789.4652119,2452,2881,e_S
1789467789.467516,2151,2879,e_S
1789467789.469742,1842,2877,e_S
1789467789.470928,2190,2879,e_S
1789467789.47299,2062,2879,e_S
1789467789.4752939,2009,2880,e_S
1789467789.477605,1973,2878,e_S
1789467789.478932,2246,2880,e_S
1789467789.481492,1707,2877,e_S
1789467789.487648,2261,2880,e_S
1789467789.488091,2732,2881,e_S
1789467789.489253,2078,2881,e_S
1789467789.490546,2201,2880,e_S
1789467789.492279,2209,2879,e_S
1789467789.493729,2197,2880,e_S
1789467789.495363,1942,2877,e_S
1789467789.498475,2112,2879,e_S
1789467789.500443,2342,2881,e_S
1789467789.501736,1790,2878,e_S
1789467789.50303,1792,2876,e_S
1789467789.505589,3044,2882,e_S
1789467789.507652,2305,2879,e_S
1789467789.508945,2263,2879,e_S
1789467789.511491,2313,2881,e_S
1789467789.514045,2571,2880,e_S
1789467789.515337,2579,2882,e_S
1789467789.5178828,2250,2881,e_S
1789467789.5191748,2142,2879,e_S
1789467789.5214798,1830,2876,e_S
1789467789.523777,1690,2877,e_S
1789467789.524876,1993,2877,e_S
1789467789.527348,2855,2882,e_S
1789467789.53444,2333,2880,e_S
1789467789.5356631,1942,2877,e_S
1789467789.5357518,2407,2879,e_S
1789467789.536016,2696,2881,e_S
1789467789.537857,2281,2880,e_S
1789467789.5398872,2322,2879,e_S
1789467789.5413098,2199,2880,e_S
1789467789.544557,2129,2880,e_S
1789467789.546519,2258,2879,e_S
1789467789.547822,1461,2876,e_S
1789467789.5489228,1862,2878,e_S
1789467789.55359,2662,2880,e_S
1789467789.554344,1550,2877,e_S
1789467789.556581,2271,2879,e_S
1789467789.558399,2215,2879,e_S
1789467789.559906,2278,2880,e_S
1789467789.561501,2154,2879,e_S
1789467789.564655,2454,2880,e_S
1789467789.566286,2212,2880,e_S
1789467789.5675871,2088,2877,e_S
1789467789.568937,2153,2879,e_S
1789467789.5715032,2286,2879,e_S
1789467789.573812,2284,2880,e_S
1789467789.575104,1796,2877,e_S
1789467789.577625,1735,2876,e_S
1789467789.578918,2179,2880,e_S
1789467789.5812259,2312,2880,e_S
1789467789.583772,1496,2877,e_S
1789467789.5850701,2482,2881,e_S
1789467789.587622,1692,2877,e_S
1789467789.5888808,3022,2883,e_S
1789467789.590954,2878,2883,e_S
1789467789.5935009,1666,2877,e_S
1789467789.59584,1511,2878,e_S
1789467789.599981,2523,2880,e_S
1789467789.600396,2349,2880,e_S
1789467789.602388,2095,2878,e_S
1789467789.604257,866,2877,e_S
1789467789.605718,2258,2881,e_S
1789467789.607438,2928,2881,e_S
1789467789.610681,1261,2876,e_S
1789467789.612621,1546,2878,e_S
1789467789.613922,2476,2881,e_S
1789467789.6149728,2470,2880,e_S
1789467789.617526,2609,2881,e_S
1789467789.619841,1978,2877,e_S
1789467789.620897,1791,2877,e_S
1789467789.622963,1984,2881,e_S
1789467789.625509,1845,2876,e_S
1789467789.6278121,1962,2877,e_S
1789467789.629102,1341,2877,e_S
1789467789.631648,2124,2879,e_S
1789467789.6339462,3085,2882,e_S
1789467789.635005,2454,2882,e_S
1789467789.637561,1843,2880,e_S
1789467789.638914,2107,2879,e_S
1789467789.641384,1665,2878,e_S
1789467789.645149,1940,2877,e_S
1789467789.6458938,2256,2879,e_S
1789467789.6477199,2173,2880,e_S
1789467789.649556,1895,2878,e_S
1789467789.651389,1931,2879,e_S
1789467789.655819,1751,2876,e_S
1789467789.6560278,1646,2878,e_S
1789467789.657665,1852,2878,e_S
1789467789.659745,1776,2880,e_S
1789467789.660939,3190,2883,e_S
1789467789.665215,2407,2880,e_S
1789467789.665954,2011,2879,e_S
1789467789.667729,2290,2880,e_S
1789467789.669454,1512,2876,e_S
1789467789.670903,1430,2877,e_S
1789467789.675704,2451,2882,e_S
1789467789.675989,2291,2879,e_S
1789467789.6779652,2282,2879,e_S
1789467789.679264,1919,2878,e_S
1789467789.681333,2331,2880,e_S
1789467789.683532,2367,2880,e_S
1789467789.684875,2077,2879,e_S
1789467789.687424,1943,2877,e_S
1789467789.689732,2305,2879,e_S
1789467789.691026,1863,2878,e_S
1789467789.69315,1961,2878,e_S
1789467789.695678,1913,2880,e_S
1789467789.696971,1781,2878,e_S
1789467789.699279,1708,2876,e_S
1789467789.701826,1290,2877,e_S
1789467789.703121,3152,2883,e_S
1789467789.705666,2617,2882,e_S
1789467789.706957,2497,2881,e_S
1789467789.710523,2146,2881,e_S
1789467789.712183,1367,2878,e_S
1789467789.715343,2230,2881,e_S
1789467789.715471,2026,2877,e_S
1789467789.718163,1738,2877,e_S
1789467789.721395,1737,2878,e_S
1789467789.721558,2248,2879,e_S
1789467789.723389,2767,2880,e_S
1789467789.7258508,2205,2879,e_S
1789467789.726906,1953,2877,e_S
1789467789.729464,1923,2878,e_S
1789467789.7318342,2235,2877,e_S
1789467789.732928,2199,2880,e_S
1789467789.734997,1839,2878,e_S
1789467789.7373052,1271,2878,e_S
1789467789.7396102,1795,2876,e_S
1789467789.740906,2303,2880,e_S
1789467789.743215,2343,2878,e_S
1789467789.745764,1679,2877,e_S
1789467789.746816,2148,2878,e_S
1789467789.749127,2616,2881,e_S
1789467789.7517068,2117,2879,e_S
1789467789.755202,1742,2877,e_S
1789467789.755649,2025,2876,e_S
1789467789.757924,2276,2880,e_S
1789467789.760183,1980,2879,e_S
1789467789.7630131,1934,2877,e_S
1789467789.7631328,2217,2880,e_S
1789467789.766638,1528,2879,e_S
1789467789.768651,1780,2878,e_S
1789467789.769956,2390,2880,e_S
1789467789.771256,2538,2881,e_S
1789467789.7755442,2090,2880,e_S
1789467789.776374,1819,2877,e_S
1789467789.778209,1908,2878,e_S
1789467789.77968,2036,2878,e_S
1789467789.781418,2030,2878,e_S
1789467789.783066,2554,2881,e_S
1789467789.7883918,2649,2880,e_S
1789467789.788588,1779,2876,e_S
1789467789.789642,1468,2877,e_S
1789467789.7908092,2028,2878,e_S
1789467789.793364,1877,2878,e_S
1789467789.795435,2549,2881,e_S
1789467789.796781,2104,2880,e_S
1789467789.799335,2433,2880,e_S
1789467789.8018801,2817,2882,e_S
1789467789.8031738,1139,2876,e_S
1789467789.805723,1671,2877,e_S
1789467789.80701,2635,2881,e_S
1789467789.809505,2343,2880,e_S
1789467789.811807,1986,2879,e_S
1789467789.813102,1889,2876,e_S
1789467789.815367,1656,2876,e_S
1789467789.82071,2149,2879,e_S
1789467789.8214972,2448,2880,e_S
1789467789.821881,2729,2881,e_S
1789467789.823303,2166,2880,e_S
1789467789.8250391,1812,2876,e_S
1789467789.8279302,2487,2881,e_S
1789467789.8314471,2763,2882,e_S
1789467789.83167,1898,2877,e_S
1789467789.833549,1529,2877,e_S
1789467789.83484,1919,2878,e_S
1789467789.837149,2226,2879,e_S
1789467789.839711,1861,2876,e_S
1789467789.840765,1900,2878,e_S
1789467789.843311,2121,2879,e_S
1789467789.8456151,2018,2879,e_S
1789467789.846736,2148,2879,e_S
1789467789.8490481,2105,2880,e_S
1789467789.851116,2062,2877,e_S
1789467789.853662,2030,2878,e_S
1789467789.85495,1911,2878,e_S
1789467789.85703,2668,2880,e_S
1789467789.8595898,2071,2880,e_S
1789467789.8649201,2117,2879,e_S
1789467789.86537,1987,2877,e_S
1789467789.866184,1850,2878,e_S
1789467789.86773,2348,2881,e_S
1789467789.869508,2524,2881,e_S
1789467789.8713999,2137,2880,e_S
1789467789.87613,2001,2878,e_S
1789467789.876333,1931,2877,e_S
1789467789.878256,2039,2877,e_S
1789467789.879555,2153,2881,e_S
1789467789.8807979,2018,2877,e_S
1789467789.882952,2232,2880,e_S
1789467789.885511,2153,2879,e_S
1789467789.886802,2144,2880,e_S
1789467789.889354,2163,2880,e_S
1789467789.890749,2213,2880,e_S
1789467789.893294,2194,2879,e_S
1789467789.8958368,2223,2880,e_S
1789467789.897124,2440,2880,e_S
1789467789.899433,2052,2877,e_S
1789467789.900759,1812,2877,e_S
1789467789.903061,2433,2880,e_S
1789467789.905129,2477,2879,e_S
1789467789.910242,2202,2879,e_S
1789467789.9106402,1946,2877,e_S
1789467789.9110122,1993,2877,e_S
1789467789.913755,2266,2881,e_S
1789467789.9154801,2622,2881,e_S
1789467789.9170098,2699,2881,e_S
1789467789.920595,1935,2877,e_S
1789467789.9207969,2355,2881,e_S
1789467789.923334,2412,2879,e_S
1789467789.925833,2140,2879,e_S
1789467789.926892,2243,2879,e_S
1789467789.9294488,1779,2877,e_S
1789467789.930738,2211,2879,e_S
1789467789.932899,2430,2879,e_S
1789467789.9353752,2191,2879,e_S
1789467789.937688,2150,2879,e_S
1789467789.938744,2102,2879,e_S
1789467789.94107,2234,2879,e_S
1789467789.9436202,2860,2881,e_S
1789467789.944741,2410,2881,e_S
1789467789.947287,1944,2878,e_S
1789467789.949585,2270,2881,e_S
1789467789.950742,2431,2879,e_S
1789467789.9574242,2032,2879,e_S
1789467789.957578,2258,2880,e_S
1789467789.957719,2362,2880,e_S
1789467789.9596832,2345,2879,e_S
1789467789.961113,1767,2877,e_S
1789467789.9662411,2318,2880,e_S
1789467789.966413,2433,2880,e_S
1789467789.9681191,2222,2879,e_S
1789467789.9694378,2287,2879,e_S
1789467789.97179,2214,2879,e_S
1789467789.975349,2048,2879,e_S
1789467789.9760199,2148,2879,e_S
1789467789.978112,2550,2881,e_S
1789467789.9795651,2547,2881,e_S
1789467789.98151,2444,2881,e_S
1789467789.983125,2255,2879,e_S
1789467789.98701,2171,2879,e_S
1789467789.9871302,2277,2880,e_S
1789467789.989158,2337,2880,e_S
1789467789.99147,2215,2879,e_S
1789467789.992769,2246,2880,e_S
1789467789.994839,2250,2879,e_S
1789467789.997142,2283,2880,e_S
1789467789.9995048,2417,2878,e_S
1789467790.0007942,2366,2880,e_S
1789467790.0030878,2302,2880,e_S
1789467790.005464,2293,2879,e_S
1789467790.006757,2309,2880,e_S
1789467790.0093162,2294,2881,e_S
1789467790.011769,2233,2879,e_S
1789467790.0130649,2300,2879,e_S
1789467790.015131,2242,2879,e_S
1789467790.017432,2223,2879,e_S
1789467790.021935,2250,2880,e_S
1789467790.022918,2239,2880,e_S
1789467790.0240798,2233,2879,e_S
1789467790.025695,2244,2880,e_S
1789467790.027512,2295,2881,e_S
1789467790.028797,2212,2880,e_S
1789467790.0323682,2177,2880,e_S
1789467790.034292,2294,2880,e_S
1789467790.035584,2295,2879,e_S
1789467790.036702,2273,2879,e_S
1789467790.039005,2201,2880,e_S
1789467790.0415602,2204,2880,e_S
1789467790.0427,2220,2879,e_S
1789467790.045008,2202,2880,e_S
1789467790.047551,2291,2878,e_S
1789467790.048843,2220,2879,e_S
1789467790.05114,2105,2880,e_S
1789467790.053684,2215,2879,e_S
1789467790.0549781,2306,2879,e_S
1789467790.05716,2263,2880,e_S
1789467790.0594711,2149,2879,e_S
1789467790.0607638,2106,2878,e_S
1789467790.06622,2232,2880,e_S
1789467790.066672,2245,2880,e_S
1789467790.067358,2209,2879,e_S
1789467790.070289,2280,2880,e_S
1789467790.0720232,2215,2879,e_S
1789467790.076812,2109,2879,e_S
1789467790.077055,1990,2878,e_S
1789467790.077174,2141,2878,e_S
1789467790.0789928,2128,2880,e_S
1789467790.081055,2158,2879,e_S
1789467790.083406,2141,2879,e_S
1789467790.084734,1804,2876,e_S
1789467790.086974,2126,2881,e_S
1789467790.0892851,2354,2879,e_S
1789467790.091587,2045,2877,e_S
1789467790.092711,2120,2877,e_S
1789467790.09502,2263,2880,e_S
1789467790.097325,2184,2879,e_S
1789467790.09867,2231,2880,e_S
1789467790.102765,2276,2879,e_S
1789467790.10846,2057,2878,e_S
1789467790.139998,2023,2878,e_S
1789467790.140177,2146,2880,e_S
1789467790.140355,2176,2879,e_S
1789467790.1404722,2085,2877,e_S
1789467790.140553,1954,2877,e_S
1789467790.1406322,2043,2879,e_S
1789467790.140789,2012,2879,e_S
1789467790.140845,2131,2880,e_S
1789467790.1408808,2211,2879,e_S
1789467790.140913,1971,2878,e_S
1789467790.1409469,1818,2878,e_S
1789467790.140979,2115,2878,e_S
1789467790.141011,2260,2879,e_S
1789467790.141136,2124,2880,e_S
1789467790.1412039,2343,2879,e_S
1789467790.1412349,2041,2879,e_S
1789467790.14127,2038,2880,e_S
1789467790.141301,2235,2880,e_S
1789467790.141334,2039,2878,e_S
1789467790.148372,2178,2881,e_S
1789467790.148422,1959,2878,e_S
1789467790.148454,2059,2880,e_S
1789467790.154094,2076,2879,e_S
1789467790.1541839,1876,2875,e_S
1789467790.154249,1924,2877,e_S
1789467790.1555068,2160,2879,e_S
1789467790.161257,2121,2879,e_S
1789467790.164505,2104,2878,e_S
1789467790.165619,2107,2877,e_S
1789467790.166201,1807,2878,e_S
1789467790.167042,2158,2878,e_S
1789467790.169239,2035,2879,e_S
1789467790.173459,2268,2879,e_S
1789467790.173783,2280,2880,e_S
1789467790.174017,2095,2879,e_S
1789467790.1762738,2231,2880,e_S
1789467790.177346,2240,2881,e_S
1789467790.1796741,2074,2878,e_S
1789467790.1843789,1947,2878,e_S
1789467790.184938,1753,2878,e_S
1789467790.185893,2127,2879,e_S
1789467790.1893508,2002,2879,e_S
1789467790.1898282,1867,2878,e_S
1789467790.1924648,1980,2877,e_S
1789467790.196703,2204,2880,e_S
1789467790.1972082,2099,2877,e_S
1789467790.197515,2118,2878,e_S
1789467790.199448,2014,2878,e_S
1789467790.20075,2543,2881,e_S
1789467790.203084,2384,2879,e_S
1789467790.205428,1895,2877,e_S
1789467790.207507,1894,2877,e_S
1789467790.209578,2023,2877,e_S
1789467790.21088,1780,2880,e_S
1789467790.2131991,2142,2878,e_S
1789467790.215504,2339,2879,e_S
1789467790.2165928,1908,2877,e_S
1789467790.21876,1931,2879,e_S
1789467790.220824,1823,2876,e_S
1789467790.223134,1945,2878,e_S
1789467790.225207,2138,2877,e_S
1789467790.22752,2075,2877,e_S
1789467790.228987,2261,2880,e_S
1789467790.234897,2239,2879,e_S
1789467790.235373,1948,2878,e_S
1789467790.2362509,2079,2879,e_S
1789467790.239611,2134,2879,e_S
1789467790.240598,2052,2877,e_S
1789467790.241823,2231,2880,e_S
1789467790.24376,1991,2877,e_S
1789467790.248075,1922,2877,e_S
1789467790.248467,1976,2878,e_S
1789467790.2486558,2245,2880,e_S
1789467790.251553,2175,2879,e_S
1789467790.252927,1966,2878,e_S
1789467790.260053,1886,2877,e_S
1789467790.261107,1958,2877,e_S
1789467790.26265,2125,2878,e_S
1789467790.265028,1909,2878,e_S
1789467790.265244,1894,2878,e_S
1789467790.2666082,2285,2879,e_S
1789467790.267155,2191,2879,e_S
1789467790.269633,2125,2879,e_S
1789467790.276,2341,2879,e_S
1789467790.276182,1829,2878,e_S
1789467790.276222,2253,2881,e_S
1789467790.277528,2239,2882,e_S
1789467790.27862,2134,2878,e_S
1789467790.280703,1881,2877,e_S
1789467790.283086,2091,2880,e_S
1789467790.284557,2115,2879,e_S
1789467790.286888,2009,2878,e_S
1789467790.289531,1854,2877,e_S
1789467790.2905998,2120,2878,e_S
1789467790.292755,2076,2878,e_S
1789467790.295475,2146,2878,e_S
1789467790.296839,2017,2878,e_S
1789467790.298912,2170,2878,e_S
1789467790.3009899,2142,2879,e_S
1789467790.303345,1660,2875,e_S
1789467790.305438,2210,2879,e_S
1789467790.3065732,2249,2881,e_S
1789467790.314123,1776,2878,e_S
1789467790.3147001,2007,2878,e_S
1789467790.315653,2206,2881,e_S
1789467790.317288,2111,2879,e_S
1789467790.317485,2052,2880,e_S
1789467790.319647,1806,2877,e_S
1789467790.321731,1870,2877,e_S
1789467790.327461,2210,2880,e_S
1789467790.3275719,2322,2880,e_S
1789467790.327914,2105,2878,e_S
1789467790.3303418,2059,2877,e_S
1789467790.331413,1985,2878,e_S
1789467790.3326159,2003,2879,e_S
1789467790.338599,2064,2879,e_S
1789467790.339246,2113,2879,e_S
1789467790.3397171,2118,2879,e_S
1789467790.34142,2094,2880,e_S
1789467790.3433971,2118,2879,e_S
1789467790.345245,2021,2877,e_S
1789467790.347046,2002,2878,e_S
1789467790.351321,2196,2881,e_S
1789467790.351637,2094,2879,e_S
1789467790.3538969,1919,2876,e_S
1789467790.3549628,2097,2880,e_S
1789467790.3572962,2172,2880,e_S
1789467790.3593931,1974,2878,e_S
1789467790.360563,2016,2877,e_S
1789467790.362954,2168,2880,e_S
1789467790.365282,2011,2878,e_S
1789467790.367624,2020,2880,e_S
1789467790.36893,2038,2879,e_S
1789467790.37102,2031,2879,e_S
1789467790.3730838,1961,2876,e_S
1789467790.3754082,2001,2878,e_S
1789467790.376576,2043,2878,e_S
1789467790.378767,2042,2879,e_S
1789467790.3808682,2001,2878,e_S
1789467790.3832362,2076,2879,e_S
1789467790.384563,2027,2878,e_S
1789467790.387236,2014,2878,e_S
1789467790.388566,2181,2879,e_S
1789467790.393858,2014,2878,e_S
1789467790.3960268,1861,2878,e_S
1789467790.397666,2008,2877,e_S
1789467790.397857,2248,2880,e_S
1789467790.400788,2218,2879,e_S
1789467790.401651,1999,2879,e_S
1789467790.404496,1973,2877,e_S
1789467790.4086819,2287,2879,e_S
1789467790.409101,2090,2880,e_S
1789467790.4094,1946,2877,e_S
1789467790.411683,2052,2878,e_S
1789467790.413055,2180,2880,e_S
1789467790.41539,1963,2877,e_S
1789467790.421908,2034,2880,e_S
1789467790.424303,1989,2879,e_S
1789467790.424573,2177,2879,e_S
1789467790.427252,2031,2878,e_S
1789467790.4291258,1932,2877,e_S
1789467790.431409,2025,2879,e_S
1789467790.435413,1920,2877,e_S
1789467790.435585,2149,2879,e_S
1789467790.436034,1917,2877,e_S
1789467790.436301,2287,2878,e_S
1789467790.438615,2210,2880,e_S
1789467790.438887,1987,2879,e_S
1789467790.440969,1994,2878,e_S
1789467790.443043,2156,2878,e_S
1789467790.445395,2088,2878,e_S
1789467790.4475799,2149,2879,e_S
1789467790.448885,2055,2879,e_S
1789467790.451242,1813,2875,e_S
1789467790.4533288,1978,2879,e_S
1789467790.455414,2146,2879,e_S
1789467790.4565592,2106,2880,e_S
1789467790.45924,2129,2880,e_S
1789467790.460555,2175,2880,e_S
1789467790.463327,2170,2880,e_S
1789467790.464679,2112,2880,e_S
1789467790.467026,2087,2879,e_S
1789467790.469663,2074,2880,e_S
1789467790.470935,2073,2878,e_S
1789467790.473072,2053,2879,e_S
1789467790.479032,2041,2878,e_S
1789467790.480271,2103,2878,e_S
1789467790.48089,2071,2877,e_S
1789467790.482878,2129,2879,e_S
1789467790.483205,2149,2879,e_S
1789467790.486609,1917,2876,e_S
1789467790.487767,2054,2879,e_S
1789467790.4904,2213,2880,e_S
1789467790.4942799,1968,2877,e_S
1789467790.494654,2039,2877,e_S
1789467790.494782,2129,2880,e_S
1789467790.49726,2089,2880,e_S
1789467790.498587,2091,2880,e_S
1789467790.5009332,2043,2879,e_S
1789467790.5060322,1908,2876,e_S
1789467790.506617,2039,2880,e_S
1789467790.507773,2134,2880,e_S
1789467790.509658,1982,2878,e_S
1789467790.5129259,1955,2878,e_S
1789467790.513419,1995,2878,e_S
1789467790.5161889,2340,2880,e_S
1789467790.520822,2258,2880,e_S
1789467790.523065,1855,2878,e_S
1789467790.523842,2074,2878,e_S
1789467790.523936,2256,2880,e_S
1789467790.525343,2046,2877,e_S
1789467790.5267808,2087,2877,e_S
1789467790.529307,2189,2880,e_S
1789467790.530632,1905,2877,e_S
1789467790.532732,2130,2879,e_S
1789467790.535199,2136,2880,e_S
1789467790.5375621,2093,2879,e_S
1789467790.5388842,2010,2877,e_S
1789467790.541214,1971,2879,e_S
1789467790.543309,2090,2878,e_S
1789467790.5446138,2090,2880,e_S
1789467790.546695,2147,2880,e_S
1789467790.5488188,2058,2880,e_S
1789467790.5511491,2191,2879,e_S
1789467790.5525491,2157,2878,e_S
1789467790.554882,2007,2877,e_S
1789467790.557458,2003,2878,e_S
1789467790.55877,2147,2881,e_S
1789467790.5655959,2181,2879,e_S
1789467790.566771,2232,2878,e_S
1789467790.568465,2138,2880,e_S
1789467790.568852,1904,2876,e_S
1789467790.570876,1932,2877,e_S
1789467790.57186,2148,2881,e_S
1789467790.573691,2089,2878,e_S
1789467790.579387,2046,2878,e_S
1789467790.579545,1987,2878,e_S
1789467790.579764,2049,2880,e_S
1789467790.582103,2181,2880,e_S
1789467790.58357,2141,2880,e_S
1789467790.585032,1985,2877,e_S
1789467790.592371,2204,2879,e_S
1789467790.5929868,2144,2880,e_S
1789467790.5936372,2004,2877,e_S
1789467790.594145,2216,2880,e_S
1789467790.595753,2228,2879,e_S
1789467790.5983202,1896,2877,e_S
1789467790.600312,1902,2877,e_S
1789467790.600961,2184,2879,e_S
1789467790.603159,2148,2880,e_S
1789467790.606673,2106,2879,e_S
1789467790.607054,2011,2878,e_S
1789467790.609097,1988,2877,e_S
1789467790.611209,2200,2880,e_S
1789467790.613303,2101,2880,e_S
1789467790.6147,2101,2878,e_S
1789467790.6168,2173,2879,e_S
1789467790.619425,2023,2879,e_S
1789467790.620787,1917,2877,e_S
1789467790.623126,2029,2877,e_S
1789467790.6252239,2224,2881,e_S
1789467790.626652,2175,2879,e_S
1789467790.6292748,1971,2877,e_S
1789467790.630591,2070,2879,e_S
1789467790.632923,2075,2879,e_S
1789467790.6355069,2166,2880,e_S
1789467790.636821,2164,2880,e_S
1789467790.639152,2112,2881,e_S
1789467790.641414,2046,2878,e_S
1789467790.642729,2030,2878,e_S
1789467790.645366,2043,2878,e_S
1789467790.646872,2045,2880,e_S
1789467790.65694,1984,2876,e_S
1789467790.6572852,2076,2878,e_S
1789467790.6595619,2255,2880,e_S
1789467790.660652,2145,2879,e_S
1789467790.661851,2050,2877,e_S
1789467790.662933,1963,2878,e_S
1789467790.663708,2204,2879,e_S
1789467790.663931,2234,2880,e_S
1789467790.6660092,2004,2877,e_S
1789467790.669717,2049,2879,e_S
1789467790.670124,2065,2878,e_S
1789467790.6730618,2081,2880,e_S
1789467790.673167,2016,2877,e_S
1789467790.674614,1991,2878,e_S
1789467790.677133,2042,2878,e_S
1789467790.684479,2056,2877,e_S
1789467790.687714,2091,2879,e_S
1789467790.690141,2082,2880,e_S
1789467790.690838,2085,2878,e_S
1789467790.691909,1984,2876,e_S
1789467790.692535,1958,2878,e_S
1789467790.693084,2015,2879,e_S
1789467790.693772,2144,2879,e_S
1789467790.6963048,2349,2881,e_S
1789467790.699782,2165,2879,e_S
1789467790.700216,1834,2877,e_S
1789467790.700591,1946,2876,e_S
1789467790.703674,2176,2881,e_S
1789467790.7050061,2373,2879,e_S
1789467790.7071092,2144,2880,e_S
1789467790.7091992,1526,2877,e_S
1789467790.710597,1968,2878,e_S
1789467790.712817,2369,2881,e_S
1789467790.715405,2581,2880,e_S
1789467790.716496,2015,2879,e_S
1789467790.718818,1773,2876,e_S
1789467790.7209542,1721,2878,e_S
1789467790.723377,2580,2880,e_S
1789467790.724689,2633,2881,e_S
1789467790.727256,2062,2879,e_S
1789467790.7296152,1678,2877,e_S
1789467790.7309382,2028,2877,e_S
1789467790.733058,2173,2880,e_S
1789467790.734422,2219,2880,e_S
1789467790.736767,2075,2880,e_S
1789467790.7391,1441,2876,e_S
1789467790.7414231,2649,2880,e_S
1789467790.7427368,2731,2881,e_S
1789467790.749311,1876,2877,e_S
1789467790.7505732,2136,2881,e_S
1789467790.753227,2253,2881,e_S
1789467790.753376,1945,2878,e_S
1789467790.753624,1901,2877,e_S
1789467790.755506,2135,2881,e_S
1789467790.757092,1894,2877,e_S
1789467790.760191,1925,2876,e_S
1789467790.763254,1694,2877,e_S
1789467790.763447,1728,2877,e_S
1789467790.766283,2185,2880,e_S
1789467790.76643,3103,2882,e_S
1789467790.7685409,1769,2877,e_S
1789467790.774951,1965,2879,e_S
1789467790.775574,2288,2880,e_S
1789467790.77612,2289,2881,e_S
1789467790.778393,1843,2877,e_S
1789467790.778573,1475,2877,e_S
1789467790.782221,2028,2877,e_S
1789467790.78279,2656,2881,e_S
1789467790.785203,2194,2879,e_S
1789467790.788566,2033,2879,e_S
1789467790.788725,2264,2879,e_S
1789467790.791255,1708,2877,e_S
1789467790.792614,1517,2879,e_S
1789467790.794701,2481,2880,e_S
1789467790.797266,1896,2879,e_S
1789467790.7983942,2211,2881,e_S
1789467790.8006241,2284,2880,e_S
1789467790.802887,1588,2878,e_S
1789467790.805225,1829,2877,e_S
1789467790.806798,1948,2878,e_S
1789467790.80912,1665,2878,e_S
1789467790.810421,2636,2881,e_S
1789467790.812747,2668,2881,e_S
1789467790.815062,1964,2879,e_S
1789467790.8173099,1800,2878,e_S
1789467790.818718,1936,2877,e_S
1789467790.821286,1507,2877,e_S
1789467790.822398,2656,2881,e_S
1789467790.824477,3030,2882,e_S
1789467790.826804,1938,2877,e_S
1789467790.8313642,1952,2877,e_S
1789467790.831973,2241,2880,e_S
1789467790.835139,2009,2879,e_S
1789467790.8353548,1864,2877,e_S
1789467790.837196,2333,2880,e_S
1789467790.8397188,1745,2877,e_S
1789467790.841687,1607,2878,e_S
1789467790.8448799,2311,2880,e_S
1789467790.845244,2419,2880,e_S
1789467790.8472252,1483,2877,e_S
1789467790.848651,1413,2877,e_S
1789467790.850971,1999,2878,e_S
1789467790.856662,2315,2881,e_S
1789467790.8576949,3251,2882,e_S
1789467790.8578172,1863,2877,e_S
1789467790.859755,1871,2878,e_S
1789467790.866526,2552,2880,e_S
1789467790.866666,1335,2878,e_S
1789467790.866854,1458,2877,e_S
1789467790.866957,2960,2881,e_S
1789467790.8701959,2563,2880,e_S
1789467790.8728478,753,2876,e_S
1789467790.8731189,702,2876,e_S
1789467790.874444,2237,2877,e_S
1789467790.876768,3359,2884,e_S
1789467790.87935,2103,2879,e_S
1789467790.880408,1959,2879,e_S
1789467790.882724,2037,2880,e_S
1789467790.8852632,2052,2877,e_S
1789467790.886374,2293,2881,e_S
1789467790.888628,2032,2878,e_S
1789467790.8912268,2176,2879,e_S
1789467790.892354,1290,2877,e_S
1789467790.89488,787,2877,e_S
1789467790.897185,2333,2880,e_S
1789467790.8984919,2720,2880,e_S
1789467790.901067,2010,2878,e_S
1789467790.903168,2246,2880,e_S
1789467790.90549,2145,2880,e_S
1789467790.906558,1856,2878,e_S
1789467790.909269,1585,2879,e_S
1789467790.914304,1604,2878,e_S
1789467790.914966,2442,2879,e_S
1789467790.915929,1666,2877,e_S
1789467790.918459,1404,2877,e_S
1789467790.9213881,943,2875,e_S
1789467790.921851,655,2877,e_S
1789467790.9251049,3524,2884,e_S
1789467790.925262,1662,2878,e_S
1789467790.928701,1119,2877,e_S
1789467790.9290051,2183,2881,e_S
1789467790.931658,1603,2877,e_S
1789467790.9330409,873,2876,e_S
1789467790.9343848,1487,2877,e_S
1789467790.9367309,1850,2877,e_S
1789467790.943684,280,2877,e_S
1789467790.9451468,243,2877,e_S
1789467790.945312,1736,2876,e_S
1789467790.9454541,2191,2879,e_S
1789467790.9476302,1694,2880,e_S
1789467790.9494069,1359,2877,e_S
1789467790.951823,1378,2878,e_S
1789467790.955213,1560,2878,e_S
1789467790.955331,1576,2877,e_S
1789467790.957504,1369,2878,e_S
1789467790.9585679,1236,2876,e_S
1789467790.9608908,1731,2877,e_S
1789467790.9634619,1689,2876,e_S
1789467790.964519,502,2877,e_S
1789467790.966697,903,2876,e_S
1789467790.96926,2408,2880,e_S
1789467790.9703748,1505,2877,e_S
1789467790.9729338,1689,2878,e_S
1789467790.975032,1013,2878,e_S
1789467790.976352,1401,2877,e_S
1789467790.9788768,2288,2880,e_S
1789467790.980952,1451,2876,e_S
1789467790.983285,1598,2876,e_S
1789467790.9846652,1361,2878,e_S
1789467790.986759,827,2877,e_S
1789467790.9891121,2191,2877,e_S
1789467790.990426,2304,2880,e_S
1789467790.9930172,2574,2880,e_S
1789467790.994354,1575,2877,e_S
1789467791.00084,1139,2877,e_S
1789467791.001434,1195,2877,e_S
1789467791.003448,1447,2877,e_S
1789467791.003639,3064,2883,e_S
1789467791.0056021,2268,2879,e_S
1789467791.007288,1188,2875,e_S
1789467791.01006,1290,2876,e_S
1789467791.0135942,2083,2877,e_S
1789467791.013779,2368,2881,e_S
1789467791.016387,2288,2879,e_S
1789467791.016625,1223,2877,e_S
1789467791.018765,1469,2877,e_S
1789467791.0208461,2590,2879,e_S
1789467791.026047,2499,2880,e_S
1789467791.027103,1834,2878,e_S
1789467791.027612,1054,2878,e_S
1789467791.0296268,1508,2877,e_S
1789467791.031457,1955,2878,e_S
1789467791.033283,2116,2878,e_S
1789467791.035692,2934,2882,e_S
1789467791.039397,2029,2878,e_S
1789467791.0396428,1956,2880,e_S
1789467791.0417001,1579,2877,e_S
1789467791.042778,1558,2878,e_S
1789467791.0453382,1650,2878,e_S
1789467791.0466392,1550,2878,e_S
1789467791.048962,3038,2882,e_S
1789467791.051188,2245,2880,e_S
1789467791.0525591,1172,2876,e_S
1789467791.05488,1751,2876,e_S
1789467791.056961,1542,2878,e_S
1789467791.059521,1798,2879,e_S
1789467791.060574,2686,2881,e_S
1789467791.062654,1585,2877,e_S
1789467791.0649831,1368,2876,e_S
1789467791.066397,2373,2880,e_S
1789467791.0687099,1840,2879,e_S
1789467791.070776,2305,2880,e_S
1789467791.0728478,1848,2878,e_S
1789467791.075222,1747,2879,e_S
1789467791.080417,2141,2878,e_S
1789467791.081012,2406,2879,e_S
1789467791.0819478,2313,2879,e_S
1789467791.086634,1988,2878,e_S
1789467791.087966,1410,2876,e_S
1789467791.0938811,1959,2879,e_S
1789467791.09423,2417,2880,e_S
1789467791.094521,2348,2880,e_S
1789467791.094885,2370,2880,e_S
1789467791.096936,1495,2877,e_S
1789467791.097148,1611,2877,e_S
1789467791.099466,2735,2882,e_S
1789467791.100679,3024,2882,e_S
1789467791.1052392,1598,2876,e_S
1789467791.106196,1934,2879,e_S
1789467791.106702,2345,2880,e_S
1789467791.1086771,1458,2879,e_S
1789467791.11187,1725,2878,e_S
1789467791.1176808,2297,2879,e_S
1789467791.11811,2161,2879,e_S
1789467791.118224,1983,2879,e_S
1789467791.1184902,1697,2879,e_S
1789467791.120691,1918,2879,e_S
1789467791.1232781,1756,2877,e_S
1789467791.124531,2200,2878,e_S
1789467791.126946,2390,2879,e_S
1789467791.1295092,1971,2878,e_S
1789467791.130809,1976,2877,e_S
1789467791.133114,1915,2880,e_S
1789467791.1354198,1706,2879,e_S
1789467791.13669,1930,2879,e_S
1789467791.138978,1068,2875,e_S
1789467791.140484,2264,2878,e_S
1789467791.1429162,3011,2883,e_S
1789467791.1454248,2388,2881,e_S
1789467791.146802,2100,2880,e_S
1789467791.149659,1856,2877,e_S
1789467791.150986,2052,2880,e_S
1789467791.153318,1921,2876,e_S
1789467791.158585,2137,2879,e_S
1789467791.1594932,2216,2880,e_S
1789467791.15996,2041,2877,e_S
1789467791.1619148,2848,2882,e_S
1789467791.1636858,2023,2880,e_S
1789467791.165108,2325,2880,e_S
1789467791.171417,2037,2876,e_S
1789467791.171634,2164,2880,e_S
1789467791.171983,2215,2880,e_S
1789467791.174073,1677,2878,e_S
1789467791.174298,3109,2883,e_S
1789467791.176398,2211,2880,e_S
1789467791.185786,1717,2878,e_S
1789467791.18607,2812,2881,e_S
1789467791.186174,2376,2880,e_S
1789467791.186396,2408,2881,e_S
1789467791.188597,2527,2881,e_S
1789467791.188715,1906,2877,e_S
1789467791.196388,2033,2878,e_S
1789467791.1967628,2487,2882,e_S
1789467791.196927,1947,2879,e_S
1789467791.1971269,2063,2880,e_S
1789467791.199169,2533,2880,e_S
1789467791.200483,1972,2876,e_S
1789467791.202828,1584,2877,e_S
1789467791.204253,2807,2881,e_S
1789467791.20682,2514,2881,e_S
1789467791.209131,2173,2879,e_S
1789467791.210229,1699,2876,e_S
1789467791.2127948,1925,2877,e_S
1789467791.215113,2734,2879,e_S
1789467791.2163231,2472,2880,e_S
1789467791.218913,2249,2880,e_S
1789467791.221338,2326,2880,e_S
1789467791.222637,2071,2879,e_S
1789467791.225194,2351,2880,e_S
1789467791.2264168,2352,2880,e_S
1789467791.228609,1840,2877,e_S
1789467791.2309859,2074,2879,e_S
1789467791.232426,1987,2878,e_S
1789467791.238474,1997,2880,e_S
1789467791.239892,2562,2880,e_S
1789467791.241272,2122,2879,e_S
1789467791.241621,2418,2879,e_S
1789467791.243694,2097,2878,e_S
1789467791.245106,2058,2878,e_S
1789467791.247612,2579,2881,e_S
1789467791.251694,2567,2880,e_S
1789467791.251884,2174,2878,e_S
1789467791.25386,2058,2879,e_S
1789467791.2551758,2003,2876,e_S
1789467791.256479,1486,2877,e_S
1789467791.258445,2922,2883,e_S
1789467791.264153,3209,2883,e_S
1789467791.265187,1905,2879,e_S
1789467791.266999,2038,2879,e_S
1789467791.267405,2244,2879,e_S
1789467791.2693949,2014,2877,e_S
1789467791.271184,1864,2878,e_S
1789467791.273217,2240,2881,e_S
1789467791.277183,2980,2881,e_S
1789467791.27741,1910,2878,e_S
1789467791.2798452,2065,2880,e_S
1789467791.281149,2336,2880,e_S
1789467791.2824461,2163,2880,e_S
1789467791.2847428,1787,2878,e_S
1789467791.2871108,2112,2879,e_S
1789467791.288341,2928,2881,e_S
1789467791.290901,2517,2881,e_S
1789467791.292974,2137,2878,e_S
1789467791.2943082,2102,2879,e_S
1789467791.2965472,1676,2876,e_S
1789467791.2991061,2044,2877,e_S
1789467791.300213,2615,2882,e_S
1789467791.302526,2552,2881,e_S
1789467791.304917,2222,2879,e_S
1789467791.306226,2024,2879,e_S
1789467791.308542,2000,2879,e_S
1789467791.310857,1991,2877,e_S
1789467791.312238,2262,2880,e_S
1789467791.319225,1934,2877,e_S
1789467791.319802,2336,2880,e_S
1789467791.3199182,1851,2878,e_S
1789467791.3221629,1737,2876,e_S
1789467791.322336,2372,2880,e_S
1789467791.325106,2211,2879,e_S
1789467791.328227,2370,2880,e_S
1789467791.3284569,1673,2876,e_S
1789467791.3325498,1590,2877,e_S
1789467791.332714,2456,2881,e_S
1789467791.334641,2858,2881,e_S
1789467791.336957,2219,2879,e_S
1789467791.3391528,1941,2878,e_S
1789467791.343741,1902,2876,e_S
1789467791.344246,2214,2881,e_S
1789467791.3447628,2362,2880,e_S
1789467791.346808,1982,2878,e_S
1789467791.348651,2023,2878,e_S
1789467791.350847,2677,2881,e_S
1789467791.352718,2188,2879,e_S
1789467791.356802,2218,2880,e_S
1789467791.356958,1859,2876,e_S
1789467791.359241,2210,2881,e_S
1789467791.36031,2127,2880,e_S
1789467791.362636,1978,2877,e_S
1789467791.365095,2236,2880,e_S
1789467791.3664901,2337,2880,e_S
1789467791.368895,2411,2880,e_S
1789467791.370226,2127,2879,e_S
1789467791.3728,1777,2876,e_S
1789467791.3742871,2602,2880,e_S
1789467791.376373,2548,2880,e_S
1789467791.3789282,2026,2877,e_S
1789467791.381016,1604,2877,e_S
1789467791.38231,2493,2880,e_S
1789467791.384929,2628,2880,e_S
1789467791.386283,1788,2876,e_S
1789467791.388852,2192,2880,e_S
1789467791.390212,2179,2880,e_S
1789467791.392926,2222,2880,e_S
1789467791.3977568,2098,2879,e_S
1789467791.397873,2422,2881,e_S
1789467791.400308,2510,2880,e_S
1789467791.402987,1727,2877,e_S
1789467791.403512,2238,2879,e_S
1789467791.406399,2190,2880,e_S
1789467791.410439,2072,2879,e_S
1789467791.410629,2187,2878,e_S
1789467791.410736,2092,2877,e_S
1789467791.4130912,2227,2879,e_S
1789467791.414239,2334,2880,e_S
1789467791.416779,2471,2879,e_S
1789467791.4216802,2415,2879,e_S
1789467791.422636,2136,2879,e_S
1789467791.4231732,2152,2879,e_S
1789467791.425761,2170,2879,e_S
1789467791.427506,1916,2877,e_S
1789467791.429937,2332,2880,e_S
1789467791.434133,1984,2878,e_S
1789467791.43444,1792,2877,e_S
1789467791.434636,2155,2880,e_S
1789467791.4367201,1953,2880,e_S
1789467791.4392881,2802,2881,e_S
1789467791.440341,2167,2880,e_S
1789467791.442901,2165,2881,e_S
1789467791.4449742,2394,2880,e_S
1789467791.4462678,1994,2878,e_S
1789467791.448585,2390,2882,e_S
1789467791.450898,2238,2880,e_S
1789467791.452249,2300,2879,e_S
1789467791.454855,2145,2880,e_S
1789467791.456212,1974,2878,e_S
1789467791.458771,1887,2877,e_S
1789467791.461322,1844,2878,e_S
1789467791.462616,2301,2881,e_S
1789467791.4651709,2361,2881,e_S
1789467791.466232,2268,2879,e_S
1789467791.4726489,2178,2879,e_S
1789467791.473195,1998,2878,e_S
1789467791.473305,1998,2876,e_S
1789467791.47571,2348,2880,e_S
1789467791.477459,1984,2879,e_S
1789467791.4790552,2650,2880,e_S
1789467791.4812338,2456,2880,e_S
1789467791.485178,2146,2879,e_S
1789467791.485306,2217,2880,e_S
1789467791.487555,2188,2879,e_S
1789467791.488617,2167,2880,e_S
1789467791.490839,2320,2880,e_S
1789467791.497855,2298,2880,e_S
1789467791.500057,2121,2878,e_S
1789467791.503721,1816,2876,e_S
1789467791.5090182,2251,2880,e_S
1789467791.509609,2346,2879,e_S
1789467791.511734,2174,2879,e_S
1789467791.512031,2058,2880,e_S
1789467791.51212,2361,2879,e_S
1789467791.512193,1905,2878,e_S
1789467791.5122628,2131,2878,e_S
1789467791.5123289,2314,2880,e_S
1789467791.5149398,2510,2881,e_S
1789467791.516277,2114,2879,e_S
1789467791.518873,2198,2878,e_S
1789467791.5201669,2171,2880,e_S
1789467791.5227761,2042,2876,e_S
1789467791.524155,2433,2880,e_S
1789467791.526795,2314,2880,e_S
1789467791.5282402,2514,2880,e_S
1789467791.530853,2171,2880,e_S
1789467791.532187,2401,2880,e_S
1789467791.534783,2150,2879,e_S
1789467791.536211,2123,2878,e_S
1789467791.5388129,2187,2880,e_S
1789467791.540174,2265,2879,e_S
1789467791.542822,2137,2877,e_S
1789467791.544308,1873,2877,e_S
1789467791.5500228,2164,2880,e_S
1789467791.550626,2398,2879,e_S
1789467791.553282,2189,2879,e_S
1789467791.557274,2384,2879,e_S
1789467791.5606248,2227,2879,e_S
1789467791.565474,2261,2880,e_S
1789467791.565849,2127,2878,e_S
1789467791.566178,2270,2879,e_S
1789467791.568932,2268,2881,e_S
1789467791.569029,2302,2879,e_S
1789467791.569098,1921,2879,e_S
1789467791.569162,2127,2880,e_S
1789467791.570508,2026,2878,e_S
1789467791.579056,2311,2880,e_S
1789467791.5797398,2207,2881,e_S
1789467791.581494,2161,2878,e_S
1789467791.592513,2361,2879,e_S
1789467791.595482,2200,2881,e_S
1789467791.595645,2145,2879,e_S
1789467791.595725,2239,2879,e_S
1789467791.595807,2121,2879,e_S
1789467791.5958579,2115,2878,e_S
1789467791.5958982,2229,2880,e_S
1789467791.595994,2069,2878,e_S
1789467791.5960782,2031,2876,e_S
1789467791.596214,2191,2880,e_S
1789467791.598942,2210,2880,e_S
1789467791.600461,1992,2878,e_S
1789467791.603105,2246,2880,e_S
1789467791.604481,2330,2880,e_S
1789467791.607112,2216,2880,e_S
1789467791.608415,2238,2879,e_S
1789467791.611038,2334,2881,e_S
1789467791.6140711,2143,2880,e_S
1789467791.614197,2051,2877,e_S
1789467791.616959,2248,2880,e_S
1789467791.618321,2397,2878,e_S
1789467791.6208498,2315,2879,e_S
1789467791.622211,2089,2878,e_S
1789467791.625526,2201,2879,e_S
1789467791.626749,2418,2880,e_S
1789467791.62829,2281,2880,e_S
1789467791.630937,2124,2879,e_S
1789467791.632364,2006,2878,e_S
1789467791.641255,1975,2878,e_S
1789467791.644991,2145,2880,e_S
1789467791.645631,2322,2879,e_S
1789467791.646284,2292,2879,e_S
1789467791.646461,2274,2878,e_S
1789467791.648675,2091,2878,e_S
1789467791.64901,2260,2879,e_S
1789467791.654473,2547,2880,e_S
1789467791.6548638,2169,2880,e_S
1789467791.655206,1967,2877,e_S
1789467791.65573,2172,2879,e_S
1789467791.658402,2190,2880,e_S
1789467791.658474,2177,2880,e_S
1789467791.661222,2153,2880,e_S
1789467791.662604,2220,2881,e_S
1789467791.6690109,2327,2880,e_S
1789467791.669288,2199,2880,e_S
1789467791.67478,2177,2880,e_S
1789467791.676739,2119,2879,e_S
1789467791.685299,2132,2879,e_S
1789467791.6883671,2140,2879,e_S
1789467791.688461,2194,2879,e_S
1789467791.688533,2336,2880,e_S
1789467791.688598,2125,2879,e_S
1789467791.6887329,2094,2879,e_S
1789467791.6888041,2262,2880,e_S
1789467791.68887,2137,2881,e_S
1789467791.6889348,2038,2878,e_S
1789467791.6902862,2184,2879,e_S
1789467791.692968,2371,2880,e_S
1789467791.6943731,2335,2879,e_S
1789467791.6971068,1991,2877,e_S
1789467791.69855,2048,2878,e_S
1789467791.701212,2083,2877,e_S
1789467791.702568,2053,2877,e_S
1789467791.7052102,2163,2880,e_S
1789467791.7065542,2092,2878,e_S
1789467791.709195,1928,2876,e_S
1789467791.71078,1919,2877,e_S
1789467791.712172,2151,2880,e_S
1789467791.7147899,2104,2879,e_S
1789467791.716144,2117,2879,e_S
1789467791.718807,2338,2881,e_S
1789467791.72018,2337,2880,e_S
1789467791.722795,2222,2880,e_S
1789467791.7241442,2230,2880,e_S
1789467791.72609,2014,2877,e_S
1789467791.733705,2164,2880,e_S
1789467791.740584,2213,2880,e_S
1789467791.751345,2181,2878,e_S
1789467791.752063,2309,2879,e_S
1789467791.752707,2147,2879,e_S
1789467791.756413,1989,2878,e_S
1789467791.756705,1734,2877,e_S
1789467791.756779,1962,2877,e_S
1789467791.756842,1921,2879,e_S
1789467791.756904,2161,2879,e_S
1789467791.7569652,2305,2880,e_S
1789467791.7570271,2218,2879,e_S
1789467791.757088,1892,2877,e_S
1789467791.75715,1939,2878,e_S
1789467791.75721,2016,2878,e_S
1789467791.758761,2221,2880,e_S
1789467791.7602382,2248,2880,e_S
1789467791.76807,2135,2879,e_S
1789467791.76938,2145,2878,e_S
1789467791.7712379,1964,2879,e_S
1789467791.7766242,2020,2878,e_S
1789467791.779142,2223,2881,e_S
1789467791.785006,2211,2881,e_S
1789467791.785595,2141,2880,e_S
1789467791.786082,2285,2879,e_S
1789467791.789079,2081,2881,e_S
1789467791.7891788,2080,2879,e_S
1789467791.7892532,2118,2880,e_S
1789467791.789324,1995,2876,e_S
1789467791.7893918,2075,2880,e_S
1789467791.7894568,2109,2880,e_S
1789467791.790808,2085,2878,e_S
1789467791.7922509,1921,2877,e_S
1789467791.794773,2184,2880,e_S
1789467791.7961779,2240,2879,e_S
1789467791.7988591,1977,2879,e_S
1789467791.800125,2150,2879,e_S
1789467791.802772,2006,2877,e_S
1789467791.804139,1959,2878,e_S
1789467791.8065789,2123,2878,e_S
1789467791.809161,2297,2881,e_S
1789467791.810548,2142,2879,e_S
1789467791.8131762,2083,2879,e_S
1789467791.8145669,1656,2877,e_S
1789467791.8160949,1994,2877,e_S
1789467791.818806,2412,2881,e_S
1789467791.820313,2152,2879,e_S
1789467791.8229718,2124,2880,e_S
1789467791.8243918,1981,2878,e_S
1789467791.8260548,2022,2877,e_S
1789467791.8287191,2093,2878,e_S
1789467791.8300748,2031,2877,e_S
1789467791.832742,2078,2879,e_S
1789467791.8346171,2243,2880,e_S
1789467791.840325,2247,2880,e_S
1789467791.8404028,2303,2880,e_S
1789467791.8404732,2141,2879,e_S
1789467791.843924,2008,2877,e_S
1789467791.8461921,2190,2881,e_S
1789467791.846694,2085,2877,e_S
1789467791.850307,1860,2877,e_S
1789467791.8531961,1869,2876,e_S
1789467791.854656,2301,2880,e_S
1789467791.856898,2037,2878,e_S
1789467791.857099,2022,2880,e_S
1789467791.863358,1954,2876,e_S
1789467791.863893,1896,2878,e_S
1789467791.8641999,2230,2882,e_S
1789467791.8665411,2356,2881,e_S
1789467791.8673868,2110,2880,e_S
1789467791.86885,1891,2876,e_S
1789467791.870194,1981,2879,e_S
1789467791.872998,1971,2876,e_S
1789467791.879533,2203,2880,e_S
1789467791.8809578,2360,2880,e_S
1789467791.883532,2000,2877,e_S
1789467791.888521,2075,2878,e_S
1789467791.889936,2088,2880,e_S
1789467791.89314,2113,2881,e_S
1789467791.899221,1966,2876,e_S
1789467791.900157,1998,2877,e_S
1789467791.900505,2028,2880,e_S
1789467791.903672,2098,2881,e_S
1789467791.9041111,2149,2879,e_S
1789467791.904188,2112,2879,e_S
1789467791.9042509,2063,2877,e_S
1789467791.904355,2095,2879,e_S
1789467791.904421,2266,2880,e_S
1789467791.904476,2196,2879,e_S
1789467791.907142,2059,2879,e_S
1789467791.908601,1965,2877,e_S
1789467791.910066,2017,2877,e_S
1789467791.912749,2008,2877,e_S
1789467791.9142022,2081,2879,e_S
1789467791.916807,2085,2880,e_S
1789467791.918051,2171,2879,e_S
1789467791.920931,1997,2880,e_S
1789467791.922364,1841,2876,e_S
1789467791.924782,1831,2878,e_S
1789467791.9261189,2191,2881,e_S
1789467791.9287019,2299,2880,e_S
1789467791.930057,2053,2880,e_S
1789467791.932377,2080,2879,e_S
1789467791.934738,1985,2876,e_S
1789467791.9360662,2029,2878,e_S
1789467791.938646,2052,2878,e_S
1789467791.9400692,2286,2881,e_S
1789467791.942406,2116,2880,e_S
1789467791.944747,2105,2881,e_S
1789467791.947089,2157,2879,e_S
1789467791.948407,1950,2877,e_S
1789467791.956222,2058,2878,e_S
1789467791.957561,2148,2880,e_S
1789467791.958956,2088,2879,e_S
1789467791.96092,1935,2876,e_S
1789467791.961288,1981,2877,e_S
1789467791.961508,2060,2878,e_S
1789467791.9644601,2057,2879,e_S
1789467791.964639,2065,2878,e_S
1789467791.967317,2080,2879,e_S
1789467791.969835,2072,2880,e_S
1789467791.97419,2145,2879,e_S
1789467791.974371,2052,2877,e_S
1789467791.9746408,1959,2876,e_S
1789467791.9774232,2147,2882,e_S
1789467791.9787579,2024,2877,e_S
1789467791.9800792,2043,2879,e_S
1789467791.987461,2073,2878,e_S
1789467791.988111,2081,2879,e_S
1789467791.98869,2208,2881,e_S
1789467791.989312,2148,2879,e_S
1789467791.9914691,2084,2880,e_S
1789467791.993577,2179,2880,e_S
1789467791.995703,2111,2879,e_S
1789467791.9982688,2049,2878,e_S
1789467791.998431,2038,2876,e_S
1789467792.0026398,2059,2879,e_S
1789467792.0029209,2107,2879,e_S
1789467792.0051289,1952,2876,e_S
1789467792.00644,1940,2877,e_S
1789467792.0085309,2157,2880,e_S
1789467792.0108669,2155,2879,e_S
1789467792.012182,2162,2879,e_S
1789467792.014283,2113,2879,e_S
1789467792.016417,2133,2879,e_S
1789467792.018862,2100,2879,e_S
1789467792.020192,2013,2879,e_S
1789467792.022271,1970,2877,e_S
1789467792.0246139,2006,2877,e_S
1789467792.026942,1976,2878,e_S
1789467792.028256,2063,2880,e_S
1789467792.0303612,1883,2877,e_S
1789467792.0326662,2016,2880,e_S
1789467792.034014,2102,2879,e_S
1789467792.036521,2130,2880,e_S
1789467792.0391061,2103,2880,e_S
1789467792.040419,2114,2879,e_S
1789467792.043026,2208,2880,e_S
1789467792.0441012,2042,2877,e_S
1789467792.0520792,2091,2878,e_S
1789467792.0546181,2136,2880,e_S
1789467792.056714,2140,2879,e_S
1789467792.059856,2214,2879,e_S
1789467792.06204,1847,2877,e_S
1789467792.06545,2107,2881,e_S
1789467792.065779,2032,2877,e_S
1789467792.070032,2019,2877,e_S
1789467792.070445,2063,2881,e_S
1789467792.07303,1960,2877,e_S
1789467792.0737238,2039,2879,e_S
1789467792.074015,2069,2880,e_S
1789467792.074068,2150,2880,e_S
1789467792.074125,2028,2878,e_S
1789467792.074173,2116,2880,e_S
1789467792.076482,2161,2880,e_S
1789467792.083786,2123,2880,e_S
1789467792.084619,2109,2879,e_S
1789467792.087798,2164,2880,e_S
1789467792.088267,2117,2879,e_S
1789467792.091058,2054,2879,e_S
1789467792.091616,2096,2881,e_S
1789467792.0928068,2043,2877,e_S
1789467792.093896,2033,2879,e_S
1789467792.09449,2127,2879,e_S
1789467792.0966651,1989,2878,e_S
1789467792.100618,2090,2881,e_S
1789467792.100827,2069,2878,e_S
1789467792.104098,1965,2877,e_S
1789467792.104222,1994,2878,e_S
1789467792.106646,2012,2877,e_S
1789467792.108981,2032,2878,e_S
1789467792.1104078,1987,2877,e_S
1789467792.112891,2141,2879,e_S
1789467792.11426,2072,2878,e_S
1789467792.116647,2169,2878,e_S
1789467792.118639,2200,2879,e_S
1789467792.120065,2077,2879,e_S
1789467792.123196,2113,2880,e_S
1789467792.1244211,2088,2878,e_S
1789467792.1267111,2163,2881,e_S
1789467792.128478,2148,2880,e_S
1789467792.130429,2189,2878,e_S
1789467792.133044,2027,2878,e_S
1789467792.1347468,1863,2877,e_S
1789467792.136091,1928,2877,e_S
1789467792.138994,2223,2881,e_S
1789467792.140372,2165,2880,e_S
1789467792.142998,1917,2878,e_S
1789467792.144463,2162,2881,e_S
1789467792.1460202,1972,2876,e_S
1789467792.1644611,2097,2880,e_S
1789467792.166091,2056,2880,e_S
1789467792.171513,2092,2880,e_S
1789467792.1803038,2002,2877,e_S
1789467792.180704,2100,2881,e_S
1789467792.180782,2131,2880,e_S
1789467792.1808472,2093,2880,e_S
1789467792.180922,1910,2877,e_S
1789467792.180985,1998,2878,e_S
1789467792.1810482,2315,2879,e_S
1789467792.181111,2247,2879,e_S
1789467792.181173,2040,2880,e_S
1789467792.181251,2071,2879,e_S
1789467792.181312,2052,2878,e_S
1789467792.181373,1972,2878,e_S
1789467792.181513,2040,2877,e_S
1789467792.181603,2196,2879,e_S
1789467792.182851,2125,2879,e_S
1789467792.1846,2039,2879,e_S
1789467792.196984,2044,2878,e_S
1789467792.201443,2097,2879,e_S
1789467792.20368,2059,2878,e_S
1789467792.208214,2064,2878,e_S
1789467792.211005,2176,2880,e_S
1789467792.211477,2137,2880,e_S
1789467792.211627,1979,2878,e_S
1789467792.2117171,1951,2876,e_S
1789467792.211769,1981,2876,e_S
1789467792.2118158,2047,2879,e_S
1789467792.211864,2094,2879,e_S
1789467792.211911,2061,2878,e_S
1789467792.2119539,2065,2878,e_S
1789467792.211997,2139,2881,e_S
1789467792.214376,2172,2880,e_S
1789467792.216907,2102,2879,e_S
1789467792.218187,1971,2877,e_S
1789467792.220751,1985,2877,e_S
1789467792.2233431,2258,2881,e_S
1789467792.2266629,2162,2879,e_S
1789467792.2267551,2127,2880,e_S
1789467792.228121,2123,2878,e_S
1789467792.231543,2079,2879,e_S
1789467792.232754,2142,2881,e_S
1789467792.234138,2093,2879,e_S
1789467792.236724,2170,2880,e_S
1789467792.237946,2104,2880,e_S
1789467792.240596,2011,2878,e_S
1789467792.242778,2068,2878,e_S
1789467792.244184,2158,2880,e_S
1789467792.24659,2158,2879,e_S
1789467792.248994,2186,2879,e_S
1789467792.2504709,1943,2877,e_S
1789467792.259274,2131,2879,e_S
1789467792.261725,2202,2879,e_S
1789467792.262115,1908,2878,e_S
1789467792.264158,1990,2878,e_S
1789467792.265871,2108,2879,e_S
1789467792.2677891,2038,2879,e_S
1789467792.269779,2092,2880,e_S
1789467792.2731571,2062,2879,e_S
1789467792.273396,2071,2881,e_S
1789467792.273637,2159,2880,e_S
1789467792.274101,2048,2878,e_S
1789467792.274629,2143,2879,e_S
1789467792.277185,2139,2879,e_S
1789467792.278621,2174,2879,e_S
1789467792.280021,2098,2879,e_S
1789467792.288996,2098,2879,e_S
1789467792.290266,2136,2878,e_S
1789467792.290538,2193,2881,e_S
1789467792.2923388,2033,2877,e_S
1789467792.29263,2091,2878,e_S
1789467792.292871,2123,2880,e_S
1789467792.295393,2103,2879,e_S
1789467792.298081,2042,2878,e_S
1789467792.300262,2123,2879,e_S
1789467792.303998,2129,2879,e_S
1789467792.306577,2019,2878,e_S
1789467792.307603,2077,2880,e_S
1789467792.307681,2167,2880,e_S
1789467792.309089,2027,2877,e_S
1789467792.310663,2125,2881,e_S
1789467792.312104,2109,2878,e_S
1789467792.314732,2003,2876,e_S
1789467792.31692,2098,2881,e_S
1789467792.318342,2061,2879,e_S
1789467792.320881,2049,2879,e_S
1789467792.322221,2090,2881,e_S
1789467792.324366,2092,2878,e_S
1789467792.326103,2025,2877,e_S
1789467792.328779,2139,2881,e_S
1789467792.329943,2139,2879,e_S
1789467792.332573,2089,2879,e_S
1789467792.335158,2050,2878,e_S
1789467792.336542,2165,2878,e_S
1789467792.337931,2172,2880,e_S
1789467792.3404028,1978,2878,e_S
1789467792.3419409,2023,2877,e_S
1789467792.3445408,2090,2877,e_S
1789467792.345995,2080,2881,e_S
1789467792.348393,2052,2878,e_S
1789467792.349895,2044,2879,e_S
1789467792.364171,2038,2879,e_S
1789467792.366163,2108,2879,e_S
1789467792.367744,2079,2878,e_S
1789467792.3698502,2098,2878,e_S
1789467792.373425,2111,2879,e_S
1789467792.377406,2164,2880,e_S
1789467792.3778188,2126,2879,e_S
1789467792.37811,2113,2878,e_S
1789467792.378805,2132,2879,e_S
1789467792.3819258,2100,2879,e_S
1789467792.382328,2030,2877,e_S
1789467792.382446,2084,2878,e_S
1789467792.382564,2044,2879,e_S
1789467792.3826299,2100,2881,e_S
1789467792.382711,2124,2878,e_S
1789467792.382797,2080,2879,e_S
1789467792.385302,2046,2878,e_S
1789467792.386515,2061,2879,e_S
1789467792.3879528,2094,2879,e_S
1789467792.396703,2015,2879,e_S
1789467792.401487,2136,2881,e_S
1789467792.403426,2149,2880,e_S
1789467792.407889,1974,2876,e_S
1789467792.412274,2045,2880,e_S
1789467792.41285,1859,2876,e_S
1789467792.413366,2178,2879,e_S
1789467792.416973,2266,2880,e_S
1789467792.417213,1978,2878,e_S
1789467792.417294,2146,2879,e_S
1789467792.417427,2217,2880,e_S
1789467792.4176471,1936,2878,e_S
1789467792.4179158,2071,2877,e_S
1789467792.418015,2044,2878,e_S
1789467792.418085,1768,2877,e_S
1789467792.420706,2248,2880,e_S
1789467792.422189,2123,2880,e_S
1789467792.425768,2096,2878,e_S
1789467792.4260108,2129,2880,e_S
1789467792.4292219,1838,2877,e_S
1789467792.430594,2316,2881,e_S
1789467792.431963,2299,2880,e_S
1789467792.4341729,2324,2880,e_S
1789467792.437113,1988,2879,e_S
1789467792.4384809,1995,2877,e_S
1789467792.4398441,2253,2881,e_S
1789467792.4423628,1643,2878,e_S
1789467792.445215,1603,2878,e_S
1789467792.446599,2266,2880,e_S
1789467792.447846,2314,2880,e_S
1789467792.451124,1927,2879,e_S
1789467792.452339,1677,2877,e_S
1789467792.4550211,2555,2881,e_S
1789467792.456379,2258,2880,e_S
1789467792.458623,1818,2878,e_S
1789467792.460014,2505,2880,e_S
1789467792.462677,2086,2877,e_S
1789467792.463975,1904,2878,e_S
1789467792.4727209,2453,2879,e_S
1789467792.474991,1666,2876,e_S
1789467792.475797,1736,2877,e_S
1789467792.475987,2139,2880,e_S
1789467792.478205,2390,2879,e_S
1789467792.4823182,2339,2880,e_S
1789467792.4830341,2330,2881,e_S
1789467792.487676,1884,2878,e_S
1789467792.488054,1723,2877,e_S
1789467792.491812,1989,2878,e_S
1789467792.4922612,2166,2881,e_S
1789467792.492873,1489,2876,e_S
1789467792.493272,2087,2879,e_S
1789467792.493475,2732,2881,e_S
1789467792.49678,1276,2876,e_S
1789467792.49685,1646,2877,e_S
1789467792.498035,2686,2882,e_S
1789467792.500685,2709,2882,e_S
1789467792.5097768,2163,2879,e_S
1789467792.512545,2044,2879,e_S
1789467792.513082,2146,2880,e_S
1789467792.5160708,2169,2879,e_S
1789467792.519882,1931,2877,e_S
1789467792.5261052,1431,2877,e_S
1789467792.526308,2200,2879,e_S
1789467792.5266628,1672,2878,e_S
1789467792.527075,1326,2877,e_S
1789467792.527505,3387,2883,e_S
1789467792.5278,2450,2880,e_S
1789467792.5301068,1772,2876,e_S
1789467792.530911,1680,2878,e_S
1789467792.5312798,2632,2882,e_S
1789467792.5314078,2233,2879,e_S
1789467792.532774,2180,2881,e_S
1789467792.5341408,2082,2879,e_S
1789467792.5365388,1349,2876,e_S
1789467792.537869,2003,2880,e_S
1789467792.539967,2628,2880,e_S
1789467792.542322,1414,2877,e_S
1789467792.544918,1556,2877,e_S
1789467792.546052,3018,2881,e_S
1789467792.54815,2240,2881,e_S
1789467792.550555,1845,2877,e_S
1789467792.5519779,1442,2876,e_S
1789467792.554435,2378,2879,e_S
1789467792.555763,1578,2876,e_S
1789467792.5581708,1524,2878,e_S
1789467792.560513,3233,2883,e_S
1789467792.561829,2148,2880,e_S
1789467792.56417,925,2876,e_S
1789467792.566536,2052,2877,e_S
1789467792.567969,2177,2878,e_S
1789467792.5703712,2241,2880,e_S
1789467792.57185,1833,2877,e_S
1789467792.574247,1172,2877,e_S
1789467792.584517,1544,2876,e_S
1789467792.58623,1303,2876,e_S
1789467792.5888588,1461,2878,e_S
1789467792.5892448,2235,2880,e_S
1789467792.5898602,2146,2880,e_S
1789467792.592919,1337,2878,e_S
1789467792.5946681,1233,2878,e_S
1789467792.596274,1399,2877,e_S
1789467792.597002,1267,2879,e_S
1789467792.599266,1257,2877,e_S
1789467792.599518,1501,2878,e_S
1789467792.6033769,1164,2876,e_S
1789467792.603554,651,2876,e_S
1789467792.6037781,1038,2876,e_S
1789467792.604249,854,2876,e_S
1789467792.606889,149,2876,e_S
1789467792.608,750,2877,e_S
1789467792.6106381,2225,2880,e_S
1789467792.611962,758,2876,e_S
1789467792.619305,824,2875,e_S
1789467792.6198988,821,2877,e_S
1789467792.621655,816,2878,e_S
1789467792.6244311,727,2877,e_S
1789467792.6254468,263,2877,e_S
1789467792.62615,1014,2876,e_S
1789467792.626753,1271,2877,e_S
1789467792.633557,0,2875,e_S
1789467792.633837,183,2876,e_S
1789467792.6340559,428,2876,e_S
1789467792.63438,726,2877,e_S
1789467792.637451,733,2876,e_S
1789467792.6388428,1311,2876,e_S
1789467792.6399202,912,2878,e_S
1789467792.642012,523,2877,e_S
1789467792.644099,948,2875,e_S
1789467792.6466749,938,2876,e_S
1789467792.647742,1300,2878,e_S
1789467792.649844,1163,2878,e_S
1789467792.652184,1293,2876,e_S
1789467792.654761,1643,2877,e_S
1789467792.655839,1699,2877,e_S
1789467792.658172,1408,2876,e_S
1789467792.6602728,1668,2877,e_S
1789467792.662372,1837,2878,e_S
1789467792.6637812,1589,2878,e_S
1789467792.665903,1989,2877,e_S
1789467792.667993,1751,2876,e_S
1789467792.6707132,1868,2877,e_S
1789467792.671809,1997,2878,e_S
1789467792.674146,1766,2876,e_S
1789467792.676482,1962,2876,e_S
1789467792.6788878,1955,2878,e_S
1789467792.6803598,2670,2880,e_S
1789467792.686392,2716,2881,e_S
1789467792.687066,2361,2881,e_S
1789467792.688719,2221,2880,e_S
1789467792.69055,2409,2881,e_S
1789467792.692415,2130,2878,e_S
1789467792.693386,2486,2879,e_S
1789467792.696084,2688,2881,e_S
1789467792.701472,2494,2880,e_S
1789467792.702019,1869,2877,e_S
1789467792.702477,2243,2880,e_S
1789467792.7026281,2234,2879,e_S
1789467792.705153,2219,2879,e_S
1789467792.706485,2945,2882,e_S
1789467792.707811,3008,2881,e_S
1789467792.7162979,2129,2880,e_S
1789467792.7176058,2345,2880,e_S
1789467792.7177548,2592,2879,e_S
1789467792.7196002,2324,2880,e_S
1789467792.720005,2314,2880,e_S
1789467792.7233229,3015,2882,e_S
1789467792.723922,1925,2876,e_S
1789467792.724469,1507,2879,e_S
1789467792.7275698,2800,2882,e_S
1789467792.7312052,2773,2882,e_S
1789467792.732107,1864,2877,e_S
1789467792.734946,2626,2881,e_S
1789467792.735065,2538,2881,e_S
1789467792.736428,1964,2877,e_S
1789467792.73777,2201,2880,e_S
1789467792.740032,2672,2881,e_S
1789467792.7426639,1655,2878,e_S
1789467792.744046,1951,2879,e_S
1789467792.7461948,2173,2880,e_S
1789467792.7488189,2726,2880,e_S
1789467792.7502038,2497,2880,e_S
1789467792.752844,2049,2880,e_S
1789467792.754215,2483,2880,e_S
1789467792.756576,1531,2877,e_S
1789467792.7577212,2235,2879,e_S
1789467792.759829,2975,2881,e_S
1789467792.762167,2090,2880,e_S
1789467792.7645051,1844,2876,e_S
1789467792.765826,2367,2881,e_S
1789467792.7681742,1832,2877,e_S
1789467792.770779,2341,2879,e_S
1789467792.7719731,2412,2881,e_S
1789467792.7743402,2066,2877,e_S
1789467792.775739,2171,2880,e_S
1789467792.777951,2633,2880,e_S
1789467792.787113,2604,2880,e_S
1789467792.79042,1455,2875,e_S
1789467792.790998,2732,2882,e_S
1789467792.793587,2154,2879,e_S
1789467792.794419,1905,2878,e_S
1789467792.7968588,2131,2877,e_S
1789467792.798368,2405,2880,e_S
1789467792.804415,2296,2880,e_S
1789467792.80482,2189,2880,e_S
1789467792.8049762,2256,2880,e_S
1789467792.805315,1734,2876,e_S
1789467792.8057249,2271,2881,e_S
1789467792.808195,2355,2879,e_S
1789467792.8084621,2226,2880,e_S
1789467792.808513,1944,2878,e_S
1789467792.80967,2276,2879,e_S
1789467792.812014,1826,2876,e_S
1789467792.820099,1955,2879,e_S
1789467792.820318,2431,2879,e_S
1789467792.820951,2194,2879,e_S
1789467792.822861,2040,2877,e_S
1789467792.823102,1964,2878,e_S
1789467792.8254669,1860,2877,e_S
1789467792.827271,2276,2881,e_S
1789467792.834323,2741,2881,e_S
1789467792.834605,2372,2880,e_S
1789467792.834826,1144,2877,e_S
1789467792.835108,968,2877,e_S
1789467792.83797,3109,2882,e_S
1789467792.838271,3393,2883,e_S
1789467792.840641,1847,2878,e_S
1789467792.841975,1646,2878,e_S
1789467792.84433,1655,2877,e_S
1789467792.845748,2117,2877,e_S
