timestamp,ch1,ch2,label
1778660277.0317419,1781,0,2
1778660277.031782,1831,0,2
1778660277.0318038,1876,0,2
1778660277.0318248,1816,0,2
1778660277.031845,1607,0,2
1778660277.031868,1648,0,2
1778660277.031889,1978,0,2
1778660277.0319202,2171,0,2
1778660277.03194,1897,0,2
1778660277.0319629,1776,0,2
1778660277.031984,1765,0,2
1778660277.032043,1855,0,2
1778660277.03207,1775,0,2
1778660277.0320919,1611,0,2
1778660277.0321321,1775,0,2
1778660277.032154,2082,0,2
1778660277.032182,2000,0,2
1778660277.032203,1813,0,2
1778660277.0322251,1689,0,2
1778660277.032245,1713,0,2
1778660277.032266,1660,0,2
1778660277.032287,1511,0,2
1778660277.0323079,1625,0,2
1778660277.0323288,1887,0,2
1778660277.0323489,2044,0,2
1778660277.0323699,1875,0,2
1778660277.0323892,1824,0,2
1778660277.0324092,1822,0,2
1778660277.032429,1868,0,2
1778660277.032449,1850,0,2
1778660277.032468,1859,0,2
1778660277.0324879,2009,0,2
1778660277.032508,2110,0,2
1778660277.032528,2003,0,2
1778660277.0325491,1909,0,2
1778660277.0325692,1844,0,2
1778660277.032588,2035,0,2
1778660277.032609,1866,0,2
1778660277.032628,1702,0,2
1778660277.0326478,1958,0,2
1778660277.0326679,2181,0,2
1778660277.032696,2160,0,2
1778660277.032716,2016,0,2
1778660277.032736,2021,0,2
1778660277.032755,2112,0,2
1778660277.032775,1965,0,2
1778660277.032794,1867,0,2
1778660277.032814,2061,0,2
1778660277.032833,2095,0,2
1778660277.032853,1981,0,2
1778660277.032872,2260,0,2
1778660277.032892,2481,0,2
1778660277.034178,2399,0,2
1778660277.036725,2304,0,2
1778660277.039288,2158,0,2
1778660277.0405738,2157,0,2
1778660277.043123,2348,0,2
1778660277.0471082,2617,0,2
1778660277.047162,2381,0,2
1778660277.0486588,2101,0,2
1778660277.0513222,1935,0,2
1778660277.054167,2037,0,2
1778660277.0543108,2006,0,2
1778660277.0569332,1967,0,2
1778660277.058215,2138,0,2
1778660277.0607638,2382,0,2
1778660277.063322,2267,0,2
1778660277.064769,2065,0,2
1778660277.068195,1892,0,2
1778660277.0685718,1924,0,2
1778660277.070386,2004,0,2
1778660277.074591,1909,0,2
1778660277.075561,1983,0,2
1778660277.077118,2243,0,2
1778660277.0784168,2392,0,2
1778660277.080971,2142,0,2
1778660277.0822542,1992,0,2
1778660277.084799,1976,0,2
1778660277.088871,2024,0,2
1778660277.08926,1812,0,2
1778660277.090672,1844,0,2
1778660277.092296,2100,0,2
1778660277.0957282,2383,0,2
1778660277.0973618,2151,0,2
1778660277.098651,1992,0,2
1778660277.101125,1916,0,2
1778660277.1024158,2034,0,2
1778660277.104962,1961,0,2
1778660277.1087942,1855,0,2
1778660277.108902,2050,0,2
1778660277.110956,2284,0,2
1778660277.11278,2203,0,2
1778660277.1152372,2051,0,2
1778660277.117729,1903,0,2
1778660277.119017,1998,0,2
1778660277.120304,1988,0,2
1778660277.1226282,1852,0,2
1778660277.125173,1956,0,2
1778660277.129899,2163,0,2
1778660277.130327,2210,0,2
1778660277.131455,2001,0,2
1778660277.132861,1829,0,2
1778660277.1344361,1909,0,2
1778660277.136378,2165,0,2
1778660277.13913,1908,0,2
1778660277.140424,1760,0,2
1778660277.142972,2086,0,2
1778660277.144259,2445,0,2
1778660277.149177,2306,0,2
1778660277.14951,2090,0,2
1778660277.152801,1943,0,2
1778660277.153176,2130,0,2
1778660277.155808,1992,0,2
1778660277.158392,1801,0,2
1778660277.158559,2052,0,2
1778660277.160911,2386,0,2
1778660277.162209,2314,0,2
1778660277.1647518,2068,0,2
1778660277.169973,1925,0,2
1778660277.170977,2039,0,2
1778660277.1713018,2095,0,2
1778660277.1741,1929,0,2
1778660277.174203,1987,0,2
1778660277.176638,2235,0,2
1778660277.178835,2362,0,2
1778660277.181418,2139,0,2
1778660277.182705,2052,0,2
1778660277.1852522,2039,0,2
1778660277.186553,2162,0,2
1778660277.189884,2014,0,2
1778660277.192002,2014,0,2
1778660277.193818,2232,0,2
1778660277.1963332,2461,0,2
1778660277.197294,2279,0,2
1778660277.1989398,2143,0,2
1778660277.200284,2101,0,2
1778660277.2026901,2224,0,2
1778660277.2052531,2134,0,2
1778660277.206544,2002,0,2
1778660277.2105339,2171,0,2
1778660277.210979,2389,0,2
1778660277.212487,2358,0,2
1778660277.217401,2197,0,2
1778660277.2175748,2104,0,2
1778660277.219257,2154,0,2
1778660277.220545,2152,0,2
1778660277.2230852,2006,0,2
1778660277.22438,2069,0,2
1778660277.226919,2355,0,2
1778660277.23365,2450,0,2
1778660277.233744,2202,0,2
1778660277.233846,2102,0,2
1778660277.235507,2039,0,2
1778660277.2378602,2175,0,2
1778660277.240104,2012,0,2
1778660277.2418518,2002,0,2
1778660277.2431328,2192,0,2
1778660277.244417,2379,0,2
1778660277.246958,2221,0,2
1778660277.248354,2127,0,2
1778660277.2516859,2105,0,2
1778660277.2538052,2244,0,2
1778660277.255504,2104,0,2
1778660277.2591581,1998,0,2
1778660277.259309,2156,0,2
1778660277.26077,2303,0,2
1778660277.26332,2364,0,2
1778660277.2646039,2190,0,2
1778660277.2671459,2040,0,2
1778660277.2684312,2080,0,2
1778660277.2719092,2122,0,2
1778660277.2739048,1923,0,2
1778660277.275765,1997,0,2
1778660277.27823,2324,0,2
1778660277.278341,2451,0,2
1778660277.280701,2188,0,2
1778660277.2832599,2007,0,2
1778660277.284543,1996,0,2
1778660277.287083,2149,0,2
1778660277.288369,1962,0,2
1778660277.292048,1967,0,2
1778660277.294111,2198,0,2
1778660277.29424,2405,0,2
1778660277.298239,2238,0,2
1778660277.298375,2065,0,2
1778660277.301018,1987,0,2
1778660277.302315,2074,0,2
1778660277.304872,1980,0,2
1778660277.306161,1896,0,2
1778660277.308715,1992,0,2
1778660277.3130329,2199,0,2
1778660277.31336,2168,0,2
1778660277.3157399,2013,0,2
1778660277.3176599,1929,0,2
1778660277.319815,1964,0,2
1778660277.3215292,1884,0,2
1778660277.322826,1853,0,2
1778660277.325377,1870,0,2
1778660277.326664,2111,0,2
1778660277.3292348,2234,0,2
1778660277.332862,1966,0,2
1778660277.333782,1831,0,2
1778660277.336569,1874,0,2
1778660277.336921,1960,0,2
1778660277.3404758,1792,0,2
1778660277.340564,1805,0,2
1778660277.343339,1999,0,2
1778660277.344623,2210,0,2
1778660277.34705,2019,0,2
1778660277.348332,1851,0,2
1778660277.3529868,1826,0,2
1778660277.3533309,1955,0,2
1778660277.3554602,1949,0,2
1778660277.356864,1760,0,2
1778660277.359628,1932,0,2
1778660277.362056,2172,0,2
1778660277.363348,2127,0,2
1778660277.364644,2021,0,2
1778660277.367198,1862,0,2
1778660277.368481,1863,0,2
1778660277.374638,1959,0,2
1778660277.3749912,1873,0,2
1778660277.375332,1802,0,2
1778660277.3769522,2030,0,2
1778660277.3783062,2142,0,2
1778660277.381888,1997,0,2
1778660277.3835578,1935,0,2
1778660277.3848488,1873,0,2
1778660277.387388,1900,0,2
1778660277.388679,1781,0,2
1778660277.394603,1871,0,2
1778660277.395542,2038,0,2
1778660277.395935,2239,0,2
1778660277.398108,1990,0,2
1778660277.401171,1904,0,2
1778660277.402286,1818,0,2
1778660277.402504,1927,0,2
1778660277.405362,1864,0,2
1778660277.406649,1743,0,2
1778660277.409205,1881,0,2
1778660277.410497,2130,0,2
1778660277.4156108,2112,0,2
1778660277.4159942,1951,0,2
1778660277.417776,1881,0,2
1778660277.41964,1958,0,2
1778660277.422047,1915,0,2
1778660277.4233952,1769,0,2
1778660277.424835,1867,0,2
1778660277.427328,2187,0,2
1778660277.428612,2208,0,2
1778660277.4311712,1989,0,2
1778660277.4324548,1919,0,2
1778660277.436479,1936,0,2
1778660277.4371572,2014,0,2
1778660277.440018,1835,0,2
1778660277.441549,1804,0,2
1778660277.443769,1957,0,2
1778660277.445437,2255,0,2
1778660277.4467242,2089,0,2
1778660277.449279,1952,0,2
1778660277.4506109,1874,0,2
1778660277.453123,2040,0,2
1778660277.454413,1958,0,2
1778660277.4648268,1822,0,2
1778660277.468606,1969,0,2
1778660277.468991,2171,0,2
1778660277.4711401,2157,0,2
1778660277.4713159,2020,0,2
1778660277.471343,1900,0,2
1778660277.471366,1933,0,2
1778660277.4713862,2003,0,2
1778660277.472675,1787,0,2
1778660277.475395,1933,0,2
1778660277.476886,2099,0,2
1778660277.47826,2200,0,2
1778660277.483969,1951,0,2
1778660277.488451,1976,0,2
1778660277.489653,1977,0,2
1778660277.49198,2102,0,2
1778660277.493807,1843,0,2
1778660277.494165,1866,0,2
1778660277.494331,2104,0,2
1778660277.4944708,2458,0,2
1778660277.497453,2091,0,2
1778660277.4987898,1959,0,2
1778660277.501193,1926,0,2
1778660277.502527,2092,0,2
1778660277.508427,1980,0,2
1778660277.508609,1866,0,2
1778660277.509357,2016,0,2
1778660277.512375,2220,0,2
1778660277.513281,2226,0,2
1778660277.517382,2080,0,2
1778660277.5187578,1999,0,2
1778660277.519307,2039,0,2
1778660277.520721,2028,0,2
1778660277.523336,1863,0,2
1778660277.5246668,1943,0,2
1778660277.52718,2206,0,2
1778660277.532352,2327,0,2
1778660277.535817,2123,0,2
1778660277.536602,2016,0,2
1778660277.53705,1988,0,2
1778660277.537144,2106,0,2
1778660277.539068,2019,0,2
1778660277.540682,1926,0,2
1778660277.54336,2097,0,2
1778660277.5447009,2378,0,2
1778660277.547132,2196,0,2
1778660277.548478,2044,0,2
1778660277.551112,1987,0,2
1778660277.5574028,2042,0,2
1778660277.557792,2003,0,2
1778660277.5579178,1857,0,2
1778660277.560917,2065,0,2
1778660277.561058,2237,0,2
1778660277.564512,2253,0,2
1778660277.564679,2025,0,2
1778660277.5675352,1959,0,2
1778660277.568916,2035,0,2
1778660277.570267,2031,0,2
1778660277.572911,1895,0,2
1778660277.57429,1947,0,2
1778660277.580674,2161,0,2
1778660277.581835,2356,0,2
1778660277.581954,2095,0,2
1778660277.58381,1982,0,2
1778660277.5885718,1970,0,2
1778660277.588806,2073,0,2
1778660277.589077,1928,0,2
1778660277.590781,1894,0,2
1778660277.592211,2050,0,2
1778660277.594804,2319,0,2
1778660277.597455,2187,0,2
1778660277.5988128,2039,0,2
1778660277.606462,1980,0,2
1778660277.607806,2051,0,2
1778660277.6089768,1948,0,2
1778660277.609388,1843,0,2
1778660277.6095302,1984,0,2
1778660277.6119092,2295,0,2
1778660277.6136699,2272,0,2
1778660277.61566,2045,0,2
1778660277.6170208,1949,0,2
1778660277.618478,1999,0,2
1778660277.6252558,2045,0,2
1778660277.626677,1931,0,2
1778660277.6269171,1910,0,2
1778660277.629146,2123,0,2
1778660277.629336,2286,0,2
1778660277.633914,2056,0,2
1778660277.6343849,1975,0,2
1778660277.6363971,1995,0,2
1778660277.6365068,2125,0,2
1778660277.6391418,1941,0,2
1778660277.640487,1874,0,2
1778660277.6430888,2065,0,2
1778660277.6444328,2319,0,2
1778660277.6499891,2180,0,2
1778660277.650582,2002,0,2
1778660277.6510541,1961,0,2
1778660277.654582,2071,0,2
1778660277.655215,2003,0,2
1778660277.658444,1870,0,2
1778660277.6604102,1981,0,2
1778660277.660576,2243,0,2
1778660277.6627939,2282,0,2
1778660277.664195,2052,0,2
1778660277.671767,1926,0,2
1778660277.67194,1959,0,2
1778660277.673255,2034,0,2
1778660277.673595,1863,0,2
1778660277.676544,1914,0,2
1778660277.677075,2117,0,2
1778660277.6791098,2355,0,2
1778660277.680893,2047,0,2
1778660277.6829581,1889,0,2
1778660277.6843112,1934,0,2
1778660277.686814,2023,0,2
1778660277.6881542,1936,0,2
1778660277.690827,1878,0,2
1778660277.692362,2040,0,2
1778660277.696993,2353,0,2
1778660277.69823,2117,0,2
1778660277.699641,2020,0,2
1778660277.701236,1943,0,2
1778660277.702805,2072,0,2
1778660277.704971,1951,0,2
1778660277.7072918,1815,0,2
1778660277.7089221,1934,0,2
1778660277.7102919,2192,0,2
1778660277.71295,2271,0,2
1778660277.717487,2041,0,2
1778660277.7200902,1936,0,2
1778660277.720315,2072,0,2
1778660277.720504,2036,0,2
1778660277.722354,1829,0,2
1778660277.727405,1912,0,2
1778660277.727627,2166,0,2
1778660277.729644,2260,0,2
1778660277.7311082,2066,0,2
1778660277.7325141,1985,0,2
1778660277.735351,1924,0,2
1778660277.736741,2041,0,2
1778660277.738134,1950,0,2
1778660277.7458282,1901,0,2
1778660277.746112,2138,0,2
1778660277.747593,2313,0,2
1778660277.74785,2174,0,2
1778660277.749878,2040,0,2
1778660277.751948,1980,0,2
1778660277.753409,2050,0,2
1778660277.755935,2036,0,2
1778660277.7577002,1930,0,2
1778660277.759006,2002,0,2
1778660277.760297,2229,0,2
1778660277.765801,2270,0,2
1778660277.76592,2063,0,2
1778660277.768289,1973,0,2
1778660277.768451,2013,0,2
1778660277.771347,2116,0,2
1778660277.773149,1953,0,2
1778660277.775081,1947,0,2
1778660277.777164,2145,0,2
1778660277.778475,2388,0,2
1778660277.781034,2163,0,2
1778660277.7823281,2030,0,2
1778660277.7849011,2000,0,2
1778660277.7863932,2069,0,2
1778660277.790247,1976,0,2
1778660277.791266,1875,0,2
1778660277.7933812,2113,0,2
1778660277.795327,2378,0,2
1778660277.79695,2210,0,2
1778660277.800777,2058,0,2
1778660277.801265,1982,0,2
1778660277.8031769,2084,0,2
1778660277.804491,2067,0,2
1778660277.807141,1921,0,2
1778660277.811745,2039,0,2
1778660277.811878,2238,0,2
1778660277.816929,2301,0,2
1778660277.817392,2083,0,2
1778660277.8197289,1998,0,2
1778660277.8218071,2021,0,2
1778660277.8225138,2066,0,2
1778660277.824346,1899,0,2
1778660277.824411,1973,0,2
1778660277.827022,2166,0,2
1778660277.828345,2331,0,2
1778660277.830988,2108,0,2
1778660277.832392,2010,0,2
1778660277.838631,2023,0,2
1778660277.8403342,2131,0,2
1778660277.840479,2017,0,2
1778660277.840736,1941,0,2
1778660277.84312,2102,0,2
1778660277.845976,2297,0,2
1778660277.848193,2230,0,2
1778660277.8483799,2097,0,2
1778660277.851115,1986,0,2
1778660277.852407,2077,0,2
1778660277.858207,2075,0,2
1778660277.8597171,1855,0,2
1778660277.8609622,1970,0,2
1778660277.861055,2187,0,2
1778660277.862869,2273,0,2
1778660277.864741,2080,0,2
1778660277.868046,1924,0,2
1778660277.868286,1958,0,2
1778660277.8710668,2034,0,2
1778660277.872372,1931,0,2
1778660277.874936,1959,0,2
1778660277.8762271,2152,0,2
1778660277.878787,2390,0,2
1778660277.8836532,2111,0,2
1778660277.8844001,2019,0,2
1778660277.886675,1995,0,2
1778660277.8879611,2081,0,2
1778660277.8906791,2004,0,2
1778660277.892108,1935,0,2
1778660277.892266,2107,0,2
1778660277.894302,2304,0,2
1778660277.8971899,2209,0,2
1778660277.898567,2037,0,2
1778660277.904881,1920,0,2
1778660277.905975,2022,0,2
1778660277.907128,2002,0,2
1778660277.908692,1837,0,2
1778660277.909081,1936,0,2
1778660277.912235,2170,0,2
1778660277.91439,2244,0,2
1778660277.914581,2107,0,2
1778660277.916519,2001,0,2
1778660277.9190788,2019,0,2
1778660277.9203699,2053,0,2
1778660277.9229171,1854,0,2
1778660277.924206,1902,0,2
1778660277.929909,2107,0,2
1778660277.929982,2321,0,2
1778660277.9322119,2127,0,2
1778660277.932301,1987,0,2
1778660277.9356759,1936,0,2
1778660277.9373388,2075,0,2
1778660277.939378,1964,0,2
1778660277.9414139,1915,0,2
1778660277.9427042,2040,0,2
1778660277.945289,2284,0,2
1778660277.946579,2137,0,2
1778660277.949126,1994,0,2
1778660277.953603,1946,0,2
1778660277.954266,2055,0,2
1778660277.954975,2001,0,2
1778660277.957663,1872,0,2
1778660277.959352,1980,0,2
1778660277.962406,2203,0,2
1778660277.962514,2269,0,2
1778660277.964478,2042,0,2
1778660277.967034,1970,0,2
1778660277.9681458,1993,0,2
1778660277.9707031,2040,0,2
1778660277.973119,1878,0,2
1778660277.976801,1893,0,2
1778660277.977199,2106,0,2
1778660277.979119,2285,0,2
1778660277.980581,2092,0,2
1778660277.9856472,2007,0,2
1778660277.985782,1972,0,2
1778660277.987693,2065,0,2
1778660277.988992,1947,0,2
1778660277.990286,1846,0,2
1778660277.9928288,2051,0,2
1778660277.994142,2328,0,2
1778660277.999168,2208,0,2
1778660277.999577,2042,0,2
1778660278.001672,1941,0,2
1778660278.003181,2001,0,2
1778660278.004885,2032,0,2
1778660278.00636,1916,0,2
1778660278.0085099,1946,0,2
1778660278.010207,2172,0,2
1778660278.012904,2235,0,2
1778660278.014209,2057,0,2
1778660278.0167758,1938,0,2
1778660278.018134,1982,0,2
1778660278.0245419,2064,0,2
1778660278.024689,1907,0,2
1778660278.0248709,1938,0,2
1778660278.026764,2152,0,2
1778660278.029345,2288,0,2
1778660278.0312982,2092,0,2
1778660278.0332448,1996,0,2
1778660278.034549,1983,0,2
1778660278.0371041,2061,0,2
1778660278.038396,1982,0,2
1778660278.040949,1891,0,2
1778660278.0421288,2035,0,2
1778660278.047777,2313,0,2
1778660278.0479748,2214,0,2
1778660278.049637,2055,0,2
1778660278.0510871,1924,0,2
1778660278.052734,2023,0,2
1778660278.0546439,2006,0,2
1778660278.056501,1837,0,2
1778660278.05905,1918,0,2
1778660278.0603452,2204,0,2
1778660278.062897,2289,0,2
1778660278.064188,2092,0,2
1778660278.0696802,2003,0,2
1778660278.0700228,1988,0,2
1778660278.071126,2038,0,2
1778660278.072547,1883,0,2
1778660278.075562,1907,0,2
1778660278.077465,2142,0,2
1778660278.079308,2309,0,2
1778660278.0805938,2096,0,2
1778660278.0831392,1988,0,2
1778660278.084435,1940,0,2
1778660278.0869792,2087,0,2
1778660278.088127,2014,0,2
1778660278.091475,1886,0,2
1778660278.0936131,2063,0,2
1778660278.0958521,2264,0,2
1778660278.098308,2188,0,2
1778660278.0983949,2034,0,2
1778660278.100307,1937,0,2
1778660278.103182,2019,0,2
1778660278.104469,1970,0,2
1778660278.1070132,1849,0,2
1778660278.108296,1910,0,2
1778660278.1139572,2210,0,2
1778660278.114923,2318,0,2
1778660278.115916,2062,0,2
1778660278.117524,1915,0,2
1778660278.120258,2014,0,2
1778660278.1221602,2065,0,2
1778660278.122313,1889,0,2
1778660278.1249201,1836,0,2
1778660278.126205,2046,0,2
1778660278.128771,2327,0,2
1778660278.1300611,2107,0,2
1778660278.132589,2109,0,2
1778660278.135963,2070,0,2
1778660278.138036,2169,0,2
1778660278.13826,2040,0,2
1778660278.141081,1950,0,2
1778660278.142693,2103,0,2
1778660278.1446369,2369,0,2
1778660278.146456,2242,0,2
1778660278.149014,1917,0,2
1778660278.150424,1866,0,2
1778660278.1529899,2024,0,2
1778660278.154281,2009,0,2
1778660278.158257,1955,0,2
1778660278.1587079,2003,0,2
1778660278.160546,2186,0,2
1778660278.163551,2266,0,2
1778660278.1650949,2064,0,2
1778660278.166991,1961,0,2
1778660278.1688352,1970,0,2
1778660278.169997,1993,0,2
1778660278.172553,1842,0,2
1778660278.174865,1700,0,2
1778660278.1761549,2110,0,2
1778660278.180097,2386,0,2
1778660278.180809,2202,0,2
1778660278.182401,1975,0,2
1778660278.185364,1988,0,2
1778660278.188582,2053,0,2
1778660278.188788,1966,0,2
1778660278.190211,1842,0,2
1778660278.192798,1899,0,2
1778660278.194087,2307,0,2
1778660278.196636,2204,0,2
1778660278.20173,2048,0,2
1778660278.202933,1887,0,2
1778660278.20299,2052,0,2
1778660278.205478,2130,0,2
1778660278.206984,1930,0,2
1778660278.209814,2253,0,2
1778660278.211642,2121,0,2
1778660278.2129369,2281,0,2
1778660278.214229,2011,0,2
1778660278.216587,1915,0,2
1778660278.21914,1921,0,2
1778660278.22295,2033,0,2
1778660278.223592,1930,0,2
1778660278.225325,1861,0,2
1778660278.226804,1994,0,2
1778660278.2296839,2340,0,2
1778660278.231531,2259,0,2
1778660278.23293,2263,0,2
1778660278.2342248,2030,0,2
1778660278.236769,1928,0,2
1778660278.239247,1998,0,2
1778660278.240535,1877,0,2
1778660278.244268,2152,0,2
1778660278.244875,2175,0,2
1778660278.24658,2204,0,2
1778660278.249722,2043,0,2
1778660278.252654,2056,0,2
1778660278.252755,1886,0,2
1778660278.254467,1910,0,2
1778660278.25701,1636,0,2
1778660278.2582269,2051,0,2
1778660278.260851,2370,0,2
1778660278.262136,2575,0,2
1778660278.2662709,2169,0,2
1778660278.266908,1913,0,2
1778660278.2685282,1752,0,2
1778660278.270877,2022,0,2
1778660278.272744,2182,0,2
1778660278.2746649,1831,0,2
1778660278.277251,1829,0,2
1778660278.278538,2183,0,2
1778660278.281086,2056,0,2
1778660278.282372,2442,0,2
1778660278.288007,2317,0,2
1778660278.288387,2107,0,2
1778660278.288728,1875,0,2
1778660278.291415,1517,0,2
1778660278.2927601,2088,0,2
1778660278.295946,2125,0,2
1778660278.297488,1913,0,2
1778660278.29883,1792,0,2
1778660278.300128,1928,0,2
1778660278.302685,1872,0,2
1778660278.305238,1915,0,2
1778660278.310335,1939,0,2
1778660278.310994,2127,0,2
1778660278.3123899,2217,0,2
1778660278.3125749,2397,0,2
1778660278.3158138,2032,0,2
1778660278.318898,1695,0,2
1778660278.31903,1697,0,2
1778660278.320769,2379,0,2
1778660278.32206,2269,0,2
1778660278.324626,2605,0,2
1778660278.3271859,1963,0,2
1778660278.328473,1885,0,2
1778660278.333282,1915,0,2
1778660278.333385,2010,0,2
1778660278.3350809,1825,0,2
1778660278.336852,2088,0,2
1778660278.339363,1908,0,2
1778660278.3414888,1631,0,2
1778660278.3432698,1838,0,2
1778660278.344656,2248,0,2
1778660278.347093,2429,0,2
1778660278.348383,1870,0,2
1778660278.3509288,1604,0,2
1778660278.355776,1971,0,2
1778660278.357387,2151,0,2
1778660278.357476,1764,0,2
1778660278.358952,1968,0,2
1778660278.3617852,2364,0,2
1778660278.363741,2385,0,2
1778660278.365536,2089,0,2
1778660278.366832,2286,0,2
1778660278.36812,2154,0,2
1778660278.370673,1987,0,2
1778660278.373225,1584,0,2
1778660278.376662,2226,0,2
1778660278.376748,2428,0,2
1778660278.378138,2153,0,2
1778660278.380703,2185,0,2
1778660278.385309,2020,0,2
1778660278.385407,1964,0,2
1778660278.386731,1951,0,2
1778660278.389302,1956,0,2
1778660278.3905962,1896,0,2
1778660278.393162,1929,0,2
1778660278.3944461,2183,0,2
1778660278.398298,2441,0,2
1778660278.399209,2149,0,2
1778660278.401388,1834,0,2
1778660278.404657,2184,0,2
1778660278.406558,2211,0,2
1778660278.406709,2142,0,2
1778660278.409533,1748,0,2
1778660278.410822,2081,0,2
1778660278.412114,2180,0,2
1778660278.4146628,2363,0,2
1778660278.416085,2030,0,2
1778660278.419144,1977,0,2
1778660278.421483,2167,0,2
1778660278.42293,2007,0,2
1778660278.4274912,1935,0,2
1778660278.4276009,2206,0,2
1778660278.429358,2293,0,2
1778660278.430654,2175,0,2
1778660278.4332118,2281,0,2
1778660278.4345012,1945,0,2
1778660278.4371479,2085,0,2
1778660278.440715,1960,0,2
1778660278.441303,1947,0,2
1778660278.444046,1974,0,2
1778660278.444753,2249,0,2
1778660278.44698,2471,0,2
1778660278.448937,1919,0,2
1778660278.4505322,1872,0,2
1778660278.4530911,2234,0,2
1778660278.454377,2327,0,2
1778660278.456935,1939,0,2
1778660278.4581928,1953,0,2
1778660278.462396,2227,0,2
1778660278.4624891,2383,0,2
1778660278.465645,2256,0,2
1778660278.467956,2353,0,2
1778660278.469813,2347,0,2
1778660278.471354,1833,0,2
1778660278.472663,1584,0,2
1778660278.47521,2077,0,2
1778660278.476496,2295,0,2
1778660278.4789262,2346,0,2
1778660278.483867,2467,0,2
1778660278.4852622,2120,0,2
1778660278.485567,1775,0,2
1778660278.487199,2073,0,2
1778660278.4900658,2311,0,2
1778660278.490154,2310,0,2
1778660278.492974,2147,0,2
1778660278.4942698,1861,0,2
1778660278.4968162,2090,0,2
1778660278.498104,2143,0,2
1778660278.5035741,2170,0,2
1778660278.504256,2089,0,2
1778660278.5043461,1664,0,2
1778660278.5070322,1697,0,2
1778660278.5095942,1873,0,2
1778660278.511613,2305,0,2
1778660278.513163,2322,0,2
1778660278.514462,1869,0,2
1778660278.517018,2246,0,2
1778660278.5183082,2252,0,2
1778660278.520983,2295,0,2
1778660278.523975,1960,0,2
1778660278.5251682,1930,0,2
1778660278.5278301,2312,0,2
1778660278.5303638,2569,0,2
1778660278.530421,1915,0,2
1778660278.5323179,2187,0,2
1778660278.5348952,1618,0,2
1778660278.536188,1944,0,2
1778660278.53874,1920,0,2
1778660278.5400279,1915,0,2
1778660278.5459561,2079,0,2
1778660278.546567,1957,0,2
1778660278.54757,2277,0,2
1778660278.549616,2409,0,2
1778660278.551679,2097,0,2
1778660278.553578,1993,0,2
1778660278.55523,2017,0,2
1778660278.5565188,1733,0,2
1778660278.559063,2070,0,2
1778660278.560349,2313,0,2
1778660278.562864,2261,0,2
1778660278.565859,2001,0,2
1778660278.5680032,1960,0,2
1778660278.568241,2228,0,2
1778660278.572055,1900,0,2
1778660278.572186,1721,0,2
1778660278.574249,1705,0,2
1778660278.57697,2374,0,2
1778660278.578252,2807,0,2
1778660278.5808032,1969,0,2
1778660278.582091,2222,0,2
1778660278.588258,1950,0,2
1778660278.588574,2156,0,2
1778660278.5886452,1741,0,2
1778660278.59101,1900,0,2
1778660278.5924952,2266,0,2
1778660278.5953941,2307,0,2
1778660278.597163,1813,0,2
1778660278.598449,1899,0,2
1778660278.600994,1586,0,2
1778660278.602283,2243,0,2
1778660278.604696,2507,0,2
1778660278.608055,1836,0,2
1778660278.608673,1928,0,2
1778660278.610128,2268,0,2
1778660278.6129768,2277,0,2
1778660278.616003,2088,0,2
1778660278.616252,1809,0,2
1778660278.6190028,1969,0,2
1778660278.620287,2215,0,2
1778660278.622827,1884,0,2
1778660278.6241212,1619,0,2
1778660278.626664,1839,0,2
1778660278.630734,2343,0,2
1778660278.631593,2274,0,2
1778660278.6337438,2053,0,2
1778660278.6355999,1946,0,2
1778660278.63861,2062,0,2
1778660278.638725,1881,0,2
1778660278.6403022,2262,0,2
1778660278.642787,1968,0,2
1778660278.6440709,1998,0,2
1778660278.6466172,2204,0,2
1778660278.648309,1848,0,2
1778660278.651839,1899,0,2
1778660278.6536682,2138,0,2
1778660278.655444,1868,0,2
1778660278.6597362,1608,0,2
1778660278.65979,2019,0,2
1778660278.661549,2227,0,2
1778660278.662882,2181,0,2
1778660278.664167,2033,0,2
1778660278.6668081,1973,0,2
1778660278.668097,2073,0,2
1778660278.674029,1916,0,2
1778660278.674429,1766,0,2
1778660278.674756,1852,0,2
1778660278.677498,2027,0,2
1778660278.67983,2422,0,2
1778660278.681835,2824,0,2
1778660278.683606,1755,0,2
1778660278.684891,1765,0,2
1778660278.686176,1809,0,2
1778660278.688718,1977,0,2
1778660278.690068,1721,0,2
1778660278.694636,1994,0,2
1778660278.695007,2281,0,2
1778660278.696807,2120,0,2
1778660278.698507,1993,0,2
1778660278.7008471,2013,0,2
1778660278.702898,2093,0,2
1778660278.7044978,2306,0,2
1778660278.707052,2175,0,2
1778660278.708205,1991,0,2
1778660278.710745,1972,0,2
1778660278.7120268,2368,0,2
1778660278.715609,1859,0,2
1778660278.717521,2004,0,2
1778660278.7193658,2112,0,2
1778660278.721637,2168,0,2
1778660278.723646,1946,0,2
1778660278.725318,1736,0,2
1778660278.7266061,2164,0,2
1778660278.729182,2499,0,2
1778660278.730463,2140,0,2
1778660278.736373,2098,0,2
1778660278.736981,1929,0,2
1778660278.738282,2125,0,2
1778660278.738411,2094,0,2
1778660278.742442,1877,0,2
1778660278.7425122,2053,0,2
1778660278.744595,2234,0,2
1778660278.74621,2348,0,2
1778660278.748765,2261,0,2
1778660278.7501109,2103,0,2
1778660278.752662,1837,0,2
1778660278.756702,1961,0,2
1778660278.757044,1909,0,2
1778660278.7589881,1957,0,2
1778660278.7606301,2224,0,2
1778660278.763315,2410,0,2
1778660278.765305,2068,0,2
1778660278.766877,2048,0,2
1778660278.7681742,2021,0,2
1778660278.770724,2131,0,2
1778660278.7720408,1974,0,2
1778660278.777496,1887,0,2
1778660278.778174,2350,0,2
1778660278.778802,2418,0,2
1778660278.781235,2123,0,2
1778660278.782757,2113,0,2
1778660278.7857962,1938,0,2
1778660278.7874408,2134,0,2
1778660278.7887318,2097,0,2
1778660278.790025,2089,0,2
1778660278.7924118,2144,0,2
1778660278.794956,2247,0,2
1778660278.798044,2379,0,2
1778660278.798094,2079,0,2
1778660278.800355,1942,0,2
1778660278.804343,2061,0,2
1778660278.804429,2258,0,2
1778660278.806744,2172,0,2
1778660278.8093052,1887,0,2
1778660278.810673,2054,0,2
1778660278.81309,2492,0,2
1778660278.814429,2264,0,2
1778660278.822011,2124,0,2
1778660278.8232079,2084,0,2
1778660278.823474,2195,0,2
1778660278.825037,2023,0,2
1778660278.826568,2022,0,2
1778660278.8270762,2191,0,2
1778660278.831816,2399,0,2
1778660278.832036,2297,0,2
1778660278.8322802,2247,0,2
1778660278.835171,2102,0,2
1778660278.836525,2097,0,2
1778660278.841394,2093,0,2
1778660278.843453,1956,0,2
1778660278.843702,2067,0,2
1778660278.846069,2346,0,2
1778660278.847589,2396,0,2
1778660278.8512168,2227,0,2
1778660278.851386,2093,0,2
1778660278.85329,2150,0,2
1778660278.8546822,2214,0,2
1778660278.856044,2041,0,2
1778660278.858648,2033,0,2
1778660278.8600478,2273,0,2
1778660278.867628,2479,0,2
1778660278.867778,2250,0,2
1778660278.868247,2145,0,2
1778660278.869549,2145,0,2
1778660278.870998,2257,0,2
1778660278.874358,2147,0,2
1778660278.8768692,2085,0,2
1778660278.877186,2188,0,2
1778660278.879255,2482,0,2
1778660278.880565,2390,0,2
1778660278.883242,2239,0,2
1778660278.8884869,2092,0,2
1778660278.888971,2229,0,2
1778660278.890327,2179,0,2
1778660278.892517,2083,0,2
1778660278.8953788,2146,0,2
1778660278.898186,2442,0,2
1778660278.8983161,2531,0,2
1778660278.8986108,2311,0,2
1778660278.9007092,2239,0,2
1778660278.902081,2166,0,2
1778660278.904611,2255,0,2
1778660278.9060779,2135,0,2
1778660278.9087539,2121,0,2
1778660278.914623,2307,0,2
1778660278.9166532,2428,0,2
1778660278.916833,2168,0,2
1778660278.9169269,2097,0,2
1778660278.918928,2149,0,2
1778660278.9244642,2232,0,2
1778660278.924592,2146,0,2
1778660278.9249809,2016,0,2
1778660278.9278772,2172,0,2
1778660278.928022,2510,0,2
1778660278.930735,2333,0,2
1778660278.934975,2246,0,2
1778660278.935663,2115,0,2
1778660278.9395788,2198,0,2
1778660278.940353,2122,0,2
1778660278.941142,2008,0,2
1778660278.944705,2117,0,2
1778660278.944896,2280,0,2
1778660278.9468212,2372,0,2
1778660278.948229,2218,0,2
1778660278.950606,2105,0,2
1778660278.9519901,2117,0,2
1778660278.954665,2178,0,2
1778660278.9596329,2025,0,2
1778660278.9618719,2041,0,2
1778660278.962164,2335,0,2
1778660278.963954,2534,0,2
1778660278.965055,2218,0,2
1778660278.967259,1981,0,2
1778660278.9699168,1918,0,2
1778660278.970169,2184,0,2
1778660278.9729059,2225,0,2
1778660278.9742432,2087,0,2
1778660278.976907,2180,0,2
1778660278.978273,2427,0,2
1778660278.984464,2286,0,2
1778660278.987651,2112,0,2
1778660278.989749,2130,0,2
1778660278.991026,2178,0,2
1778660278.991421,2097,0,2
1778660278.9919538,2004,0,2
1778660278.9938052,2011,0,2
1778660278.9982579,2238,0,2
1778660278.998337,2383,0,2
1778660278.998398,2225,0,2
1778660279.001041,2034,0,2
1778660279.010669,2098,0,2
1778660279.012531,2273,0,2
1778660279.016475,2037,0,2
1778660279.018734,1884,0,2
1778660279.018846,2217,0,2
1778660279.018903,2465,0,2
1778660279.01898,2209,0,2
1778660279.019037,2117,0,2
1778660279.019087,1984,0,2
1778660279.0204391,2110,0,2
1778660279.022861,2013,0,2
1778660279.024256,1893,0,2
1778660279.026897,2093,0,2
1778660279.032494,2400,0,2
1778660279.0337899,2302,0,2
1778660279.037468,2135,0,2
1778660279.0388339,1981,0,2
1778660279.0434968,2068,0,2
1778660279.043954,2035,0,2
1778660279.046221,1931,0,2
1778660279.046307,2092,0,2
1778660279.04636,2322,0,2
1778660279.046491,2364,0,2
1778660279.049151,2187,0,2
1778660279.0506508,2100,0,2
1778660279.055341,2093,0,2
1778660279.0574331,2207,0,2
1778660279.059387,2041,0,2
1778660279.0599701,1998,0,2
1778660279.061362,2122,0,2
1778660279.063052,2400,0,2
1778660279.065814,2247,0,2
1778660279.068044,2153,0,2
1778660279.0682611,2104,0,2
1778660279.07094,2274,0,2
1778660279.072316,2165,0,2
1778660279.074927,2018,0,2
1778660279.076292,2210,0,2
1778660279.083127,2566,0,2
1778660279.084497,2395,0,2
1778660279.0857642,2094,0,2
1778660279.086029,2367,0,2
1778660279.093972,2350,0,2
1778660279.0943391,2260,0,2
1778660279.096444,2020,0,2
1778660279.096787,2137,0,2
1778660279.096915,2450,0,2
1778660279.09703,2509,0,2
1778660279.0983849,2245,0,2
1778660279.105355,2133,0,2
1778660279.1064541,2116,0,2
1778660279.108199,2180,0,2
1778660279.108424,2104,0,2
1778660279.109954,2186,0,2
1778660279.113065,2386,0,2
1778660279.117412,2634,0,2
1778660279.117776,2432,0,2
1778660279.119665,2265,0,2
1778660279.120279,2146,0,2
1778660279.120385,2265,0,2
1778660279.123024,2120,0,2
1778660279.124373,1911,0,2
1778660279.126985,2135,0,2
1778660279.128364,2625,0,2
1778660279.134031,2366,0,2
1778660279.137593,2208,0,2
1778660279.137783,2125,0,2
1778660279.137985,2335,0,2
1778660279.140606,2333,0,2
1778660279.1411579,2167,0,2
1778660279.143818,2186,0,2
1778660279.1467478,2415,0,2
1778660279.146972,2414,0,2
1778660279.149062,2167,0,2
1778660279.1504471,2166,0,2
1778660279.1531,2152,0,2
1778660279.1584399,2566,0,2
1778660279.1590242,2263,0,2
1778660279.159853,2066,0,2
1778660279.159963,2345,0,2
1778660279.163709,2672,0,2
1778660279.16609,2398,0,2
1778660279.1703649,2048,0,2
1778660279.170581,2268,0,2
1778660279.1708531,2259,0,2
1778660279.1730108,2234,0,2
1778660279.1744928,2043,0,2
1778660279.177124,2461,0,2
1778660279.178484,2459,0,2
1778660279.181089,2328,0,2
1778660279.1824179,2399,0,2
1778660279.18987,2332,0,2
1778660279.1901598,2248,0,2
1778660279.192048,1879,0,2
1778660279.192584,2054,0,2
1778660279.193741,2102,0,2
1778660279.198858,2361,0,2
1778660279.1992571,2491,0,2
1778660279.199626,2225,0,2
1778660279.201642,2095,0,2
1778660279.203155,2114,0,2
1778660279.204312,2237,0,2
1778660279.211127,2092,0,2
1778660279.2133791,1972,0,2
1778660279.215541,2162,0,2
1778660279.217895,2470,0,2
1778660279.218385,2304,0,2
1778660279.2199612,2204,0,2
1778660279.2227042,2097,0,2
1778660279.224925,2231,0,2
1778660279.225502,2079,0,2
1778660279.225587,1973,0,2
1778660279.226984,2117,0,2
1778660279.228371,2379,0,2
1778660279.2309918,2370,0,2
1778660279.232357,2191,0,2
1778660279.234965,1978,0,2
1778660279.239692,2020,0,2
1778660279.24276,2026,0,2
1778660279.242966,1893,0,2
1778660279.243074,2041,0,2
1778660279.2453928,2326,0,2
1778660279.2467551,2398,0,2
1778660279.250987,2159,0,2
1778660279.251267,2108,0,2
1778660279.253283,2126,0,2
1778660279.254584,2195,0,2
1778660279.2559261,2000,0,2
1778660279.2614112,1966,0,2
1778660279.2615302,2111,0,2
1778660279.264052,2348,0,2
1778660279.264224,2125,0,2
1778660279.266521,1940,0,2
1778660279.269485,1895,0,2
1778660279.2720718,2095,0,2
1778660279.2723699,2054,0,2
1778660279.2744331,1930,0,2
1778660279.277014,2117,0,2
1778660279.278311,2325,0,2
1778660279.280865,2239,0,2
1778660279.282155,2154,0,2
1778660279.2915368,2022,0,2
1778660279.293582,2035,0,2
1778660279.293717,2114,0,2
1778660279.296256,2109,0,2
1778660279.297747,2111,0,2
1778660279.297882,2326,0,2
1778660279.298021,2433,0,2
1778660279.300735,2222,0,2
1778660279.301033,2086,0,2
1778660279.303335,2101,0,2
1778660279.3047092,2247,0,2
1778660279.306082,2087,0,2
1778660279.3125272,2013,0,2
1778660279.314755,2148,0,2
1778660279.314976,2418,0,2
1778660279.3152058,2349,0,2
1778660279.317587,2208,0,2
1778660279.320701,2166,0,2
1778660279.320837,2205,0,2
1778660279.323498,2118,0,2
1778660279.325815,2019,0,2
1778660279.32596,2178,0,2
1778660279.328587,2387,0,2
1778660279.329938,2344,0,2
1778660279.332593,2177,0,2
1778660279.3339462,2105,0,2
1778660279.3407328,2146,0,2
1778660279.341263,2112,0,2
1778660279.343311,1925,0,2
1778660279.343503,2042,0,2
1778660279.345505,2290,0,2
1778660279.349021,2421,0,2
1778660279.3491788,2225,0,2
1778660279.3519082,2100,0,2
1778660279.352045,2125,0,2
1778660279.354967,2215,0,2
1778660279.356265,2047,0,2
1778660279.3637362,2017,0,2
1778660279.36389,2206,0,2
1778660279.3655412,2417,0,2
1778660279.365647,2216,0,2
1778660279.3675609,2095,0,2
1778660279.369194,2034,0,2
1778660279.373482,2145,0,2
1778660279.3737988,2100,0,2
1778660279.373983,1970,0,2
1778660279.3767612,2146,0,2
1778660279.378054,2334,0,2
1778660279.38061,2315,0,2
1778660279.381904,2127,0,2
1778660279.3844638,1998,0,2
1778660279.391079,2127,0,2
1778660279.3926709,2110,0,2
1778660279.3928058,1966,0,2
1778660279.3929112,2086,0,2
1778660279.39537,2266,0,2
1778660279.3982852,2378,0,2
1778660279.39845,2106,0,2
1778660279.4010398,1999,0,2
1778660279.40305,1976,0,2
1778660279.4043489,2306,0,2
1778660279.4069,2040,0,2
1778660279.4132302,1973,0,2
1778660279.41471,2191,0,2
1778660279.417055,2403,0,2
1778660279.418668,2275,0,2
1778660279.4196239,2149,0,2
1778660279.4213738,2098,0,2
1778660279.424002,2148,0,2
1778660279.424355,1991,0,2
1778660279.424494,1857,0,2
1778660279.426631,2061,0,2
1778660279.428007,2334,0,2
1778660279.4307342,2332,0,2
1778660279.4320798,2148,0,2
1778660279.434721,2074,0,2
1778660279.436137,2098,0,2
1778660279.442602,2080,0,2
1778660279.444427,1968,0,2
1778660279.4447,2006,0,2
1778660279.4469068,2236,0,2
1778660279.4485629,2375,0,2
1778660279.4513762,2136,0,2
1778660279.451662,2014,0,2
1778660279.454495,2050,0,2
1778660279.454866,2157,0,2
1778660279.457025,1967,0,2
1778660279.458449,1932,0,2
1778660279.4612281,2109,0,2
1778660279.465305,2415,0,2
1778660279.466249,2295,0,2
1778660279.4668531,2077,0,2
1778660279.468927,2032,0,2
1778660279.4713888,2151,0,2
1778660279.4746828,2012,0,2
1778660279.477248,1797,0,2
1778660279.47743,1941,0,2
1778660279.479182,2362,0,2
1778660279.480932,2397,0,2
1778660279.4822772,2172,0,2
1778660279.484875,2124,0,2
1778660279.4862149,2182,0,2
1778660279.4888508,2201,0,2
1778660279.493902,2039,0,2
1778660279.493988,2051,0,2
1778660279.4947999,2306,0,2
1778660279.496806,2358,0,2
1778660279.4990878,2056,0,2
1778660279.502183,2015,0,2
1778660279.504927,1979,0,2
1778660279.505118,2094,0,2
1778660279.507139,2029,0,2
1778660279.508436,1985,0,2
1778660279.511148,2249,0,2
1778660279.515043,2396,0,2
1778660279.516143,2090,0,2
1778660279.517846,2036,0,2
1778660279.5180318,2092,0,2
1778660279.521526,2126,0,2
1778660279.523175,2090,0,2
1778660279.525598,1942,0,2
1778660279.525989,2175,0,2
1778660279.529033,2418,0,2
1778660279.530328,2390,0,2
1778660279.532979,2186,0,2
1778660279.534296,2035,0,2
1778660279.5368571,2045,0,2
1778660279.542176,2056,0,2
1778660279.544054,1918,0,2
1778660279.544201,2013,0,2
1778660279.544301,2249,0,2
1778660279.547076,2350,0,2
1778660279.549366,2086,0,2
1778660279.5516958,2063,0,2
1778660279.553772,2008,0,2
1778660279.553951,2071,0,2
1778660279.556513,1972,0,2
1778660279.557802,1911,0,2
1778660279.5616052,2151,0,2
1778660279.563215,2381,0,2
1778660279.56624,2215,0,2
1778660279.566345,2122,0,2
1778660279.568287,2071,0,2
1778660279.571904,2057,0,2
1778660279.572056,2114,0,2
1778660279.574898,1967,0,2
1778660279.576187,2086,0,2
1778660279.578735,2219,0,2
1778660279.580022,2276,0,2
1778660279.582571,2156,0,2
1778660279.5875242,2071,0,2
1778660279.588256,2019,0,2
1778660279.5886478,2042,0,2
1778660279.591486,1891,0,2
1778660279.59334,1948,0,2
1778660279.5968032,2196,0,2
1778660279.596899,2379,0,2
1778660279.598764,2165,0,2
1778660279.6000588,2067,0,2
1778660279.602607,2098,0,2
1778660279.603913,2151,0,2
1778660279.6064708,1928,0,2
1778660279.611418,1923,0,2
1778660279.611831,2231,0,2
1778660279.612554,2341,0,2
1778660279.614345,2176,0,2
1778660279.617258,2006,0,2
1778660279.619195,1927,0,2
1778660279.6213288,2228,0,2
1778660279.622945,2086,0,2
1778660279.624238,1901,0,2
1778660279.626791,2038,0,2
1778660279.6280901,2283,0,2
1778660279.6306329,2329,0,2
1778660279.6320288,2122,0,2
1778660279.635442,2009,0,2
1778660279.6368809,2046,0,2
1778660279.639334,2123,0,2
1778660279.641195,1945,0,2
1778660279.6427178,1999,0,2
1778660279.644842,2191,0,2
1778660279.6464581,2362,0,2
1778660279.649018,2115,0,2
1778660279.650311,2018,0,2
1778660279.652826,2029,0,2
1778660279.654119,2119,0,2
1778660279.660032,1989,0,2
1778660279.6608489,1958,0,2
1778660279.6623209,2137,0,2
1778660279.662527,2350,0,2
1778660279.6641972,2214,0,2
1778660279.665986,2078,0,2
1778660279.6692228,2004,0,2
1778660279.671139,2106,0,2
1778660279.6724522,2024,0,2
1778660279.675,1894,0,2
1778660279.67629,2055,0,2
1778660279.678833,2287,0,2
1778660279.683233,2325,0,2
1778660279.6836312,2080,0,2
1778660279.685733,1850,0,2
1778660279.687167,2040,0,2
1778660279.6888928,2129,0,2
1778660279.690453,2018,0,2
1778660279.692462,2034,0,2
1778660279.694277,2242,0,2
1778660279.696835,2406,0,2
1778660279.698121,2099,0,2
1778660279.700665,1843,0,2
1778660279.701951,1756,0,2
1778660279.706804,2156,0,2
1778660279.7074828,2135,0,2
1778660279.709065,1985,0,2
1778660279.710709,2135,0,2
1778660279.713481,2512,0,2
1778660279.715678,2288,0,2
1778660279.717665,2163,0,2
1778660279.719149,2155,0,2
1778660279.7204769,2203,0,2
1778660279.723028,2070,0,2
1778660279.7243168,1831,0,2
1778660279.730043,1792,0,2
1778660279.730154,2141,0,2
1778660279.730495,2365,0,2
1778660279.7319481,2057,0,2
1778660279.735484,1930,0,2
1778660279.738718,2003,0,2
1778660279.738854,2120,0,2
1778660279.740392,1890,0,2
1778660279.7429771,2018,0,2
1778660279.744262,2248,0,2
1778660279.746809,2258,0,2
1778660279.748093,1917,0,2
1778660279.7534778,1794,0,2
1778660279.753849,1436,0,2
1778660279.754483,2369,0,2
1778660279.757159,2481,0,2
1778660279.7589781,2060,0,2
1778660279.760469,2135,0,2
1778660279.762482,2467,0,2
1778660279.764329,2402,0,2
1778660279.766891,2343,0,2
1778660279.7681868,2217,0,2
1778660279.7707362,2079,0,2
1778660279.772025,1900,0,2
1778660279.776704,1678,0,2
1778660279.776808,1822,0,2
1778660279.77866,2114,0,2
1778660279.780318,2204,0,2
1778660279.783107,2152,0,2
1778660279.7851598,2071,0,2
1778660279.786596,2046,0,2
1778660279.787891,1940,0,2
1778660279.790433,1784,0,2
1778660279.79299,1865,0,2
1778660279.794278,2046,0,2
1778660279.799489,2213,0,2
1778660279.800277,2056,0,2
1778660279.800703,2030,0,2
1778660279.803494,2002,0,2
1778660279.8048902,2116,0,2
1778660279.806405,1966,0,2
1778660279.808531,1831,0,2
1778660279.810483,2040,0,2
1778660279.813046,2274,0,2
1778660279.81433,2208,0,2
1778660279.816871,2070,0,2
1778660279.818154,1986,0,2
1778660279.822619,2064,0,2
1778660279.823045,2009,0,2
1778660279.825161,1831,0,2
1778660279.826663,1977,0,2
1778660279.8295538,2227,0,2
1778660279.8316438,2289,0,2
1778660279.8333309,2138,0,2
1778660279.834631,2018,0,2
1778660279.8359349,2003,0,2
1778660279.838488,2065,0,2
1778660279.841033,1930,0,2
1778660279.845553,1962,0,2
1778660279.84589,2166,0,2
1778660279.846585,2314,0,2
1778660279.847991,2129,0,2
1778660279.851365,2021,0,2
1778660279.854592,2001,0,2
1778660279.854729,2136,0,2
1778660279.856578,2002,0,2
1778660279.85787,1923,0,2
1778660279.860422,2111,0,2
1778660279.862973,2338,0,2
1778660279.864255,2215,0,2
1778660279.869738,2091,0,2
1778660279.870111,1992,0,2
1778660279.871453,2079,0,2
1778660279.873645,2018,0,2
1778660279.8758678,1862,0,2
1778660279.875982,1998,0,2
1778660279.87793,2243,0,2
1778660279.8806,2306,0,2
1778660279.88189,2094,0,2
1778660279.884448,2013,0,2
1778660279.88699,2035,0,2
1778660279.891996,2113,0,2
1778660279.89208,1937,0,2
1778660279.892482,1954,0,2
1778660279.89554,2152,0,2
1778660279.898127,2273,0,2
1778660279.898187,2086,0,2
1778660279.9001112,2065,0,2
1778660279.902834,2029,0,2
1778660279.90412,2141,0,2
1778660279.90667,2031,0,2
1778660279.907959,1915,0,2
1778660279.9139771,2060,0,2
1778660279.915261,2292,0,2
1778660279.916281,2182,0,2
1778660279.916407,1981,0,2
1778660279.9182742,2072,0,2
1778660279.920607,2062,0,2
1778660279.922538,2106,0,2
1778660279.924313,1991,0,2
1778660279.9268658,2101,0,2
1778660279.928156,2346,0,2
1778660279.9307148,2401,0,2
1778660279.9320042,2166,0,2
1778660279.9358048,2033,0,2
1778660279.936167,2016,0,2
1778660279.937966,2019,0,2
1778660279.9420202,1793,0,2
1778660279.942206,1856,0,2
1778660279.944066,2198,0,2
1778660279.946659,2456,0,2
1778660279.947947,2160,0,2
1778660279.950508,2053,0,2
1778660279.951798,1987,0,2
1778660279.956783,2155,0,2
1778660279.9577138,1968,0,2
1778660279.958945,1911,0,2
1778660279.960811,2042,0,2
1778660279.963149,2233,0,2
1778660279.9652312,2130,0,2
1778660279.9667761,2033,0,2
1778660279.968071,2036,0,2
1778660279.970622,2032,0,2
1778660279.9719129,1880,0,2
1778660279.974456,1894,0,2
1778660279.9789639,2144,0,2
1778660279.9808798,2462,0,2
1778660279.9809952,2514,0,2
1778660279.9828749,2318,0,2
1778660279.9852889,2159,0,2
1778660279.987205,2074,0,2
1778660279.9886029,2101,0,2
1778660279.9899058,1916,0,2
1778660279.9924579,1913,0,2
1778660279.995001,2060,0,2
1778660279.996285,2248,0,2
1778660280.000382,2030,0,2
1778660280.0012748,1900,0,2
1778660280.003438,1957,0,2
1778660280.004771,2054,0,2
1778660280.006492,1998,0,2
1778660280.0082781,1967,0,2
1778660280.0105531,2230,0,2
1778660280.0120268,2280,0,2
1778660280.01458,2267,0,2
1778660280.015875,2071,0,2
1778660280.018421,2170,0,2
1778660280.021903,2020,0,2
1778660280.022513,1990,0,2
1778660280.02433,1967,0,2
1778660280.026309,2018,0,2
1778660280.0284421,2163,0,2
1778660280.030256,2245,0,2
1778660280.0329118,2134,0,2
1778660280.0342,2324,0,2
1778660280.0368488,2117,0,2
1778660280.0380878,1984,0,2
1778660280.041213,1744,0,2
1778660280.04267,2126,0,2
1778660280.0481222,2281,0,2
1778660280.0503922,2230,0,2
1778660280.050487,1999,0,2
1778660280.0509062,1934,0,2
1778660280.053219,1911,0,2
1778660280.0552142,2047,0,2
1778660280.056632,1977,0,2
1778660280.05793,2031,0,2
1778660280.06048,2101,0,2
1778660280.0630279,2309,0,2
1778660280.064319,2241,0,2
1778660280.069359,2144,0,2
1778660280.069785,2099,0,2
1778660280.071372,2241,0,2
1778660280.0729752,1887,0,2
1778660280.074555,1758,0,2
1778660280.07757,2046,0,2
1778660280.079354,2167,0,2
1778660280.0806642,2231,0,2
1778660280.0819478,2026,0,2
1778660280.0844622,2080,0,2
1778660280.08719,1806,0,2
1778660280.091091,2156,0,2
1778660280.091707,2060,0,2
1778660280.093926,1940,0,2
1778660280.093983,2052,0,2
1778660280.09677,2327,0,2
1778660280.0986528,2128,0,2
1778660280.100449,1977,0,2
1778660280.103001,1956,0,2
1778660280.10429,2153,0,2
1778660280.1068301,2007,0,2
1778660280.111582,1923,0,2
1778660280.112245,2243,0,2
1778660280.1126149,2288,0,2
1778660280.115426,2162,0,2
1778660280.119919,1982,0,2
1778660280.119968,1960,0,2
1778660280.120086,2067,0,2
1778660280.122672,1965,0,2
1778660280.123957,1796,0,2
1778660280.126508,1945,0,2
1778660280.1284611,2262,0,2
1778660280.132925,2213,0,2
1778660280.134161,1986,0,2
1778660280.135413,1852,0,2
1778660280.137276,1860,0,2
1778660280.139599,2234,0,2
1778660280.1414862,1885,0,2
1778660280.143154,1818,0,2
1778660280.1444411,2161,0,2
1778660280.145792,2379,0,2
1778660280.1483462,2134,0,2
1778660280.150909,2006,0,2
1778660280.154906,1925,0,2
1778660280.1553018,1954,0,2
1778660280.157002,1922,0,2
1778660280.158955,1754,0,2
1778660280.161388,2124,0,2
1778660280.163248,2264,0,2
1778660280.164928,1980,0,2
1778660280.166225,1905,0,2
1778660280.168818,2106,0,2
1778660280.170122,2075,0,2
1778660280.172671,1971,0,2
1778660280.1762428,1704,0,2
1778660280.176317,1847,0,2
1778660280.1797278,2103,0,2
1778660280.180046,2377,0,2
1778660280.184226,2023,0,2
1778660280.1843991,1940,0,2
1778660280.185861,1978,0,2
1778660280.18841,2098,0,2
1778660280.189837,1989,0,2
1778660280.192395,2094,0,2
1778660280.19698,1868,0,2
1778660280.197312,2290,0,2
1778660280.19903,2182,0,2
1778660280.2010581,1934,0,2
1778660280.2031739,1963,0,2
1778660280.205,2014,0,2
1778660280.206646,1924,0,2
1778660280.2079308,1853,0,2
1778660280.210475,1948,0,2
1778660280.211761,2272,0,2
1778660280.2143528,2280,0,2
1778660280.219011,2222,0,2
1778660280.219438,2030,0,2
1778660280.240431,1900,0,2
1778660280.24056,1989,0,2
1778660280.2406862,1894,0,2
1778660280.240931,1852,0,2
1778660280.24098,2370,0,2
1778660280.2410262,2197,0,2
1778660280.241065,2027,0,2
1778660280.241089,1938,0,2
1778660280.241232,2014,0,2
1778660280.241312,1955,0,2
1778660280.241368,1879,0,2
1778660280.2426739,1820,0,2
1778660280.2496672,2137,0,2
1778660280.249773,2297,0,2
1778660280.2497978,2111,0,2
1778660280.2501702,1953,0,2
1778660280.256902,1855,0,2
1778660280.257303,2016,0,2
1778660280.259385,2193,0,2
1778660280.259488,1772,0,2
1778660280.2609239,1832,0,2
1778660280.2624772,2209,0,2
1778660280.263915,2147,0,2
1778660280.266975,1947,0,2
1778660280.278507,2078,0,2
1778660280.280488,2229,0,2
1778660280.280639,1801,0,2
1778660280.2807412,1636,0,2
1778660280.280891,1947,0,2
1778660280.2810931,2194,0,2
1778660280.2811892,2145,0,2
1778660280.2828631,1924,0,2
1778660280.284208,2006,0,2
1778660280.286765,1844,0,2
1778660280.288049,1773,0,2
1778660280.290658,1599,0,2
1778660280.2941399,1753,0,2
1778660280.294231,2164,0,2
1778660280.296185,2411,0,2
1778660280.30054,1992,0,2
1778660280.3025768,1890,0,2
1778660280.302648,2033,0,2
1778660280.3044128,1993,0,2
1778660280.3057868,1849,0,2
1778660280.308335,1728,0,2
1778660280.310892,2191,0,2
1778660280.312184,2058,0,2
1778660280.316372,1903,0,2
1778660280.316719,1933,0,2
1778660280.318231,1739,0,2
1778660280.319801,1881,0,2
1778660280.324278,2134,0,2
1778660280.3244522,1952,0,2
1778660280.3260548,1975,0,2
1778660280.3286998,2021,0,2
1778660280.329988,2147,0,2
1778660280.332535,1930,0,2
1778660280.3370528,1818,0,2
1778660280.337656,1900,0,2
1778660280.338292,1896,0,2
1778660280.340445,1788,0,2
1778660280.342082,1871,0,2
1778660280.345249,1801,0,2
1778660280.346656,2053,0,2
1778660280.347948,2118,0,2
1778660280.350326,1986,0,2
1778660280.3528728,1766,0,2
1778660280.35416,1849,0,2
1778660280.3579898,2061,0,2
1778660280.358382,1789,0,2
1778660280.360182,1889,0,2
1778660280.36201,2365,0,2
1778660280.364314,2211,0,2
1778660280.366247,1898,0,2
1778660280.3688772,2003,0,2
1778660280.370165,1722,0,2
1778660280.372722,1789,0,2
1778660280.374012,1878,0,2
1778660280.3800058,1730,0,2
1778660280.380351,1947,0,2
1778660280.3807201,2140,0,2
1778660280.383679,2034,0,2
1778660280.384552,2107,0,2
1778660280.387997,2113,0,2
1778660280.388053,1965,0,2
1778660280.3906329,1880,0,2
1778660280.3919208,1890,0,2
1778660280.394492,1925,0,2
1778660280.395788,2184,0,2
1778660280.4013062,2061,0,2
1778660280.4014149,1699,0,2
1778660280.403174,1973,0,2
1778660280.404576,1865,0,2
1778660280.4070919,1819,0,2
1778660280.408989,1799,0,2
1778660280.410709,2301,0,2
1778660280.412003,2362,0,2
1778660280.414554,2188,0,2
1778660280.415841,1578,0,2
1778660280.4182038,1835,0,2
1778660280.4222121,1726,0,2
1778660280.4234712,1921,0,2
1778660280.4252632,2339,0,2
1778660280.426624,1790,0,2
1778660280.4296021,1760,0,2
1778660280.431179,2327,0,2
1778660280.432461,2282,0,2
1778660280.433804,1898,0,2
1778660280.4363441,2028,0,2
1778660280.4388852,1951,0,2
1778660280.4427001,1666,0,2
1778660280.443346,1907,0,2
1778660280.445272,1928,0,2
1778660280.44672,2178,0,2
1778660280.4484491,2187,0,2
1778660280.450482,2029,0,2
1778660280.452119,2012,0,2
1778660280.454664,1710,0,2
1778660280.455953,1819,0,2
1778660280.4584918,1826,0,2
1778660280.463229,1799,0,2
1778660280.463818,2304,0,2
1778660280.464841,2161,0,2
1778660280.466615,2313,0,2
1778660280.468905,1998,0,2
1778660280.470888,2169,0,2
1778660280.472233,2065,0,2
1778660280.474779,1793,0,2
1778660280.4760692,1952,0,2
1778660280.478623,2001,0,2
1778660280.4799109,2357,0,2
1778660280.483331,2059,0,2
1778660280.485342,2091,0,2
1778660280.4871008,1910,0,2
1778660280.48948,2071,0,2
1778660280.4914298,2085,0,2
1778660280.4927459,1746,0,2
1778660280.494036,2138,0,2
1778660280.496586,2317,0,2
1778660280.497886,1967,0,2
1778660280.500431,2238,0,2
1778660280.504149,1743,0,2
1778660280.504697,2078,0,2
1778660280.506371,1901,0,2
1778660280.50809,1952,0,2
1778660280.5104058,2237,0,2
1778660280.5123498,2192,0,2
1778660280.515191,2205,0,2
1778660280.516534,2049,0,2
1778660280.5178182,2030,0,2
1778660280.5203562,2130,0,2
1778660280.524683,2247,0,2
1778660280.525305,1949,0,2
1778660280.5267699,1800,0,2
1778660280.528429,2239,0,2
1778660280.530794,2425,0,2
1778660280.53274,2250,0,2
1778660280.534314,2026,0,2
1778660280.536782,1931,0,2
1778660280.53807,2181,0,2
1778660280.5406132,2101,0,2
1778660280.544856,1704,0,2
1778660280.545214,2014,0,2
1778660280.547251,2687,0,2
1778660280.5489862,2189,0,2
1778660280.551268,1916,0,2
1778660280.553131,2041,0,2
1778660280.5544362,2022,0,2
1778660280.555804,1999,0,2
1778660280.558208,1957,0,2
1778660280.560747,2023,0,2
1778660280.5620322,2213,0,2
1778660280.566603,2248,0,2
1778660280.566994,2205,0,2
1778660280.569463,2079,0,2
1778660280.571212,2099,0,2
1778660280.574202,2117,0,2
1778660280.574356,1867,0,2
1778660280.576158,1911,0,2
1778660280.5787048,2189,0,2
1778660280.579989,2462,0,2
1778660280.58253,2127,0,2
1778660280.583811,2320,0,2
1778660280.587859,2058,0,2
1778660280.588532,2250,0,2
1778660280.5900328,1809,0,2
1778660280.5940359,1888,0,2
1778660280.59416,2316,0,2
1778660280.59611,2134,0,2
1778660280.598697,2301,0,2
1778660280.600063,1837,0,2
1778660280.60515,1772,0,2
1778660280.605176,2005,0,2
1778660280.6067252,2023,0,2
1778660280.609942,2232,0,2
1778660280.60999,2012,0,2
1778660280.612146,2276,0,2
1778660280.615156,2241,0,2
1778660280.618183,2145,0,2
1778660280.6183648,1914,0,2
1778660280.6199732,1989,0,2
1778660280.622516,2293,0,2
1778660280.6238139,1937,0,2
1778660280.626362,1659,0,2
1778660280.631021,2140,0,2
1778660280.6319768,2239,0,2
1778660280.6329632,2207,0,2
1778660280.634429,2144,0,2
1778660280.6370041,1713,0,2
1778660280.639113,1911,0,2
1778660280.640722,1968,0,2
1778660280.6420102,1857,0,2
1778660280.644574,2003,0,2
1778660280.645857,2356,0,2
1778660280.648438,2085,0,2
1778660280.6535418,1959,0,2
1778660280.654779,1906,0,2
1778660280.655149,1959,0,2
1778660280.656611,2106,0,2
1778660280.65959,1810,0,2
1778660280.660929,1959,0,2
1778660280.662225,2261,0,2
1778660280.664774,2279,0,2
1778660280.666065,2053,0,2
1778660280.6686049,1856,0,2
1778660280.6728299,1938,0,2
1778660280.673492,2238,0,2
1778660280.67588,1850,0,2
1778660280.675939,1920,0,2
1778660280.6787431,2219,0,2
1778660280.680817,2310,0,2
1778660280.682431,2182,0,2
1778660280.683786,2141,0,2
1778660280.68633,2095,0,2
1778660280.688868,2179,0,2
1778660280.690333,1852,0,2
1778660280.695436,1875,0,2
1778660280.6955378,2189,0,2
1778660280.696969,2397,0,2
1778660280.701397,2210,0,2
1778660280.701689,2071,0,2
1778660280.701867,1963,0,2
1778660280.704566,2042,0,2
1778660280.705847,2000,0,2
1778660280.708221,1898,0,2
1778660280.710764,2040,0,2
1778660280.7147148,2298,0,2
1778660280.715337,2350,0,2
1778660280.718268,2164,0,2
1778660280.718643,2038,0,2
1778660280.720959,2065,0,2
1778660280.723006,2115,0,2
1778660280.724617,1933,0,2
1778660280.725905,2024,0,2
1778660280.728462,2294,0,2
1778660280.72981,2415,0,2
1778660280.7354171,2156,0,2
1778660280.735498,2038,0,2
1778660280.737397,2008,0,2
1778660280.739282,2178,0,2
1778660280.741604,2052,0,2
1778660280.7435489,1975,0,2
1778660280.746539,2177,0,2
1778660280.7465641,2435,0,2
1778660280.74785,2310,0,2
1778660280.752127,2151,0,2
1778660280.752154,2088,0,2
1778660280.758143,2147,0,2
1778660280.7596622,2093,0,2
1778660280.759806,2005,0,2
1778660280.759906,2097,0,2
1778660280.762976,2312,0,2
1778660280.766124,2314,0,2
1778660280.766463,2177,0,2
1778660280.768337,2064,0,2
1778660280.77089,2117,0,2
1778660280.772181,2142,0,2
1778660280.7747269,1987,0,2
1778660280.776221,2044,0,2
1778660280.7802181,2309,0,2
1778660280.780855,2462,0,2
1778660280.7836008,2203,0,2
1778660280.784371,2099,0,2
1778660280.786623,2045,0,2
1778660280.788765,2168,0,2
1778660280.7901912,2042,0,2
1778660280.792748,2086,0,2
1778660280.7940638,2139,0,2
1778660280.796615,2377,0,2
1778660280.7980642,2221,0,2
1778660280.803287,2098,0,2
1778660280.803963,2020,0,2
1778660280.804043,2147,0,2
1778660280.8067389,2109,0,2
1778660280.8093472,1927,0,2
1778660280.811479,2014,0,2
1778660280.812916,2263,0,2
1778660280.814214,2362,0,2
1778660280.816928,2164,0,2
1778660280.8182201,2126,0,2
1778660280.8207722,2223,0,2
1778660280.826438,2107,0,2
1778660280.8272052,1881,0,2
1778660280.828307,1876,0,2
1778660280.828362,2171,0,2
1778660280.829953,2352,0,2
1778660280.832575,2149,0,2
1778660280.8346329,1994,0,2
1778660280.83608,1923,0,2
1778660280.838639,2180,0,2
1778660280.839929,2052,0,2
1778660280.842475,1980,0,2
1778660280.843773,2163,0,2
1778660280.8485749,2404,0,2
1778660280.849257,2255,0,2
1778660280.850755,2149,0,2
1778660280.852638,1827,0,2
1778660280.856823,2048,0,2
1778660280.856895,1983,0,2
1778660280.8586419,1853,0,2
1778660280.859936,2018,0,2
1778660280.8624861,2268,0,2
1778660280.863772,2286,0,2
1778660280.866379,2084,0,2
1778660280.871553,1981,0,2
1778660280.873,1962,0,2
1778660280.873117,1989,0,2
1778660280.87465,1826,0,2
1778660280.877346,1882,0,2
1778660280.879412,2191,0,2
1778660280.880872,2495,0,2
1778660280.8821719,1957,0,2
1778660280.884501,1964,0,2
1778660280.885788,2010,0,2
1778660280.888329,2040,0,2
1778660280.892968,2011,0,2
1778660280.893346,1836,0,2
1778660280.895063,2086,0,2
1778660280.8968,2387,0,2
1778660280.8993611,2127,0,2
1778660280.9013388,2045,0,2
1778660280.9029949,1999,0,2
1778660280.90429,2085,0,2
1778660280.906833,1968,0,2
1778660280.908117,1822,0,2
1778660280.9106681,2074,0,2
1778660280.91425,2279,0,2
1778660280.914614,2256,0,2
1778660280.9162612,2034,0,2
1778660280.918089,1949,0,2
1778660280.922435,2056,0,2
1778660280.922534,2144,0,2
1778660280.9242308,1885,0,2
1778660280.9266932,1942,0,2
1778660280.928024,2100,0,2
1778660280.930568,2366,0,2
1778660280.931848,2230,0,2
1778660280.935489,1882,0,2
1778660280.937172,1939,0,2
1778660280.938642,2178,0,2
1778660280.941228,1957,0,2
1778660280.9432662,1969,0,2
1778660280.944931,2041,0,2
1778660280.94622,2276,0,2
1778660280.9487748,2201,0,2
1778660280.950059,2112,0,2
1778660280.952607,2117,0,2
1778660280.956182,2113,0,2
1778660280.956227,2066,0,2
1778660280.957991,1799,0,2
1778660280.962087,1984,0,2
1778660280.964073,2254,0,2
1778660280.964227,2254,0,2
1778660280.965815,2181,0,2
1778660280.9683578,1957,0,2
1778660280.970925,1795,0,2
1778660280.972207,2016,0,2
1778660280.974902,2083,0,2
1778660280.978414,1969,0,2
1778660280.978494,2183,0,2
1778660280.980242,2272,0,2
1778660280.9823139,2024,0,2
1778660280.986251,2078,0,2
1778660280.98633,2070,0,2
1778660280.9879491,2038,0,2
1778660280.990505,1835,0,2
1778660280.991791,1944,0,2
1778660280.9943411,2172,0,2
1778660280.998919,2368,0,2
1778660280.9989781,2235,0,2
1778660281.0011609,2109,0,2
1778660281.002555,1990,0,2
1778660281.003882,2043,0,2
1778660281.007046,2113,0,2
1778660281.008586,1936,0,2
1778660281.00987,1998,0,2
1778660281.012414,2191,0,2
1778660281.0138052,2295,0,2
1778660281.0191438,2155,0,2
1778660281.0200489,2103,0,2
1778660281.021479,2095,0,2
1778660281.022961,2062,0,2
1778660281.0256798,1939,0,2
1778660281.027671,2004,0,2
1778660281.0278442,2266,0,2
1778660281.03052,2427,0,2
1778660281.031811,2147,0,2
1778660281.034366,2005,0,2
1778660281.0369081,2054,0,2
1778660281.0411022,2169,0,2
1778660281.0417511,2081,0,2
1778660281.042103,2010,0,2
1778660281.044897,2157,0,2
1778660281.0472791,2329,0,2
1778660281.0492742,2292,0,2
1778660281.051035,2139,0,2
1778660281.05232,2037,0,2
1778660281.054873,2131,0,2
1778660281.056156,2070,0,2
1778660281.061836,1914,0,2
1778660281.062529,2035,0,2
1778660281.063482,2276,0,2
1778660281.066046,2362,0,2
1778660281.066386,2168,0,2
1778660281.070855,2054,0,2
1778660281.0710819,2054,0,2
1778660281.0727391,2082,0,2
1778660281.074027,1929,0,2
1778660281.076681,1952,0,2
1778660281.077999,2194,0,2
1778660281.080713,2357,0,2
1778660281.086439,2202,0,2
1778660281.094081,2114,0,2
1778660281.09611,2057,0,2
1778660281.096274,2135,0,2
1778660281.096496,2006,0,2
1778660281.0965571,1942,0,2
1778660281.096611,2060,0,2
1778660281.096661,2286,0,2
1778660281.1002429,2198,0,2
1778660281.100384,2068,0,2
1778660281.1018019,2015,0,2
1778660281.104465,2069,0,2
1778660281.105972,1962,0,2
1778660281.111766,1937,0,2
1778660281.114601,2021,0,2
1778660281.118098,2242,0,2
1778660281.120569,2327,0,2
1778660281.121114,2073,0,2
1778660281.1230788,1960,0,2
1778660281.123172,2046,0,2
1778660281.1232698,2128,0,2
1778660281.124607,1928,0,2
1778660281.125931,1986,0,2
1778660281.132122,2233,0,2
1778660281.1344159,2367,0,2
1778660281.134906,2154,0,2
1778660281.137432,2049,0,2
1778660281.140314,2071,0,2
1778660281.1450071,2101,0,2
1778660281.14516,1998,0,2
1778660281.145246,1921,0,2
1778660281.145387,2124,0,2
1778660281.146796,2381,0,2
1778660281.149162,2288,0,2
1778660281.150526,2127,0,2
1778660281.151972,2055,0,2
1778660281.1588218,2162,0,2
1778660281.161682,2049,0,2
1778660281.1638951,1925,0,2
1778660281.169128,2030,0,2
1778660281.169577,2289,0,2
1778660281.169923,2369,0,2
1778660281.171665,2153,0,2
1778660281.171861,2049,0,2
1778660281.171956,2033,0,2
1778660281.171987,2117,0,2
1778660281.174659,2003,0,2
1778660281.180592,2009,0,2
1778660281.182156,2212,0,2
1778660281.1825159,2448,0,2
1778660281.1855922,2197,0,2
1778660281.189693,2070,0,2
1778660281.189934,2041,0,2
1778660281.190235,2123,0,2
1778660281.1904619,2085,0,2
1778660281.19233,2021,0,2
1778660281.1949399,2129,0,2
1778660281.196336,2418,0,2
1778660281.199202,2284,0,2
1778660281.200771,2094,0,2
1778660281.206506,2010,0,2
1778660281.2083268,2059,0,2
1778660281.210886,2045,0,2
1778660281.21347,1932,0,2
1778660281.2177112,2057,0,2
1778660281.217838,2290,0,2
1778660281.218003,2366,0,2
1778660281.218071,2137,0,2
1778660281.218123,1986,0,2
1778660281.2207701,2014,0,2
1778660281.226752,2110,0,2
1778660281.228409,1918,0,2
1778660281.228645,1880,0,2
1778660281.2288451,2078,0,2
1778660281.233866,2285,0,2
1778660281.2362812,2068,0,2
1778660281.2365508,2043,0,2
1778660281.2366579,1917,0,2
1778660281.238752,2062,0,2
1778660281.2400918,1965,0,2
1778660281.2426,1813,0,2
1778660281.243941,2051,0,2
1778660281.2464588,2287,0,2
1778660281.251425,2190,0,2
1778660281.2522838,2007,0,2
1778660281.253336,1956,0,2
1778660281.257337,2008,0,2
1778660281.2574,1936,0,2
1778660281.259394,1827,0,2
1778660281.262586,1903,0,2
1778660281.2631528,2179,0,2
1778660281.2649212,2220,0,2
1778660281.266283,1976,0,2
1778660281.268681,1957,0,2
1778660281.272916,2012,0,2
1778660281.274147,2030,0,2
1778660281.276793,1862,0,2
1778660281.278241,1933,0,2
1778660281.279039,2162,0,2
1778660281.2829309,2340,0,2
1778660281.283166,2083,0,2
1778660281.284866,1972,0,2
1778660281.286221,1991,0,2
1778660281.2885911,2087,0,2
1778660281.289918,1985,0,2
1778660281.292535,1926,0,2
1778660281.293869,2078,0,2
1778660281.301743,2238,0,2
1778660281.303406,2150,0,2
1778660281.304632,2072,0,2
1778660281.3101592,1941,0,2
1778660281.310614,2004,0,2
1778660281.3108962,1947,0,2
1778660281.312984,1804,0,2
1778660281.313071,1906,0,2
1778660281.3131342,2183,0,2
1778660281.314495,2264,0,2
1778660281.316916,2032,0,2
1778660281.325543,1908,0,2
1778660281.32631,1997,0,2
1778660281.3272278,1998,0,2
1778660281.328637,1832,0,2
1778660281.328918,1834,0,2
1778660281.3291159,2048,0,2
1778660281.3315241,2276,0,2
1778660281.333644,2093,0,2
1778660281.3338208,1931,0,2
1778660281.336429,1879,0,2
1778660281.337821,1973,0,2
1778660281.3404338,1934,0,2
1778660281.342844,1904,0,2
1778660281.34824,1963,0,2
1778660281.3501818,2179,0,2
1778660281.3504362,2114,0,2
1778660281.3521621,1985,0,2
1778660281.352247,1927,0,2
1778660281.355791,2015,0,2
1778660281.358083,1867,0,2
1778660281.3583019,1742,0,2
1778660281.360363,1825,0,2
1778660281.361828,2094,0,2
1778660281.364592,2223,0,2
1778660281.3686998,2042,0,2
1778660281.368882,1900,0,2
1778660281.371419,1900,0,2
1778660281.373385,2002,0,2
1778660281.3789032,1870,0,2
1778660281.379224,1931,0,2
1778660281.379406,2060,0,2
1778660281.3812501,2294,0,2
1778660281.382655,2170,0,2
1778660281.3840058,2001,0,2
1778660281.386622,1815,0,2
1778660281.387946,1884,0,2
1778660281.3945322,1976,0,2
1778660281.395752,1890,0,2
1778660281.39737,2046,0,2
1778660281.397536,2227,0,2
1778660281.3995578,2131,0,2
1778660281.401254,2065,0,2
1778660281.4030132,2017,0,2
1778660281.405555,2009,0,2
1778660281.4076958,1999,0,2
1778660281.407792,1876,0,2
1778660281.410516,1950,0,2
1778660281.412104,2181,0,2
1778660281.417247,2318,0,2
1778660281.4188879,2170,0,2
1778660281.4191518,2007,0,2
1778660281.421875,2035,0,2
1778660281.4223769,2159,0,2
1778660281.427107,1929,0,2
1778660281.427464,1977,0,2
1778660281.4295712,2254,0,2
1778660281.4298508,2459,0,2
1778660281.432566,2178,0,2
1778660281.433923,2006,0,2
1778660281.436525,1935,0,2
1778660281.438453,2073,0,2
1778660281.439929,2035,0,2
1778660281.4468758,1913,0,2
1778660281.449995,2049,0,2
1778660281.450609,2332,0,2
1778660281.451147,2240,0,2
1778660281.453019,2096,0,2
1778660281.457502,2036,0,2
1778660281.457877,2101,0,2
1778660281.457964,2115,0,2
1778660281.457993,1941,0,2
1778660281.46135,1985,0,2
1778660281.467319,2255,0,2
1778660281.467954,2331,0,2
1778660281.468096,2092,0,2
1778660281.469903,2002,0,2
1778660281.470112,1975,0,2
1778660281.472171,2084,0,2
1778660281.478227,1905,0,2
1778660281.4785368,1928,0,2
1778660281.479001,2070,0,2
1778660281.481178,2300,0,2
1778660281.482529,2154,0,2
1778660281.483875,2070,0,2
1778660281.486489,2006,0,2
1778660281.4878342,2031,0,2
1778660281.4904819,1965,0,2
1778660281.495521,1727,0,2
1778660281.4983392,1926,0,2
1778660281.501416,2265,0,2
1778660281.502021,2261,0,2
1778660281.50338,1864,0,2
1778660281.5050292,1971,0,2
1778660281.505213,2168,0,2
1778660281.5076952,1878,0,2
1778660281.5079098,1463,0,2
1778660281.510855,1333,0,2
1778660281.5120902,2044,0,2
1778660281.519468,2444,0,2
1778660281.51964,2240,0,2
1778660281.521816,2347,0,2
1778660281.522061,2348,0,2
1778660281.5238101,2032,0,2
1778660281.524425,1768,0,2
1778660281.526626,2067,0,2
1778660281.5305269,2434,0,2
1778660281.530807,2721,0,2
1778660281.533062,1694,0,2
1778660281.534462,1410,0,2
1778660281.536111,1240,0,2
1778660281.538719,1921,0,2
1778660281.540086,2434,0,2
1778660281.543061,2447,0,2
1778660281.54795,2305,0,2
1778660281.550394,2421,0,2
1778660281.5506072,2157,0,2
1778660281.552407,2146,0,2
1778660281.55329,2091,0,2
1778660281.555264,2029,0,2
1778660281.559419,1822,0,2
1778660281.561186,1518,0,2
1778660281.5616682,1700,0,2
1778660281.561975,2224,0,2
1778660281.564671,2051,0,2
1778660281.570048,1783,0,2
1778660281.570605,1791,0,2
1778660281.57122,1724,0,2
1778660281.574964,1868,0,2
1778660281.576368,1810,0,2
1778660281.577962,1728,0,2
1778660281.5795178,1847,0,2
1778660281.5822039,2090,0,2
1778660281.582569,1926,0,2
1778660281.584695,1826,0,2
1778660281.586015,1801,0,2
1778660281.588605,1918,0,2
1778660281.589943,1782,0,2
1778660281.592722,1597,0,2
1778660281.59409,1786,0,2
1778660281.60411,2076,0,2
1778660281.609643,2058,0,2
1778660281.6097379,1916,0,2
1778660281.612441,1829,0,2
1778660281.612639,1880,0,2
1778660281.6146271,1877,0,2
1778660281.614948,1735,0,2
1778660281.615028,1816,0,2
1778660281.615087,2031,0,2
1778660281.6151419,2155,0,2
1778660281.616558,1914,0,2
1778660281.6178648,1811,0,2
1778660281.624775,1856,0,2
1778660281.627027,2041,0,2
1778660281.629718,1889,0,2
1778660281.631857,1844,0,2
1778660281.63627,2026,0,2
1778660281.637017,2238,0,2
1778660281.638966,2066,0,2
1778660281.639703,1955,0,2
1778660281.639957,1920,0,2
1778660281.640023,2018,0,2
1778660281.640079,1896,0,2
1778660281.6427069,1715,0,2
1778660281.64405,1918,0,2
1778660281.646654,2203,0,2
1778660281.648016,2193,0,2
1778660281.6566532,2032,0,2
1778660281.659018,1901,0,2
1778660281.661827,1891,0,2
1778660281.662889,1944,0,2
1778660281.66582,1869,0,2
1778660281.666101,1905,0,2
1778660281.669056,2098,0,2
1778660281.669302,2223,0,2
1778660281.6694741,2018,0,2
1778660281.669717,1951,0,2
1778660281.6717281,1922,0,2
1778660281.67201,1986,0,2
1778660281.6746619,1823,0,2
1778660281.6760478,1734,0,2
1778660281.684455,1964,0,2
1778660281.6846058,2234,0,2
1778660281.684839,2095,0,2
1778660281.6869252,1944,0,2
1778660281.688003,1890,0,2
1778660281.688599,2031,0,2
1778660281.691709,1944,0,2
1778660281.692096,1849,0,2
1778660281.694719,1974,0,2
1778660281.697097,2160,0,2
1778660281.698463,2140,0,2
1778660281.699832,1932,0,2
1778660281.7025568,1864,0,2
1778660281.7039192,1960,0,2
1778660281.7066061,1957,0,2
1778660281.715568,1800,0,2
1778660281.7189639,1867,0,2
1778660281.719729,2025,0,2
1778660281.7250292,2098,0,2
1778660281.7255151,1904,0,2
1778660281.725753,1799,0,2
1778660281.726062,2008,0,2
1778660281.726253,2010,0,2
1778660281.727958,1887,0,2
1778660281.728437,1894,0,2
1778660281.728708,2218,0,2
1778660281.730061,2404,0,2
1778660281.732885,2202,0,2
1778660281.738139,2092,0,2
1778660281.738366,2008,0,2
1778660281.739289,2008,0,2
1778660281.740881,1925,0,2
1778660281.743052,1853,0,2
1778660281.745554,1955,0,2
1778660281.749619,2106,0,2
1778660281.749938,2086,0,2
1778660281.750237,1967,0,2
1778660281.752355,1934,0,2
1778660281.753858,1845,0,2
1778660281.756778,1806,0,2
1778660281.758131,1799,0,2
1778660281.76087,1885,0,2
1778660281.76233,2402,0,2
1778660281.767215,2608,0,2
1778660281.768915,2223,0,2
1778660281.77046,2043,0,2
1778660281.7723641,1994,0,2
1778660281.772854,2165,0,2
1778660281.775177,2041,0,2
1778660281.7789938,1941,0,2
1778660281.77943,1986,0,2
1778660281.781331,2134,0,2
1778660281.782712,1957,0,2
1778660281.784152,1952,0,2
1778660281.7906911,1974,0,2
1778660281.791296,2047,0,2
1778660281.7937422,1953,0,2
1778660281.793995,1838,0,2
1778660281.794088,1977,0,2
1778660281.796732,2237,0,2
1778660281.798648,2145,0,2
1778660281.8001769,1918,0,2
1778660281.802766,1879,0,2
1778660281.8046012,1974,0,2
1778660281.806027,2088,0,2
1778660281.808759,1854,0,2
1778660281.81027,1871,0,2
1778660281.8129642,2174,0,2
1778660281.8142562,2322,0,2
1778660281.820489,2066,0,2
1778660281.8213701,1976,0,2
1778660281.823204,2036,0,2
1778660281.826147,2037,0,2
1778660281.827444,1844,0,2
1778660281.829385,1727,0,2
1778660281.8295062,2077,0,2
1778660281.8320909,2350,0,2
1778660281.832354,2229,0,2
1778660281.834744,2028,0,2
1778660281.83615,1962,0,2
1778660281.83883,2035,0,2
1778660281.845472,2014,0,2
1778660281.8469682,1856,0,2
1778660281.847105,1978,0,2
1778660281.847351,2215,0,2
1778660281.850569,2200,0,2
1778660281.8507252,2010,0,2
1778660281.853677,1947,0,2
1778660281.856121,1956,0,2
1778660281.8562481,2011,0,2
1778660281.858582,1854,0,2
1778660281.859935,1931,0,2
1778660281.862496,2142,0,2
1778660281.8638232,2266,0,2
1778660281.866372,2030,0,2
1778660281.8678138,2001,0,2
1778660281.87318,2045,0,2
1778660281.873617,2161,0,2
1778660281.874903,1868,0,2
1778660281.878011,1873,0,2
1778660281.878448,2137,0,2
1778660281.8803232,2369,0,2
1778660281.88189,2148,0,2
1778660281.884115,1869,0,2
1778660281.8862028,1919,0,2
1778660281.888762,2048,0,2
1778660281.890052,2101,0,2
1778660281.894368,1849,0,2
1778660281.894822,1888,0,2
1778660281.8961768,2193,0,2
1778660281.89924,2304,0,2
1778660281.9009311,2059,0,2
1778660281.902669,2044,0,2
1778660281.904916,2025,0,2
1778660281.906951,2041,0,2
1778660281.90826,1892,0,2
1778660281.910818,2262,0,2
1778660281.91212,2260,0,2
1778660281.9146838,2320,0,2
1778660281.915977,2017,0,2
1778660281.933789,2058,0,2
1778660281.933874,2070,0,2
1778660281.9339058,2041,0,2
1778660281.933932,1877,0,2
1778660281.9339578,1887,0,2
1778660281.933986,2045,0,2
1778660281.934011,2460,0,2
1778660281.934038,2240,0,2
1778660281.9340649,2169,0,2
1778660281.937888,1965,0,2
1778660281.938024,2202,0,2
1778660281.9434218,2107,0,2
1778660281.944407,1958,0,2
1778660281.946112,2080,0,2
1778660281.946151,2105,0,2
1778660281.951751,2073,0,2
1778660281.952848,2112,0,2
1778660281.9550028,2144,0,2
1778660281.957551,2095,0,2
1778660281.957808,2111,0,2
1778660281.958307,1918,0,2
1778660281.9603572,2095,0,2
1778660281.961812,2228,0,2
1778660281.964282,2316,0,2
1778660281.966992,2188,0,2
1778660281.9683468,2042,0,2
1778660281.969866,1925,0,2
1778660281.975809,1963,0,2
1778660281.976987,1930,0,2
1778660281.9804091,1972,0,2
1778660281.982381,2121,0,2
1778660281.98307,2459,0,2
1778660281.984051,2271,0,2
1778660281.985876,1951,0,2
1778660281.988656,1991,0,2
1778660281.989088,1958,0,2
1778660281.9912078,1963,0,2
1778660281.992633,1778,0,2
1778660281.99405,2091,0,2
1778660282.000928,2244,0,2
1778660282.001904,2374,0,2
1778660282.003459,2300,0,2
1778660282.0053031,2077,0,2
1778660282.005904,2127,0,2
1778660282.00686,2091,0,2
1778660282.009793,1860,0,2
1778660282.010158,1974,0,2
1778660282.0152152,2177,0,2
1778660282.01531,2367,0,2
1778660282.016625,2053,0,2
1778660282.017983,2004,0,2
1778660282.0203671,2090,0,2
1778660282.021787,2031,0,2
1778660282.024713,1868,0,2
1778660282.0301912,2023,0,2
1778660282.030283,2236,0,2
1778660282.042281,2230,0,2
1778660282.044634,2413,0,2
1778660282.0448031,2251,0,2
1778660282.044878,1777,0,2
1778660282.044943,1961,0,2
1778660282.044991,2131,0,2
1778660282.045045,2062,0,2
1778660282.045093,1906,0,2
1778660282.046446,2205,0,2
1778660282.047808,2274,0,2
1778660282.053632,1884,0,2
1778660282.054612,1934,0,2
1778660282.057068,2003,0,2
1778660282.0594292,2114,0,2
1778660282.059942,2002,0,2
1778660282.061383,1944,0,2
1778660282.06379,2151,0,2
1778660282.066328,2427,0,2
1778660282.066894,2099,0,2
1778660282.068714,1995,0,2
1778660282.070115,2042,0,2
1778660282.072742,2263,0,2
1778660282.0740778,1997,0,2
1778660282.076722,1907,0,2
1778660282.078094,2091,0,2
1778660282.084646,2342,0,2
1778660282.085213,2098,0,2
1778660282.087629,2100,0,2
1778660282.090049,2035,0,2
1778660282.090692,1969,0,2
1778660282.09121,2129,0,2
1778660282.094433,1784,0,2
1778660282.095037,1950,0,2
1778660282.097245,2437,0,2
1778660282.099648,2115,0,2
1778660282.0999029,1941,0,2
1778660282.102557,2240,0,2
1778660282.109248,2503,0,2
1778660282.109759,1870,0,2
1778660282.11039,1495,0,2
1778660282.110945,2007,0,2
1778660282.114573,2626,0,2
1778660282.1157372,2371,0,2
1778660282.119073,1986,0,2
1778660282.119448,1853,0,2
1778660282.121921,1827,0,2
1778660282.122199,2086,0,2
1778660282.1247182,1776,0,2
1778660282.126163,1789,0,2
1778660282.1288772,1996,0,2
1778660282.130198,2353,0,2
1778660282.132802,2119,0,2
1778660282.134113,2020,0,2
1778660282.139101,2060,0,2
1778660282.139626,1900,0,2
1778660282.140486,1919,0,2
1778660282.142477,1798,0,2
1778660282.144436,2027,0,2
1778660282.146227,2014,0,2
1778660282.1479669,2416,0,2
1778660282.1502879,1830,0,2
1778660282.152617,1764,0,2
1778660282.153916,1890,0,2
1778660282.156485,2109,0,2
1778660282.161576,1882,0,2
1778660282.162349,1691,0,2
1778660282.16277,2109,0,2
1778660282.1654809,2288,0,2
1778660282.1674612,2234,0,2
1778660282.171504,1988,0,2
1778660282.171679,1622,0,2
1778660282.1719732,1956,0,2
1778660282.1748302,2045,0,2
1778660282.176121,2474,0,2
1778660282.1786711,1797,0,2
1778660282.179967,2448,0,2
1778660282.182527,2116,0,2
1778660282.1870878,1761,0,2
1778660282.187945,1911,0,2
1778660282.18917,2202,0,2
1778660282.1905122,1874,0,2
1778660282.193761,1642,0,2
1778660282.1945448,1871,0,2
1778660282.198596,2006,0,2
1778660282.198911,2156,0,2
1778660282.2011242,1992,0,2
1778660282.20245,2047,0,2
1778660282.2038221,2200,0,2
1778660282.2102232,2063,0,2
1778660282.210737,1788,0,2
1778660282.21123,2015,0,2
1778660282.2128031,1759,0,2
1778660282.214721,2236,0,2
1778660282.2179468,1800,0,2
1778660282.218074,1662,0,2
1778660282.2206452,2240,0,2
1778660282.2222779,2310,0,2
1778660282.224056,1757,0,2
1778660282.2266161,1744,0,2
1778660282.2279198,2158,0,2
1778660282.2304928,2422,0,2
1778660282.231808,1975,0,2
1778660282.236313,2194,0,2
1778660282.237165,1850,0,2
1778660282.239089,1979,0,2
1778660282.2410629,2270,0,2
1778660282.243131,1512,0,2
1778660282.246989,1739,0,2
1778660282.247453,2089,0,2
1778660282.2497978,2321,0,2
1778660282.249894,1962,0,2
1778660282.252578,1759,0,2
1778660282.254223,1865,0,2
1778660282.258406,2360,0,2
1778660282.2589629,1600,0,2
1778660282.260451,1581,0,2
1778660282.263595,1797,0,2
1778660282.2679732,2421,0,2
1778660282.270894,2042,0,2
1778660282.271487,2216,0,2
1778660282.2718248,1450,0,2
1778660282.273532,1803,0,2
1778660282.2749372,1543,0,2
1778660282.2763221,1753,0,2
1778660282.2789571,2034,0,2
1778660282.2803469,2404,0,2
1778660282.281995,2073,0,2
1778660282.288995,1748,0,2
1778660282.290006,1867,0,2
1778660282.292027,2008,0,2
1778660282.2939599,1834,0,2
1778660282.294948,1897,0,2
1778660282.295454,1928,0,2
1778660282.296923,2136,0,2
1778660282.298479,1901,0,2
1778660282.301288,2115,0,2
1778660282.303203,1960,0,2
1778660282.304567,1956,0,2
1778660282.305957,2159,0,2
1778660282.3084931,1793,0,2
1778660282.314045,1944,0,2
1778660282.315794,1985,0,2
1778660282.315995,2155,0,2
1778660282.316282,2377,0,2
1778660282.319457,1986,0,2
1778660282.3220348,1523,0,2
1778660282.324905,1939,0,2
1778660282.32513,1957,0,2
1778660282.327368,1762,0,2
1778660282.3287659,2063,0,2
1778660282.330108,2294,0,2
1778660282.332611,2180,0,2
1778660282.333951,2120,0,2
1778660282.336579,2026,0,2
1778660282.3419452,1961,0,2
1778660282.343206,1798,0,2
1778660282.344636,1798,0,2
1778660282.3447711,2010,0,2
1778660282.3467572,2270,0,2
1778660282.350364,2465,0,2
1778660282.350647,1780,0,2
1778660282.3533719,1714,0,2
1778660282.355702,2098,0,2
1778660282.355841,1970,0,2
1778660282.3585012,2092,0,2
1778660282.359909,1783,0,2
1778660282.3652759,2210,0,2
1778660282.3658519,2313,0,2
1778660282.366336,1952,0,2
1778660282.3690581,2150,0,2
1778660282.371281,1691,0,2
1778660282.373538,1962,0,2
1778660282.376464,1911,0,2
1778660282.376877,1809,0,2
1778660282.378552,1902,0,2
1778660282.3799229,2304,0,2
1778660282.383008,2187,0,2
1778660282.3856902,2144,0,2
1778660282.385833,2075,0,2
1778660282.389547,1941,0,2
1778660282.401717,2096,0,2
1778660282.4372249,1935,0,2
1778660282.437332,1911,0,2
1778660282.437386,2274,0,2
1778660282.4374342,2297,0,2
1778660282.437481,2080,0,2
1778660282.437527,2025,0,2
1778660282.43767,1909,0,2
1778660282.437738,1939,0,2
1778660282.437811,2092,0,2
1778660282.437852,1693,0,2
1778660282.437881,1893,0,2
1778660282.43791,2805,0,2
1778660282.4379368,2193,0,2
1778660282.438039,1890,0,2
1778660282.4381928,1713,0,2
1778660282.438314,2562,0,2
1778660282.4383638,2142,0,2
1778660282.438412,1753,0,2
1778660282.4384599,2011,0,2
1778660282.438506,2320,0,2
1778660282.438551,2226,0,2
1778660282.4385972,2064,0,2
1778660282.438643,1896,0,2
1778660282.43869,2028,0,2
1778660282.440396,2062,0,2
1778660282.4426858,1836,0,2
1778660282.465,2020,0,2
1778660282.465051,2312,0,2
1778660282.465081,2559,0,2
1778660282.465108,2012,0,2
1778660282.4651341,1889,0,2
1778660282.46516,1898,0,2
1778660282.465185,2184,0,2
1778660282.465211,1976,0,2
1778660282.465236,1897,0,2
1778660282.4652622,2129,0,2
1778660282.465287,2263,0,2
1778660282.466623,2102,0,2
1778660282.487914,1985,0,2
1778660282.48846,1959,0,2
1778660282.490751,2153,0,2
1778660282.490849,2104,0,2
1778660282.4910169,1764,0,2
1778660282.491155,2076,0,2
1778660282.491232,2235,0,2
1778660282.491369,2205,0,2
1778660282.4914958,2235,0,2
1778660282.491576,1967,0,2
1778660282.491719,1986,0,2
1778660282.491783,2170,0,2
1778660282.4918358,2111,0,2
1778660282.494424,2012,0,2
1778660282.496855,2074,0,2
1778660282.4982011,2623,0,2
1778660282.505779,1927,0,2
1778660282.506794,1721,0,2
1778660282.507364,1878,0,2
1778660282.5087628,2193,0,2
1778660282.508998,2029,0,2
1778660282.510981,1888,0,2
1778660282.512671,2075,0,2
1778660282.514601,2337,0,2
1778660282.517212,2375,0,2
1778660282.5195909,2140,0,2
1778660282.521239,2126,0,2
1778660282.5225952,2250,0,2
1778660282.5284889,1998,0,2
1778660282.529707,1770,0,2
1778660282.5327308,2054,0,2
1778660282.534989,2518,0,2
1778660282.5354319,2437,0,2
1778660282.540093,1980,0,2
1778660282.542304,1862,0,2
1778660282.542412,2105,0,2
1778660282.542445,2058,0,2
1778660282.5425138,2004,0,2
1778660282.543871,2092,0,2
1778660282.546423,1985,0,2
1778660282.547818,2348,0,2
1778660282.5504682,1968,0,2
1778660282.5518222,2121,0,2
1778660282.557442,1955,0,2
1778660282.557974,2059,0,2
1778660282.558538,1915,0,2
1778660282.563576,1917,0,2
1778660282.563812,2092,0,2
1778660282.565402,2412,0,2
1778660282.569699,2196,0,2
1778660282.570094,2025,0,2
1778660282.570231,1999,0,2
1778660282.572706,2087,0,2
1778660282.5741062,1982,0,2
1778660282.576776,1921,0,2
1778660282.581999,2048,0,2
1778660282.584276,2311,0,2
1778660282.584565,2246,0,2
1778660282.584657,2114,0,2
1778660282.5867531,2006,0,2
1778660282.590736,2087,0,2
1778660282.593724,2144,0,2
1778660282.59411,1837,0,2
1778660282.594346,1913,0,2
1778660282.5966668,2230,0,2
1778660282.5980768,2326,0,2
1778660282.600724,2096,0,2
1778660282.601977,1987,0,2
1778660282.604479,2003,0,2
1778660282.605917,2100,0,2
1778660282.611809,1932,0,2
1778660282.6127539,1993,0,2
1778660282.61333,2224,0,2
1778660282.6147509,2418,0,2
1778660282.616986,2203,0,2
1778660282.619317,2039,0,2
1778660282.621057,2023,0,2
1778660282.624195,2101,0,2
1778660282.624459,2065,0,2
1778660282.6268952,1955,0,2
1778660282.628319,2125,0,2
1778660282.63099,2395,0,2
1778660282.6381881,2342,0,2
1778660282.6396,2137,0,2
1778660282.639769,2096,0,2
1778660282.6400561,2146,0,2
1778660282.641453,2087,0,2
1778660282.6442208,1883,0,2
1778660282.6462562,2016,0,2
1778660282.64916,2354,0,2
1778660282.649496,2478,0,2
1778660282.651793,2183,0,2
1778660282.651913,2038,0,2
1778660282.654473,2079,0,2
1778660282.6558669,2182,0,2
1778660282.659059,2006,0,2
1778660282.6604002,2022,0,2
1778660282.66193,2218,0,2
1778660282.667938,2423,0,2
1778660282.668465,2223,0,2
1778660282.670169,2082,0,2
1778660282.67041,2026,0,2
1778660282.672916,2160,0,2
1778660282.674886,2095,0,2
1778660282.6764858,1971,0,2
1778660282.679469,2112,0,2
1778660282.681715,2281,0,2
1778660282.682005,2221,0,2
1778660282.6858659,2085,0,2
1778660282.6862452,2108,0,2
1778660282.691912,2192,0,2
1778660282.6924129,2003,0,2
1778660282.6925929,1878,0,2
1778660282.696147,2018,0,2
1778660282.700203,2339,0,2
1778660282.702864,2419,0,2
1778660282.703118,2152,0,2
1778660282.705594,1965,0,2
1778660282.705775,2039,0,2
1778660282.705919,2007,0,2
1778660282.708566,1885,0,2
1778660282.709928,2032,0,2
1778660282.712563,2229,0,2
1778660282.713956,2360,0,2
1778660282.72051,2185,0,2
1778660282.721098,2165,0,2
1778660282.7216299,2126,0,2
1778660282.7221482,2249,0,2
1778660282.7265978,2074,0,2
1778660282.7275891,1938,0,2
1778660282.7299771,2076,0,2
1778660282.732882,2349,0,2
1778660282.733382,2215,0,2
1778660282.735749,2064,0,2
1778660282.735876,1963,0,2
1778660282.7385159,2051,0,2
1778660282.7398322,2124,0,2
1778660282.7450922,1974,0,2
1778660282.745963,2034,0,2
1778660282.746048,2260,0,2
1778660282.749124,2360,0,2
1778660282.7508512,2123,0,2
1778660282.752806,2013,0,2
1778660282.75542,1990,0,2
1778660282.757401,2058,0,2
1778660282.758699,1885,0,2
1778660282.759989,1918,0,2
1778660282.7625651,2159,0,2
1778660282.7638762,2436,0,2
1778660282.766465,2203,0,2
1778660282.770872,2067,0,2
1778660282.771307,2040,0,2
1778660282.773397,2175,0,2
1778660282.775373,2105,0,2
1778660282.7773938,2000,0,2
1778660282.778827,2142,0,2
1778660282.781406,2360,0,2
1778660282.7834291,2301,0,2
1778660282.784728,2098,0,2
1778660282.7860239,2014,0,2
1778660282.791649,2127,0,2
1778660282.7920709,2135,0,2
1778660282.7921438,1975,0,2
1778660282.794228,2055,0,2
1778660282.7965078,2395,0,2
1778660282.798165,2507,0,2
1778660282.802001,2185,0,2
1778660282.802102,2141,0,2
1778660282.804157,2227,0,2
1778660282.806717,2338,0,2
1778660282.8080158,2062,0,2
1778660282.810583,1988,0,2
1778660282.811876,2205,0,2
1778660282.817377,2492,0,2
1778660282.818212,2319,0,2
1778660282.818617,2142,0,2
1778660282.820152,2044,0,2
1778660282.8237572,2144,0,2
1778660282.82513,2094,0,2
1778660282.827542,1993,0,2
1778660282.82958,2041,0,2
1778660282.8308768,2316,0,2
1778660282.83217,2370,0,2
1778660282.837176,2129,0,2
1778660282.83824,2185,0,2
1778660282.839704,2269,0,2
1778660282.839945,2173,0,2
1778660282.843321,2064,0,2
1778660282.8468192,2140,0,2
1778660282.8469582,2346,0,2
1778660282.848779,2467,0,2
1778660282.850087,2212,0,2
1778660282.852635,2090,0,2
1778660282.853945,1968,0,2
1778660282.8565,1995,0,2
1778660282.861481,1870,0,2
1778660282.861563,2014,0,2
1778660282.86359,2134,0,2
1778660282.8657038,2351,0,2
1778660282.866147,2190,0,2
1778660282.8686268,2079,0,2
1778660282.8710332,2070,0,2
1778660282.872618,2135,0,2
1778660282.873916,2119,0,2
1778660282.876467,1877,0,2
1778660282.877834,2056,0,2
1778660282.880386,2326,0,2
1778660282.885537,2291,0,2
1778660282.886233,2082,0,2
1778660282.8865721,1860,0,2
1778660282.888095,1961,0,2
1778660282.890971,1964,0,2
1778660282.89282,1843,0,2
1778660282.895215,1920,0,2
1778660282.897155,2303,0,2
1778660282.898452,2524,0,2
1778660282.8998241,2253,0,2
1778660282.902412,1958,0,2
1778660282.903827,2186,0,2
1778660282.906377,2139,0,2
1778660282.910251,1972,0,2
1778660282.911017,2034,0,2
1778660282.9127638,2065,0,2
1778660282.9145632,2322,0,2
1778660282.916398,2116,0,2
1778660282.920034,1973,0,2
1778660282.920128,1882,0,2
1778660282.922855,2075,0,2
1778660282.924143,2058,0,2
1778660282.926687,1914,0,2
1778660282.92797,2054,0,2
1778660282.9305751,2350,0,2
1778660282.934249,2287,0,2
1778660282.9349818,2081,0,2
1778660282.93682,2045,0,2
1778660282.938899,2124,0,2
1778660282.941568,2123,0,2
1778660282.9439528,1895,0,2
1778660282.944063,2062,0,2
1778660282.946771,2294,0,2
1778660282.948064,2390,0,2
1778660282.950614,2187,0,2
1778660282.9519,2007,0,2
1778660282.954444,2154,0,2
1778660282.9586492,2261,0,2
1778660282.9590101,2062,0,2
1778660282.9611,2118,0,2
1778660282.962443,2227,0,2
1778660282.9639392,2505,0,2
1778660282.968056,2272,0,2
1778660282.96832,2163,0,2
1778660282.9709032,1963,0,2
1778660282.972193,2202,0,2
1778660282.974738,2093,0,2
1778660282.976023,2020,0,2
1778660282.9817212,2259,0,2
1778660282.9823732,2409,0,2
1778660282.982812,2349,0,2
1778660282.984203,2241,0,2
1778660282.98603,2079,0,2
1778660282.990655,2248,0,2
1778660282.990792,2164,0,2
1778660282.99231,2007,0,2
1778660282.994699,2077,0,2
1778660282.9959822,2275,0,2
1778660282.998546,2422,0,2
1778660282.9998348,2240,0,2
1778660283.004833,2093,0,2
1778660283.005166,2068,0,2
1778660283.007373,2215,0,2
1778660283.009067,2069,0,2
1778660283.011916,1971,0,2
1778660283.012021,2148,0,2
1778660283.0144691,2454,0,2
1778660283.016203,2228,0,2
1778660283.0189152,2088,0,2
1778660283.020111,2006,0,2
1778660283.022659,2146,0,2
1778660283.023944,2062,0,2
1778660283.0297332,1839,0,2
1778660283.031136,2004,0,2
1778660283.031199,2289,0,2
1778660283.0328739,2348,0,2
1778660283.034382,2136,0,2
1778660283.038096,2037,0,2
1778660283.0382159,2091,0,2
1778660283.0408971,2120,0,2
1778660283.042206,1995,0,2
1778660283.0447612,1897,0,2
1778660283.046052,2163,0,2
1778660283.048595,2397,0,2
1778660283.052429,2217,0,2
1778660283.052514,2114,0,2
1778660283.054751,2015,0,2
1778660283.056331,2038,0,2
1778660283.058159,1913,0,2
1778660283.0615869,1918,0,2
1778660283.063138,2088,0,2
1778660283.064437,2275,0,2
1778660283.065813,2139,0,2
1778660283.0682619,1947,0,2
1778660283.071009,1999,0,2
1778660283.072299,1984,0,2
1778660283.0768352,1808,0,2
1778660283.077204,1901,0,2
1778660283.079092,2062,0,2
1778660283.080601,2245,0,2
1778660283.08347,2145,0,2
1778660283.0857432,1898,0,2
1778660283.085838,1956,0,2
1778660283.088587,1910,0,2
1778660283.089887,1970,0,2
1778660283.0924292,1852,0,2
1778660283.093788,1866,0,2
1778660283.0962958,2092,0,2
1778660283.1000352,2213,0,2
1778660283.1000881,1975,0,2
1778660283.102005,1931,0,2
1778660283.1047528,1950,0,2
1778660283.106592,2086,0,2
1778660283.108974,1865,0,2
1778660283.110732,1833,0,2
1778660283.112023,2097,0,2
1778660283.114582,2292,0,2
1778660283.115871,2080,0,2
1778660283.118422,1997,0,2
1778660283.122551,1903,0,2
1778660283.122916,1947,0,2
1778660283.125835,1970,0,2
1778660283.1265368,1801,0,2
1778660283.12902,2054,0,2
1778660283.1312928,2156,0,2
1778660283.133128,2122,0,2
1778660283.1344168,1973,0,2
1778660283.135817,1786,0,2
1778660283.138378,1925,0,2
1778660283.140967,1964,0,2
1778660283.146262,1904,0,2
1778660283.146302,1921,0,2
1778660283.1474812,2187,0,2
1778660283.1494012,2365,0,2
1778660283.154019,2061,0,2
1778660283.154159,1960,0,2
1778660283.154422,1911,0,2
1778660283.156181,2052,0,2
1778660283.158732,1874,0,2
1778660283.160017,1834,0,2
1778660283.162566,1964,0,2
1778660283.163855,2286,0,2
1778660283.1676009,2115,0,2
1778660283.169611,1986,0,2
1778660283.1715782,1960,0,2
1778660283.1729228,2009,0,2
1778660283.176212,1972,0,2
1778660283.176352,1838,0,2
1778660283.178061,1955,0,2
1778660283.180674,2226,0,2
1778660283.181964,2237,0,2
1778660283.184509,2037,0,2
1778660283.1858308,1936,0,2
1778660283.189804,2000,0,2
1778660283.1907551,2020,0,2
1778660283.1921978,1887,0,2
1778660283.195286,1894,0,2
1778660283.1985972,2137,0,2
1778660283.198771,2353,0,2
1778660283.200143,2055,0,2
1778660283.202762,1975,0,2
1778660283.204087,1981,0,2
1778660283.206655,2084,0,2
1778660283.207948,1936,0,2
1778660283.213281,1856,0,2
1778660283.213879,2039,0,2
1778660283.214943,2298,0,2
1778660283.216973,2145,0,2
1778660283.21963,1964,0,2
1778660283.221696,1878,0,2
1778660283.221885,2026,0,2
1778660283.224533,1983,0,2
1778660283.2258298,1906,0,2
1778660283.228132,1994,0,2
1778660283.230687,2213,0,2
1778660283.235203,2187,0,2
1778660283.235283,2029,0,2
1778660283.2374022,1994,0,2
1778660283.239211,2031,0,2
1778660283.241767,2015,0,2
1778660283.241864,1812,0,2
1778660283.243946,1891,0,2
1778660283.246672,2133,0,2
1778660283.24796,2301,0,2
1778660283.250508,2025,0,2
1778660283.251808,1984,0,2
1778660283.257479,1954,0,2
1778660283.258707,2011,0,2
1778660283.2597802,1893,0,2
1778660283.259871,1826,0,2
1778660283.264074,2090,0,2
1778660283.2641568,2361,0,2
1778660283.266169,2156,0,2
1778660283.268786,1964,0,2
1778660283.270085,1895,0,2
1778660283.272628,2030,0,2
1778660283.27391,2000,0,2
1778660283.2793071,1862,0,2
1778660283.2793999,2044,0,2
1778660283.281471,2251,0,2
1778660283.28304,2252,0,2
1778660283.284651,2098,0,2
1778660283.2876768,2041,0,2
1778660283.289542,2026,0,2
1778660283.290833,2032,0,2
1778660283.292129,1836,0,2
1778660283.294683,1889,0,2
1778660283.295827,2116,0,2
1778660283.301462,2301,0,2
1778660283.301559,2072,0,2
1778660283.303806,1998,0,2
1778660283.303956,1964,0,2
1778660283.307255,2090,0,2
1778660283.310304,2001,0,2
1778660283.3117702,1942,0,2
1778660283.312326,2023,0,2
1778660283.314924,2286,0,2
1778660283.3162482,2126,0,2
1778660283.318801,2059,0,2
1778660283.3200939,1964,0,2
1778660283.3240309,2068,0,2
1778660283.324436,2024,0,2
1778660283.3264189,1860,0,2
1778660283.3280692,1991,0,2
1778660283.332744,2232,0,2
1778660283.333001,2262,0,2
1778660283.334836,2109,0,2
1778660283.336031,2057,0,2
1778660283.3385978,2012,0,2
1778660283.339926,2041,0,2
1778660283.342489,1884,0,2
1778660283.3478558,1944,0,2
1778660283.347939,2160,0,2
1778660283.348016,2393,0,2
1778660283.350035,2134,0,2
1778660283.353278,1972,0,2
1778660283.356444,1953,0,2
1778660283.356556,2075,0,2
1778660283.3582668,1996,0,2
1778660283.360848,1912,0,2
1778660283.362147,2087,0,2
1778660283.364699,2284,0,2
1778660283.365988,2227,0,2
1778660283.371094,2039,0,2
1778660283.371454,1901,0,2
1778660283.3744938,2090,0,2
1778660283.374597,2026,0,2
1778660283.3769128,1845,0,2
1778660283.378765,2009,0,2
1778660283.380547,2239,0,2
1778660283.381836,2288,0,2
1778660283.384397,2118,0,2
1778660283.386971,1979,0,2
1778660283.388329,2038,0,2
1778660283.391474,2012,0,2
1778660283.393617,1825,0,2
1778660283.395155,1852,0,2
1778660283.396755,2143,0,2
1778660283.399637,2377,0,2
1778660283.401027,2086,0,2
1778660283.4023428,1968,0,2
1778660283.404895,1977,0,2
1778660283.406183,2109,0,2
1778660283.4087229,2008,0,2
1778660283.413008,1925,0,2
1778660283.413672,2059,0,2
1778660283.4163232,2283,0,2
1778660283.4166772,2186,0,2
1778660283.419223,2042,0,2
1778660283.421298,1988,0,2
1778660283.422957,2100,0,2
1778660283.4242449,2040,0,2
1778660283.426729,1875,0,2
1778660283.428019,2015,0,2
1778660283.43056,2256,0,2
1778660283.4344141,2246,0,2
1778660283.434736,2064,0,2
1778660283.436353,1986,0,2
1778660283.43831,2008,0,2
1778660283.4424288,2045,0,2
1778660283.442534,1909,0,2
1778660283.4439301,1993,0,2
1778660283.446481,2171,0,2
1778660283.4479418,2352,0,2
1778660283.450486,2086,0,2
1778660283.451823,2026,0,2
1778660283.456585,2002,0,2
1778660283.457254,2043,0,2
1778660283.4592268,1930,0,2
1778660283.460791,1911,0,2
1778660283.4643352,2095,0,2
1778660283.464522,2327,0,2
1778660283.466151,2216,0,2
1778660283.4688551,2092,0,2
1778660283.4701388,1983,0,2
1778660283.472685,2073,0,2
1778660283.4739761,2045,0,2
1778660283.477705,1870,0,2
1778660283.478615,1976,0,2
1778660283.4811,2195,0,2
1778660283.4827561,2281,0,2
1778660283.484115,2034,0,2
1778660283.486061,1938,0,2
1778660283.4886231,1994,0,2
1778660283.489913,2044,0,2
1778660283.492467,1930,0,2
1778660283.493819,1964,0,2
1778660283.4996321,2188,0,2
1778660283.499702,2361,0,2
1778660283.500994,2106,0,2
1778660283.502351,2060,0,2
1778660283.504245,1988,0,2
1778660283.507168,2074,0,2
1778660283.5089548,1940,0,2
1778660283.510257,1882,0,2
1778660283.51282,2036,0,2
1778660283.5141098,2279,0,2
1778660283.516578,2146,0,2
1778660283.5210571,1994,0,2
1778660283.521355,1952,0,2
1778660283.523905,2043,0,2
1778660283.524,2004,0,2
1778660283.528434,1848,0,2
1778660283.5287302,1947,0,2
1778660283.530407,2212,0,2
1778660283.5317938,2266,0,2
1778660283.534354,2083,0,2
1778660283.536909,1955,0,2
1778660283.5381818,1923,0,2
1778660283.5414028,2013,0,2
1778660283.543436,1870,0,2
1778660283.545263,1928,0,2
1778660283.547664,2134,0,2
1778660283.5495949,2306,0,2
1778660283.550977,2077,0,2
1778660283.552268,1949,0,2
1778660283.5548139,1958,0,2
1778660283.556119,2055,0,2
1778660283.5586638,1912,0,2
1778660283.563429,1807,0,2
1778660283.565024,2006,0,2
1778660283.5650969,2279,0,2
1778660283.566613,2166,0,2
1778660283.569292,2041,0,2
1778660283.57131,1937,0,2
1778660283.5729349,1938,0,2
1778660283.574222,1892,0,2
1778660283.576766,1801,0,2
1778660283.578049,2000,0,2
1778660283.5807,2194,0,2
1778660283.584578,2138,0,2
1778660283.5849369,2011,0,2
1778660283.588095,1953,0,2
1778660283.5884411,2101,0,2
1778660283.590621,2086,0,2
1778660283.592438,1946,0,2
1778660283.5941389,1768,0,2
1778660283.596689,2086,0,2
1778660283.597976,2379,0,2
1778660283.600527,2248,0,2
1778660283.601824,1943,0,2
1778660283.6055691,1883,0,2
1778660283.607593,2048,0,2
1778660283.610025,1926,0,2
1778660283.6109152,1685,0,2
1778660283.613791,2051,0,2
1778660283.613881,2372,0,2
1778660283.616467,2466,0,2
1778660283.617822,2203,0,2
1778660283.620382,2024,0,2
1778660283.6231291,2210,0,2
1778660283.626379,2084,0,2
1778660283.626733,1863,0,2
1778660283.628632,1815,0,2
1778660283.6301792,1444,0,2
1778660283.634552,1817,0,2
1778660283.634758,2031,0,2
1778660283.636477,2327,0,2
1778660283.637824,2187,0,2
1778660283.64037,2061,0,2
1778660283.64292,2009,0,2
1778660283.6443572,2371,0,2
1778660283.647634,2598,0,2
1778660283.6496892,2491,0,2
1778660283.651065,2120,0,2
1778660283.652637,1964,0,2
1778660283.655957,1771,0,2
1778660283.656099,1909,0,2
1778660283.657818,1913,0,2
1778660283.660366,1863,0,2
1778660283.6629262,1772,0,2
1778660283.664216,2424,0,2
1778660283.669228,2470,0,2
1778660283.670143,2131,0,2
1778660283.671075,1951,0,2
1778660283.672572,1999,0,2
1778660283.6750479,1916,0,2
1778660283.676832,1936,0,2
1778660283.6784441,2032,0,2
1778660283.679817,2231,0,2
1778660283.68237,2301,0,2
1778660283.6849658,2062,0,2
1778660283.6862478,1834,0,2
1778660283.689833,1891,0,2
1778660283.693216,1878,0,2
1778660283.693538,1931,0,2
1778660283.696241,2080,0,2
1778660283.696374,2285,0,2
1778660283.6983092,2401,0,2
1778660283.700904,2113,0,2
1778660283.7022011,1981,0,2
1778660283.704735,1967,0,2
1778660283.706018,2083,0,2
1778660283.71124,1985,0,2
1778660283.7118678,1853,0,2
1778660283.71193,2061,0,2
1778660283.714648,2282,0,2
1778660283.7162821,2218,0,2
1778660283.719523,2070,0,2
1778660283.7210612,1964,0,2
1778660283.7223492,2038,0,2
1778660283.7249012,2035,0,2
1778660283.7260852,1909,0,2
1778660283.728642,1981,0,2
1778660283.732367,2209,0,2
1778660283.733056,2278,0,2
1778660283.734535,2065,0,2
1778660283.7366111,1973,0,2
1778660283.738945,2002,0,2
1778660283.740853,2065,0,2
1778660283.742572,1887,0,2
1778660283.743859,1926,0,2
1778660283.746408,2141,0,2
1778660283.7478132,2337,0,2
1778660283.753275,2103,0,2
1778660283.753335,1995,0,2
1778660283.755287,1985,0,2
1778660283.757067,2125,0,2
1778660283.7611709,2010,0,2
1778660283.761317,1911,0,2
1778660283.762936,2083,0,2
1778660283.7642298,2292,0,2
1778660283.7668831,2229,0,2
1778660283.768265,2070,0,2
1778660283.7708092,1968,0,2
1778660283.7749279,2076,0,2
1778660283.775233,2009,0,2
1778660283.777067,1822,0,2
1778660283.778738,1991,0,2
1778660283.781031,2219,0,2
1778660283.7829142,2273,0,2
1778660283.784499,2091,0,2
1778660283.785826,1980,0,2
1778660283.788378,2023,0,2
1778660283.790931,2155,0,2
1778660283.792133,2003,0,2
1778660283.7954419,2011,0,2
1778660283.797729,2201,0,2
1778660283.79911,2397,0,2
1778660283.80101,1964,0,2
1778660283.803925,1888,0,2
1778660283.804016,1961,0,2
1778660283.8067698,2167,0,2
1778660283.808068,2126,0,2
1778660283.810611,1946,0,2
1778660283.811892,2124,0,2
1778660283.816208,2372,0,2
1778660283.816843,2337,0,2
1778660283.8183239,2207,0,2
1778660283.819857,2036,0,2
1778660283.824215,1996,0,2
1778660283.8243892,1953,0,2
1778660283.826101,1819,0,2
1778660283.82865,1920,0,2
1778660283.829946,2164,0,2
1778660283.83233,2302,0,2
1778660283.8372831,2116,0,2
1778660283.837366,2069,0,2
1778660283.839534,1949,0,2
1778660283.841103,1977,0,2
1778660283.84261,1895,0,2
1778660283.845571,1936,0,2
1778660283.847129,2157,0,2
1778660283.848427,2384,0,2
1778660283.849788,1804,0,2
1778660283.8523362,1782,0,2
1778660283.8548968,1972,0,2
1778660283.858235,2192,0,2
1778660283.859138,2346,0,2
1778660283.8617852,1980,0,2
1778660283.8620958,2003,0,2
1778660283.866231,2453,0,2
1778660283.866397,2335,0,2
1778660283.868045,2200,0,2
1778660283.8706088,2022,0,2
1778660283.871901,1963,0,2
1778660283.874445,1964,0,2
1778660283.8757849,1748,0,2
1778660283.8793979,1932,0,2
1778660283.8812978,2128,0,2
1778660283.883059,2187,0,2
1778660283.885492,2073,0,2
1778660283.888855,2086,0,2
1778660283.8889768,2079,0,2
1778660283.8902662,1989,0,2
1778660283.892748,1855,0,2
1778660283.894037,1914,0,2
1778660283.896611,2296,0,2
1778660283.899646,2349,0,2
1778660283.902744,2104,0,2
1778660283.903044,2107,0,2
1778660283.9045272,2072,0,2
1778660283.907565,2005,0,2
1778660283.909338,1899,0,2
1778660283.910622,1821,0,2
1778660283.911906,2022,0,2
1778660283.914447,2351,0,2
1778660283.9158158,2397,0,2
1778660283.921005,2027,0,2
1778660283.9210649,1950,0,2
1778660283.9225469,2101,0,2
1778660283.923925,2082,0,2
1778660283.928148,1883,0,2
1778660283.928226,1925,0,2
1778660283.930838,2131,0,2
1778660283.9321222,2146,0,2
1778660283.934669,2140,0,2
1778660283.93595,2023,0,2
1778660283.941155,2037,0,2
1778660283.9412339,2301,0,2
1778660283.943851,2146,0,2
1778660283.9441779,1880,0,2
1778660283.9484348,2155,0,2
1778660283.9485161,2461,0,2
1778660283.950144,2160,0,2
1778660283.9526982,2106,0,2
1778660283.953985,2083,0,2
1778660283.956532,2063,0,2
1778660283.961514,2033,0,2
1778660283.962115,1941,0,2
1778660283.962195,2115,0,2
1778660283.964354,2346,0,2
1778660283.966227,2297,0,2
1778660283.9690711,2185,0,2
1778660283.970746,2076,0,2
1778660283.972043,2209,0,2
1778660283.974596,2102,0,2
1778660283.9758852,1884,0,2
1778660283.978425,2043,0,2
1778660283.981508,2192,0,2
1778660283.983713,2351,0,2
1778660283.9852679,2192,0,2
1778660283.9868622,2004,0,2
1778660283.989784,2098,0,2
1778660283.9898298,2113,0,2
1778660283.992513,1901,0,2
1778660283.99383,2034,0,2
1778660283.996379,2219,0,2
1778660283.998942,2390,0,2
1778660284.002123,2277,0,2
1778660284.002485,2181,0,2
1778660284.00416,2077,0,2
1778660284.006995,2077,0,2
1778660284.00979,2112,0,2
1778660284.009939,2054,0,2
1778660284.012793,2068,0,2
1778660284.0140889,2220,0,2
1778660284.016642,2261,0,2
1778660284.017931,2011,0,2
1778660284.023654,2012,0,2
1778660284.025262,1976,0,2
1778660284.025446,2078,0,2
1778660284.02747,2003,0,2
1778660284.0296168,2058,0,2
1778660284.031492,2249,0,2
1778660284.033153,2332,0,2
1778660284.034452,2546,0,2
1778660284.035798,2110,0,2
1778660284.03835,1757,0,2
1778660284.040807,1914,0,2
1778660284.0451589,1658,0,2
1778660284.0460958,1855,0,2
1778660284.046165,2144,0,2
1778660284.048722,2294,0,2
1778660284.050176,2113,0,2
1778660284.053281,1987,0,2
1778660284.05501,2066,0,2
1778660284.056299,2324,0,2
1778660284.0588539,2157,0,2
1778660284.060143,1991,0,2
1778660284.0626922,2001,0,2
1778660284.066368,2202,0,2
1778660284.066952,2168,0,2
1778660284.068515,1909,0,2
1778660284.0703669,1837,0,2
1778660284.072809,1988,0,2
1778660284.074694,2204,0,2
1778660284.0763059,1909,0,2
1778660284.078849,1842,0,2
1778660284.0801349,2061,0,2
1778660284.082678,2559,0,2
1778660284.083963,2257,0,2
1778660284.0872629,2037,0,2
1778660284.089161,1899,0,2
1778660284.091326,2361,0,2
1778660284.0951371,1865,0,2
1778660284.095216,2212,0,2
1778660284.0965881,2004,0,2
1778660284.097884,1931,0,2
1778660284.100426,2132,0,2
1778660284.101811,1978,0,2
1778660284.104367,2056,0,2
1778660284.108074,2079,0,2
1778660284.108685,1866,0,2
1778660284.110262,1740,0,2
1778660284.1140978,2208,0,2
1778660284.114281,2662,0,2
1778660284.116056,2352,0,2
1778660284.118625,2216,0,2
1778660284.1199071,1970,0,2
1778660284.122447,1954,0,2
1778660284.1238542,2120,0,2
1778660284.12886,1854,0,2
1778660284.12949,1945,0,2
1778660284.1310341,2366,0,2
1778660284.132761,2323,0,2
1778660284.1350331,2176,0,2
1778660284.136905,1936,0,2
1778660284.1385138,2011,0,2
1778660284.139833,2244,0,2
1778660284.142132,2134,0,2
1778660284.144674,1715,0,2
1778660284.145956,2106,0,2
1778660284.149954,2375,0,2
1778660284.1506078,2219,0,2
1778660284.152031,2315,0,2
1778660284.154815,2256,0,2
1778660284.157963,1971,0,2
1778660284.1580749,1883,0,2
1778660284.1606421,1830,0,2
1778660284.16193,2294,0,2
1778660284.164484,2548,0,2
1778660284.165819,2168,0,2
1778660284.171288,2238,0,2
1778660284.171865,2131,0,2
1778660284.172235,2123,0,2
1778660284.174944,2113,0,2
1778660284.177213,2286,0,2
1778660284.179156,2368,0,2
1778660284.180696,2134,0,2
1778660284.182016,2496,0,2
1778660284.18468,2339,0,2
1778660284.185966,2149,0,2
1778660284.18846,2020,0,2
1778660284.191697,2096,0,2
1778660284.1920378,1848,0,2
1778660284.193836,2029,0,2
1778660284.197851,2578,0,2
1778660284.197889,2337,0,2
1778660284.201052,1887,0,2
1778660284.202345,2081,0,2
1778660284.204888,2017,0,2
1778660284.2061682,2275,0,2
1778660284.2087061,1786,0,2
1778660284.2134242,2018,0,2
1778660284.214612,1897,0,2
1778660284.214804,2008,0,2
1778660284.216253,2141,0,2
1778660284.218946,2201,0,2
1778660284.2210062,1907,0,2
1778660284.222708,2000,0,2
1778660284.223999,2160,0,2
1778660284.22654,2079,0,2
1778660284.227822,1909,0,2
1778660284.230365,2464,0,2
1778660284.23369,2411,0,2
1778660284.234297,1949,0,2
1778660284.2374241,1942,0,2
1778660284.239899,1885,0,2
1778660284.241845,1849,0,2
1778660284.241911,1943,0,2
1778660284.2445061,1729,0,2
1778660284.2458181,2018,0,2
1778660284.24838,2295,0,2
1778660284.2509599,2232,0,2
1778660284.254409,2074,0,2
1778660284.255051,1935,0,2
1778660284.256871,2283,0,2
1778660284.2588558,1999,0,2
1778660284.2610052,1757,0,2
1778660284.262896,1768,0,2
1778660284.2646039,2149,0,2
1778660284.2658958,2000,0,2
1778660284.268283,2221,0,2
1778660284.270829,2122,0,2
1778660284.2754261,1828,0,2
1778660284.276035,1994,0,2
1778660284.276405,1775,0,2
1778660284.2790961,1822,0,2
1778660284.2834969,2101,0,2
1778660284.2836092,2437,0,2
1778660284.285333,1961,0,2
1778660284.286623,1834,0,2
1778660284.287908,2125,0,2
1778660284.290449,1973,0,2
1778660284.29282,1399,0,2
1778660284.2962618,1652,0,2
1778660284.296905,2304,0,2
1778660284.298385,2371,0,2
1778660284.300131,1961,0,2
1778660284.3042188,1949,0,2
1778660284.304278,1887,0,2
1778660284.306836,1795,0,2
1778660284.308118,2038,0,2
1778660284.310667,1950,0,2
1778660284.311948,1968,0,2
1778660284.317101,2114,0,2
1778660284.3171682,2301,0,2
1778660284.319063,2109,0,2
1778660284.3205602,1755,0,2
1778660284.322094,1770,0,2
1778660284.325294,2040,0,2
1778660284.326814,2058,0,2
1778660284.3281121,1983,0,2
1778660284.330654,2231,0,2
1778660284.331946,1982,0,2
1778660284.3344939,2121,0,2
1778660284.338179,1884,0,2
1778660284.338511,1911,0,2
1778660284.340321,2132,0,2
1778660284.3423228,1955,0,2
1778660284.344349,2030,0,2
1778660284.346478,2016,0,2
1778660284.348059,2291,0,2
1778660284.3506172,1982,0,2
1778660284.351899,1917,0,2
1778660284.354451,1996,0,2
1778660284.355823,1987,0,2
1778660284.3607721,1876,0,2
1778660284.361349,1803,0,2
1778660284.36389,1956,0,2
1778660284.364226,2242,0,2
1778660284.369246,2053,0,2
1778660284.371181,2228,0,2
1778660284.371223,2172,0,2
1778660284.372642,2102,0,2
1778660284.3739982,1901,0,2
1778660284.376631,1726,0,2
1778660284.37802,2044,0,2
1778660284.384906,2987,0,2
1778660284.385997,2139,0,2
1778660284.3861172,1778,0,2
1778660284.386195,1965,0,2
1778660284.393056,2197,0,2
1778660284.3933692,2204,0,2
1778660284.393604,2317,0,2
1778660284.395446,1905,0,2
1778660284.3966742,1772,0,2
1778660284.39802,2091,0,2
1778660284.4006279,2156,0,2
1778660284.4020338,2205,0,2
1778660284.410784,1977,0,2
1778660284.410988,1796,0,2
1778660284.413145,1864,0,2
1778660284.413606,1839,0,2
1778660284.4151292,2028,0,2
1778660284.415585,2303,0,2
1778660284.419273,2445,0,2
1778660284.419383,2094,0,2
1778660284.4214752,1941,0,2
1778660284.42291,1964,0,2
1778660284.4242282,1863,0,2
1778660284.43,1857,0,2
1778660284.430549,1778,0,2
1778660284.431367,1844,0,2
1778660284.432898,2240,0,2
1778660284.4358568,2130,0,2
1778660284.436321,1932,0,2
1778660284.438303,2204,0,2
1778660284.440586,2014,0,2
1778660284.442656,1838,0,2
1778660284.443989,1848,0,2
1778660284.446469,2100,0,2
1778660284.44799,2335,0,2
1778660284.450614,2212,0,2
1778660284.452076,2035,0,2
1778660284.457092,1901,0,2
1778660284.4575958,2218,0,2
1778660284.459431,1702,0,2
1778660284.4617229,1789,0,2
1778660284.4626591,2035,0,2
1778660284.467235,2785,0,2
1778660284.467505,2045,0,2
1778660284.469722,1693,0,2
1778660284.469833,1969,0,2
1778660284.472505,1923,0,2
1778660284.47707,2043,0,2
1778660284.4779341,1802,0,2
1778660284.478771,2014,0,2
1778660284.481654,2095,0,2
1778660284.482037,2288,0,2
1778660284.4869409,2174,0,2
1778660284.48717,2178,0,2
1778660284.4887629,1994,0,2
1778660284.490152,1797,0,2
1778660284.492667,1852,0,2
1778660284.494047,2044,0,2
1778660284.496702,1961,0,2
1778660284.498202,2298,0,2
1778660284.5042272,2104,0,2
1778660284.504437,2230,0,2
1778660284.5065548,1924,0,2
1778660284.507088,1821,0,2
1778660284.512079,2030,0,2
1778660284.512695,1953,0,2
1778660284.514495,1993,0,2
1778660284.5147772,2114,0,2
1778660284.5161579,2020,0,2
1778660284.523277,1997,0,2
1778660284.524083,1907,0,2
1778660284.525304,2266,0,2
1778660284.526654,1900,0,2
1778660284.527086,1831,0,2
1778660284.52932,1948,0,2
1778660284.530717,2137,0,2
1778660284.533192,2290,0,2
1778660284.535201,1885,0,2
1778660284.536609,1882,0,2
1778660284.5379882,1808,0,2
1778660284.540596,1978,0,2
1778660284.541954,1966,0,2
1778660284.544673,1977,0,2
1778660284.5490692,2143,0,2
1778660284.5515509,2266,0,2
1778660284.553239,2086,0,2
1778660284.554053,2053,0,2
1778660284.554635,2096,0,2
1778660284.559535,1914,0,2
1778660284.560019,1873,0,2
1778660284.560159,1793,0,2
1778660284.562912,2079,0,2
1778660284.564322,2143,0,2
1778660284.570722,2451,0,2
1778660284.571532,2213,0,2
1778660284.572762,1812,0,2
1778660284.572909,1894,0,2
1778660284.57475,1934,0,2
1778660284.578047,1890,0,2
1778660284.580512,1925,0,2
1778660284.580632,2079,0,2
1778660284.582582,2267,0,2
1778660284.5849721,2111,0,2
1778660284.586359,1983,0,2
1778660284.589312,1920,0,2
1778660284.590699,2058,0,2
1778660284.596386,1979,0,2
1778660284.5968928,1886,0,2
1778660284.598569,2045,0,2
1778660284.598805,2383,0,2
1778660284.600468,2074,0,2
1778660284.602696,2144,0,2
1778660284.6064808,2034,0,2
1778660284.606663,2017,0,2
1778660284.609012,1985,0,2
1778660284.6104288,1798,0,2
1778660284.611854,1970,0,2
1778660284.617562,2184,0,2
1778660284.619203,2174,0,2
1778660284.6205928,2027,0,2
1778660284.622714,2061,0,2
1778660284.623198,1985,0,2
1778660284.6264288,2022,0,2
1778660284.629214,1902,0,2
1778660284.629514,1914,0,2
1778660284.631781,2123,0,2
1778660284.631874,2434,0,2
1778660284.6345332,2020,0,2
1778660284.635905,1864,0,2
1778660284.638436,1838,0,2
1778660284.6398451,2068,0,2
1778660284.6476579,1989,0,2
1778660284.649445,1844,0,2
1778660284.6496398,2093,0,2
1778660284.649961,2240,0,2
1778660284.651582,2174,0,2
1778660284.653781,2048,0,2
1778660284.654239,1935,0,2
1778660284.655873,2044,0,2
1778660284.659041,2028,0,2
1778660284.661203,1933,0,2
1778660284.662635,2002,0,2
1778660284.6640499,2275,0,2
1778660284.671224,2241,0,2
1778660284.6727161,1960,0,2
1778660284.6729789,1942,0,2
1778660284.674897,2025,0,2
1778660284.67506,2072,0,2
1778660284.677695,1896,0,2
1778660284.679229,1945,0,2
1778660284.682314,2175,0,2
1778660284.682434,2338,0,2
1778660284.6842601,2078,0,2
1778660284.686933,1994,0,2
1778660284.688261,1985,0,2
1778660284.690898,2100,0,2
1778660284.692255,1974,0,2
1778660284.699798,1922,0,2
1778660284.700771,2067,0,2
1778660284.702153,2377,0,2
1778660284.702382,2264,0,2
1778660284.702674,2043,0,2
1778660284.705467,1928,0,2
1778660284.708788,2088,0,2
1778660284.711692,2066,0,2
1778660284.7119381,1895,0,2
1778660284.71232,2054,0,2
1778660284.713902,2312,0,2
1778660284.716552,2353,0,2
1778660284.71789,2122,0,2
1778660284.724162,1984,0,2
1778660284.7246861,2005,0,2
1778660284.726166,2176,0,2
1778660284.726413,1945,0,2
1778660284.728033,1946,0,2
1778660284.732251,2224,0,2
1778660284.734963,2394,0,2
1778660284.735326,2126,0,2
1778660284.737751,2063,0,2
1778660284.737867,2084,0,2
1778660284.740503,2142,0,2
1778660284.741868,1999,0,2
1778660284.7444851,1892,0,2
1778660284.745871,2147,0,2
1778660284.7553952,2405,0,2
1778660284.755591,2199,0,2
1778660284.755928,2073,0,2
1778660284.7580879,2033,0,2
1778660284.758595,2128,0,2
1778660284.759239,2103,0,2
1778660284.7623072,1962,0,2
1778660284.765215,2021,0,2
1778660284.765468,2188,0,2
1778660284.767951,2309,0,2
1778660284.7680929,2130,0,2
1778660284.770708,2005,0,2
1778660284.772305,2024,0,2
1778660284.777787,2042,0,2
1778660284.7800431,1955,0,2
1778660284.780284,1953,0,2
1778660284.781693,2141,0,2
1778660284.7825751,2366,0,2
1778660284.785066,2170,0,2
1778660284.7868009,2043,0,2
1778660284.78978,2061,0,2
1778660284.790012,2165,0,2
1778660284.792346,2008,0,2
1778660284.794944,1954,0,2
1778660284.79625,2115,0,2
1778660284.798812,2337,0,2
1778660284.800116,2212,0,2
1778660284.802638,2043,0,2
1778660284.8065312,1979,0,2
1778660284.806987,2104,0,2
1778660284.80986,2049,0,2
1778660284.809941,1920,0,2
1778660284.8131578,1993,0,2
1778660284.815988,2215,0,2
1778660284.8193789,2299,0,2
1778660284.819616,2108,0,2
1778660284.8220868,2012,0,2
1778660284.822161,1994,0,2
1778660284.824739,2006,0,2
1778660284.826051,1901,0,2
1778660284.831983,1965,0,2
1778660284.8327959,2207,0,2
1778660284.835917,2400,0,2
1778660284.836098,2150,0,2
1778660284.8378098,2059,0,2
1778660284.838293,2008,0,2
1778660284.840645,2117,0,2
1778660284.84372,2017,0,2
1778660284.844028,1905,0,2
1778660284.8469372,2138,0,2
1778660284.848158,2355,0,2
1778660284.8508449,2199,0,2
1778660284.852191,2059,0,2
1778660284.854809,2001,0,2
1778660284.856149,2096,0,2
1778660284.861598,2122,0,2
1778660284.864297,1900,0,2
1778660284.864511,1859,0,2
1778660284.86464,2200,0,2
1778660284.867965,2409,0,2
1778660284.869086,2217,0,2
1778660284.871132,2057,0,2
1778660284.873868,2082,0,2
1778660284.874132,2098,0,2
1778660284.8760152,2055,0,2
1778660284.878591,1955,0,2
1778660284.87989,2186,0,2
1778660284.885888,2328,0,2
1778660284.8864992,2191,0,2
1778660284.8869948,2125,0,2
1778660284.8888059,2086,0,2
1778660284.8913338,2099,0,2
1778660284.894582,2187,0,2
1778660284.897184,2092,0,2
1778660284.8975391,2101,0,2
1778660284.8994188,2334,0,2
1778660284.9007208,2332,0,2
1778660284.902022,2026,0,2
1778660284.90469,1949,0,2
1778660284.905985,2101,0,2
1778660284.908535,2122,0,2
1778660284.913902,2182,0,2
1778660284.914334,2144,0,2
1778660284.9151978,2351,0,2
1778660284.918751,2395,0,2
1778660284.9192488,2136,0,2
1778660284.921898,2008,0,2
1778660284.921993,1919,0,2
1778660284.924428,2133,0,2
1778660284.926273,1843,0,2
1778660284.9288619,1928,0,2
1778660284.930156,2141,0,2
1778660284.935383,2239,0,2
1778660284.935468,2296,0,2
1778660284.937238,2157,0,2
1778660284.938751,2009,0,2
1778660284.940771,2105,0,2
1778660284.942176,2009,0,2
1778660284.946924,1865,0,2
1778660284.94734,2048,0,2
1778660284.9493482,2302,0,2
1778660284.950644,2215,0,2
1778660284.951946,2280,0,2
1778660284.954706,2162,0,2
1778660284.956036,2168,0,2
1778660284.9586072,2074,0,2
1778660284.964055,1989,0,2
1778660284.964129,2163,0,2
1778660284.964258,2384,0,2
1778660284.9686122,2441,0,2
1778660284.969569,2256,0,2
1778660284.971162,2051,0,2
1778660284.972655,2042,0,2
1778660284.975509,2239,0,2
1778660284.977581,2049,0,2
1778660284.978912,2115,0,2
1778660284.980219,2281,0,2
1778660284.9859982,2533,0,2
1778660284.986497,2251,0,2
1778660284.986866,2099,0,2
1778660284.990297,2043,0,2
1778660284.9911098,2140,0,2
1778660284.994271,2018,0,2
1778660284.9975822,1933,0,2
1778660284.999962,2127,0,2
1778660285.0000992,2364,0,2
1778660285.0001311,2266,0,2
1778660285.002783,2099,0,2
1778660285.0042188,2008,0,2
1778660285.009181,2085,0,2
1778660285.009248,2017,0,2
1778660285.0157728,1891,0,2
1778660285.017144,2028,0,2
1778660285.01891,2181,0,2
1778660285.0209851,2299,0,2
1778660285.021159,2174,0,2
1778660285.022262,2035,0,2
1778660285.022892,2119,0,2
1778660285.0286431,2123,0,2
1778660285.028907,1999,0,2
1778660285.0292192,2019,0,2
1778660285.0313332,2255,0,2
1778660285.0326312,2441,0,2
1778660285.0339231,2126,0,2
1778660285.040214,2005,0,2
1778660285.041107,1999,0,2
1778660285.041863,2090,0,2
1778660285.043075,2096,0,2
1778660285.044982,1948,0,2
1778660285.0468822,2078,0,2
1778660285.04832,2337,0,2
1778660285.050734,2291,0,2
1778660285.052774,2169,0,2
1778660285.05407,2091,0,2
1778660285.056618,2140,0,2
1778660285.057909,2110,0,2
1778660285.060458,2024,0,2
1778660285.062002,2105,0,2
1778660285.066271,2294,0,2
1778660285.066744,2403,0,2
1778660285.0685902,2174,0,2
1778660285.070101,2095,0,2
1778660285.073754,2193,0,2
1778660285.0761569,2227,0,2
1778660285.076297,2007,0,2
1778660285.078371,1981,0,2
1778660285.0809321,2187,0,2
1778660285.08228,2476,0,2
1778660285.08657,2293,0,2
1778660285.0866518,2152,0,2
1778660285.088485,2084,0,2
1778660285.090076,2149,0,2
1778660285.093652,2082,0,2
1778660285.09604,1997,0,2
1778660285.096125,2186,0,2
1778660285.098999,2429,0,2
1778660285.100298,2280,0,2
1778660285.1028569,2233,0,2
1778660285.1041439,2101,0,2
1778660285.106695,2143,0,2
1778660285.1111171,2081,0,2
1778660285.111545,1948,0,2
1778660285.113662,2099,0,2
1778660285.1159549,2291,0,2
1778660285.116371,2353,0,2
1778660285.121315,2130,0,2
1778660285.121504,2097,0,2
1778660285.123477,2113,0,2
1778660285.124778,2219,0,2
1778660285.126066,2003,0,2
1778660285.1310458,1974,0,2
1778660285.131456,2205,0,2
1778660285.133721,2488,0,2
1778660285.135821,2249,0,2
1778660285.136308,2090,0,2
1778660285.1387641,2053,0,2
1778660285.14112,2139,0,2
1778660285.142945,2093,0,2
1778660285.144238,1957,0,2
1778660285.146603,2141,0,2
1778660285.147893,2431,0,2
1778660285.1504471,2417,0,2
1778660285.1562188,2202,0,2
1778660285.1566489,2103,0,2
1778660285.157025,2153,0,2
1778660285.158655,2192,0,2
1778660285.160713,2039,0,2
1778660285.163424,2095,0,2
1778660285.165705,2346,0,2
1778660285.16766,2388,0,2
1778660285.168962,2168,0,2
1778660285.170253,2093,0,2
1778660285.172811,2083,0,2
1778660285.1741052,2157,0,2
1778660285.179892,1932,0,2
1778660285.180332,2069,0,2
1778660285.1810071,2273,0,2
1778660285.184066,2472,0,2
1778660285.1847749,2286,0,2
1778660285.187239,2187,0,2
1778660285.18946,2047,0,2
1778660285.191366,2175,0,2
1778660285.192707,2082,0,2
1778660285.193998,2060,0,2
1778660285.196544,2060,0,2
1778660285.1991072,2358,0,2
1778660285.20056,2342,0,2
1778660285.20413,2093,0,2
1778660285.204514,1921,0,2
1778660285.206462,2100,0,2
1778660285.2094378,2153,0,2
1778660285.2112901,1994,0,2
1778660285.2136261,2037,0,2
1778660285.2155871,2272,0,2
1778660285.216855,2398,0,2
1778660285.218422,2183,0,2
1778660285.2209768,2060,0,2
1778660285.222333,2077,0,2
1778660285.224329,2138,0,2
1778660285.226356,1951,0,2
1778660285.243886,1978,0,2
1778660285.244128,2173,0,2
1778660285.2441988,2380,0,2
1778660285.244233,2160,0,2
1778660285.24426,2048,0,2
1778660285.244283,1985,0,2
1778660285.244307,2121,0,2
1778660285.2443311,2050,0,2
1778660285.244355,1968,0,2
1778660285.246908,2020,0,2
1778660285.2482119,2262,0,2
1778660285.250772,2326,0,2
1778660285.25207,2162,0,2
1778660285.258454,2000,0,2
1778660285.258852,1962,0,2
1778660285.258942,2038,0,2
1778660285.2603142,1973,0,2
1778660285.263382,2107,0,2
1778660285.264889,2218,0,2
1778660285.266947,2255,0,2
1778660285.2685592,2138,0,2
1778660285.26985,2072,0,2
1778660285.272424,2113,0,2
1778660285.27491,2109,0,2
1778660285.276202,1900,0,2
1778660285.2812119,1892,0,2
1778660285.281305,2100,0,2
1778660285.283511,2293,0,2
1778660285.284872,2136,0,2
1778660285.2869818,2108,0,2
1778660285.290196,1987,0,2
1778660285.290326,1970,0,2
1778660285.2929122,1991,0,2
1778660285.294202,1943,0,2
1778660285.296673,2102,0,2
1778660285.297963,2276,0,2
1778660285.3036952,2251,0,2
1778660285.303732,2063,0,2
1778660285.305279,1968,0,2
1778660285.3077,2056,0,2
1778660285.3094091,2059,0,2
1778660285.310912,1861,0,2
1778660285.312941,1897,0,2
1778660285.314453,2240,0,2
1778660285.317047,2302,0,2
1778660285.3183491,2080,0,2
1778660285.3209019,2023,0,2
1778660285.32219,2066,0,2
1778660285.326987,2009,0,2
1778660285.3275971,1941,0,2
1778660285.3292081,2024,0,2
1778660285.33119,2142,0,2
1778660285.333854,2357,0,2
1778660285.334084,2166,0,2
1778660285.3377879,2022,0,2
1778660285.3379729,1966,0,2
1778660285.340527,2113,0,2
1778660285.341812,1906,0,2
1778660285.3443542,1797,0,2
1778660285.3507142,2002,0,2
1778660285.3514218,2329,0,2
1778660285.351776,2235,0,2
1778660285.354486,2080,0,2
1778660285.3548522,1949,0,2
1778660285.3575191,2052,0,2
1778660285.359683,2040,0,2
1778660285.3611531,1886,0,2
1778660285.36245,1991,0,2
1778660285.365005,2253,0,2
1778660285.366302,2289,0,2
1778660285.368822,1973,0,2
1778660285.3738198,1928,0,2
1778660285.374541,2086,0,2
1778660285.374631,2106,0,2
1778660285.376284,1924,0,2
1778660285.378339,1938,0,2
1778660285.382986,2132,0,2
1778660285.383191,2375,0,2
1778660285.384979,2153,0,2
1778660285.38627,2011,0,2
1778660285.3888168,1925,0,2
1778660285.3901188,2130,0,2
1778660285.3926709,2020,0,2
1778660285.397217,1771,0,2
1778660285.397896,2002,0,2
1778660285.397983,2348,0,2
1778660285.4015732,2352,0,2
1778660285.403735,2047,0,2
1778660285.405932,2029,0,2
1778660285.4060469,1980,0,2
1778660285.40882,1999,0,2
1778660285.4101062,1926,0,2
1778660285.4126458,2010,0,2
1778660285.413928,2219,0,2
1778660285.41971,2290,0,2
1778660285.42006,2059,0,2
1778660285.4204102,1973,0,2
1778660285.423434,1797,0,2
1778660285.425935,1703,0,2
1778660285.425976,1742,0,2
1778660285.429973,1785,0,2
1778660285.430038,2161,0,2
1778660285.4325812,2510,0,2
1778660285.433884,2322,0,2
1778660285.436432,2243,0,2
1778660285.4389791,2196,0,2
