timestamp,ch1,ch2,label
1778660543.426518,2068,0,7_S
1778660543.426589,1950,0,7_S
1778660543.433185,2077,0,7_S
1778660543.4355452,2029,0,7_S
1778660543.43732,1871,0,7_S
1778660543.438487,1962,0,7_S
1778660543.439085,2201,0,7_S
1778660543.440974,2266,0,7_S
1778660543.441065,2023,0,7_S
1778660543.442445,1994,0,7_S
1778660543.44506,2019,0,7_S
1778660543.446398,2097,0,7_S
1778660543.4490209,1964,0,7_S
1778660543.4503198,1942,0,7_S
1778660543.457634,2038,0,7_S
1778660543.45935,2327,0,7_S
1778660543.460351,2138,0,7_S
1778660543.461222,2015,0,7_S
1778660543.462368,1977,0,7_S
1778660543.4638982,2087,0,7_S
1778660543.466773,2027,0,7_S
1778660543.4670022,1878,0,7_S
1778660543.468374,2008,0,7_S
1778660543.470988,2219,0,7_S
1778660543.472346,2202,0,7_S
1778660543.4766111,2033,0,7_S
1778660543.483104,1920,0,7_S
1778660543.483372,1991,0,7_S
1778660543.483519,2027,0,7_S
1778660543.486387,1894,0,7_S
1778660543.4876218,1951,0,7_S
1778660543.489599,2117,0,7_S
1778660543.490613,2253,0,7_S
1778660543.4910028,2059,0,7_S
1778660543.4929678,2024,0,7_S
1778660543.494337,1936,0,7_S
1778660543.497082,2016,0,7_S
1778660543.504931,1904,0,7_S
1778660543.506248,1947,0,7_S
1778660543.509093,2057,0,7_S
1778660543.509377,2244,0,7_S
1778660543.5127108,2058,0,7_S
1778660543.512854,1939,0,7_S
1778660543.5129569,1911,0,7_S
1778660543.513073,2045,0,7_S
1778660543.514393,1969,0,7_S
1778660543.516992,1817,0,7_S
1778660543.518341,1968,0,7_S
1778660543.520961,2218,0,7_S
1778660543.526783,2163,0,7_S
1778660543.5281222,2027,0,7_S
1778660543.5285609,1955,0,7_S
1778660543.529969,2022,0,7_S
1778660543.532584,2045,0,7_S
1778660543.533356,1890,0,7_S
1778660543.535554,1893,0,7_S
1778660543.538391,2129,0,7_S
1778660543.538649,2257,0,7_S
1778660543.541336,2028,0,7_S
1778660543.542599,1963,0,7_S
1778660543.5482938,1990,0,7_S
1778660543.549579,2083,0,7_S
1778660543.5513222,1946,0,7_S
1778660543.552174,1896,0,7_S
1778660543.553014,2073,0,7_S
1778660543.555424,2304,0,7_S
1778660543.558483,2176,0,7_S
1778660543.558574,2008,0,7_S
1778660543.561274,1932,0,7_S
1778660543.562658,2000,0,7_S
1778660543.5653062,1976,0,7_S
1778660543.5666811,1873,0,7_S
1778660543.5721788,1991,0,7_S
1778660543.573332,2202,0,7_S
1778660543.574958,2264,0,7_S
1778660543.576677,2095,0,7_S
1778660543.578191,1922,0,7_S
1778660543.57879,1976,0,7_S
1778660543.582009,2032,0,7_S
1778660543.584175,1888,0,7_S
1778660543.584276,1903,0,7_S
1778660543.586956,2127,0,7_S
1778660543.5883808,2334,0,7_S
1778660543.593183,2135,0,7_S
1778660543.594836,1973,0,7_S
1778660543.595165,1956,0,7_S
1778660543.597503,2065,0,7_S
1778660543.6002948,1944,0,7_S
1778660543.6016,1880,0,7_S
1778660543.603934,2109,0,7_S
1778660543.605317,2304,0,7_S
1778660543.606708,2121,0,7_S
1778660543.609393,1974,0,7_S
1778660543.6107829,1992,0,7_S
1778660543.6135402,2075,0,7_S
1778660543.6192482,2001,0,7_S
1778660543.620254,1740,0,7_S
1778660543.621734,1957,0,7_S
1778660543.6219368,2074,0,7_S
1778660543.623979,2203,0,7_S
1778660543.625769,2135,0,7_S
1778660543.628725,2125,0,7_S
1778660543.629189,2142,0,7_S
1778660543.6313999,2139,0,7_S
1778660543.632996,2012,0,7_S
1778660543.634387,2054,0,7_S
1778660543.6400142,2167,0,7_S
1778660543.64046,2270,0,7_S
1778660543.640552,1949,0,7_S
1778660543.6430469,1803,0,7_S
1778660543.6454022,1843,0,7_S
1778660543.648347,2037,0,7_S
1778660543.648436,1941,0,7_S
1778660543.651553,1859,0,7_S
1778660543.652868,2014,0,7_S
1778660543.654185,2353,0,7_S
1778660543.656735,2295,0,7_S
1778660543.659374,1930,0,7_S
1778660543.660667,1775,0,7_S
1778660543.665719,2158,0,7_S
1778660543.666216,2248,0,7_S
1778660543.6674402,2159,0,7_S
1778660543.669306,2096,0,7_S
1778660543.672586,2233,0,7_S
1778660543.673693,2309,0,7_S
1778660543.675505,2154,0,7_S
1778660543.67681,1878,0,7_S
1778660543.6793768,1885,0,7_S
1778660543.680667,1874,0,7_S
1778660543.683213,1570,0,7_S
1778660543.6844978,1639,0,7_S
1778660543.689057,2061,0,7_S
1778660543.689478,2347,0,7_S
1778660543.691571,2349,0,7_S
1778660543.69336,2145,0,7_S
1778660543.695145,2105,0,7_S
1778660543.697469,2179,0,7_S
1778660543.699563,2107,0,7_S
1778660543.700865,1983,0,7_S
1778660543.7033322,2063,0,7_S
1778660543.704662,2220,0,7_S
1778660543.7070389,2138,0,7_S
1778660543.708208,2018,0,7_S
1778660543.711874,1933,0,7_S
1778660543.7140539,1835,0,7_S
1778660543.714234,1961,0,7_S
1778660543.716913,2008,0,7_S
1778660543.718865,2085,0,7_S
1778660543.7202508,2149,0,7_S
1778660543.72283,2191,0,7_S
1778660543.724125,2027,0,7_S
1778660543.72668,1987,0,7_S
1778660543.729231,2038,0,7_S
1778660543.730361,2058,0,7_S
1778660543.734752,1951,0,7_S
1778660543.734813,1980,0,7_S
1778660543.7373781,2178,0,7_S
1778660543.739056,2299,0,7_S
1778660543.7409532,2051,0,7_S
1778660543.743349,1986,0,7_S
1778660543.745215,1764,0,7_S
1778660543.746538,1921,0,7_S
1778660543.749096,1935,0,7_S
1778660543.750387,1989,0,7_S
1778660543.752935,2238,0,7_S
1778660543.757653,2211,0,7_S
1778660543.758394,1968,0,7_S
1778660543.759131,2211,0,7_S
1778660543.761954,2271,0,7_S
1778660543.7635121,2276,0,7_S
1778660543.765155,2170,0,7_S
1778660543.7679548,1910,0,7_S
1778660543.7684171,2007,0,7_S
1778660543.7778182,2195,0,7_S
1778660543.791522,2276,0,7_S
1778660543.7915661,2080,0,7_S
1778660543.793246,1963,0,7_S
1778660543.799464,1976,0,7_S
1778660543.7996979,2068,0,7_S
1778660543.800093,1950,0,7_S
1778660543.801748,1959,0,7_S
1778660543.8017962,2160,0,7_S
1778660543.801823,2261,0,7_S
1778660543.8018491,2079,0,7_S
1778660543.801873,2026,0,7_S
1778660543.80192,2015,0,7_S
1778660543.801945,2134,0,7_S
1778660543.8235142,2071,0,7_S
1778660543.824555,1799,0,7_S
1778660543.824668,2063,0,7_S
1778660543.8247302,2332,0,7_S
1778660543.8247821,2266,0,7_S
1778660543.824832,1975,0,7_S
1778660543.8248808,1974,0,7_S
1778660543.824929,1977,0,7_S
1778660543.8249779,1989,0,7_S
1778660543.825026,2059,0,7_S
1778660543.825073,2234,0,7_S
1778660543.82512,2392,0,7_S
1778660543.8251672,2413,0,7_S
1778660543.825216,2203,0,7_S
1778660543.8268008,2107,0,7_S
1778660543.857841,2056,0,7_S
1778660543.861315,2078,0,7_S
1778660543.8694558,1942,0,7_S
1778660543.885797,1962,0,7_S
1778660543.886233,2077,0,7_S
1778660543.9119291,2264,0,7_S
1778660543.91201,2072,0,7_S
1778660543.9120378,1998,0,7_S
1778660543.912089,1945,0,7_S
1778660543.9121149,2048,0,7_S
1778660543.912138,1946,0,7_S
1778660543.912162,1933,0,7_S
1778660543.9121852,1929,0,7_S
1778660543.9122078,2050,0,7_S
1778660543.912231,2139,0,7_S
1778660543.912255,2222,0,7_S
1778660543.912278,2130,0,7_S
1778660543.9123,2097,0,7_S
1778660543.9123242,2063,0,7_S
1778660543.9123468,1941,0,7_S
1778660543.91237,2073,0,7_S
1778660543.9123929,2174,0,7_S
1778660543.912416,2343,0,7_S
1778660543.912439,2089,0,7_S
1778660543.912461,1987,0,7_S
1778660543.9124842,1970,0,7_S
1778660543.9125068,2025,0,7_S
1778660543.91253,2039,0,7_S
1778660543.912553,1971,0,7_S
1778660543.912576,2165,0,7_S
1778660543.912599,2322,0,7_S
1778660543.9126248,2006,0,7_S
1778660543.912648,2082,0,7_S
1778660543.912671,2070,0,7_S
1778660543.912693,2175,0,7_S
1778660543.9127162,2051,0,7_S
1778660543.912739,1914,0,7_S
1778660543.912761,2027,0,7_S
1778660543.912812,2246,0,7_S
1778660543.912857,2285,0,7_S
1778660543.912881,2038,0,7_S
1778660543.912904,1995,0,7_S
1778660543.912926,1937,0,7_S
1778660543.914407,1646,0,7_S
1778660543.91607,1720,0,7_S
1778660543.9186199,1789,0,7_S
1778660543.92552,2337,0,7_S
1778660543.925596,2359,0,7_S
1778660543.925942,2236,0,7_S
1778660543.927543,2090,0,7_S
1778660543.9292648,2110,0,7_S
1778660543.9311318,2175,0,7_S
1778660543.9338481,2120,0,7_S
1778660543.935788,2004,0,7_S
1778660543.937093,2065,0,7_S
1778660543.938385,2237,0,7_S
1778660543.940929,2004,0,7_S
1778660543.942215,1819,0,7_S
1778660543.9448352,1814,0,7_S
1778660543.9496782,2100,0,7_S
1778660543.950885,2065,0,7_S
1778660543.9510431,1936,0,7_S
1778660543.952488,2013,0,7_S
1778660543.95564,2276,0,7_S
1778660543.957164,2206,0,7_S
1778660543.959052,2032,0,7_S
1778660543.960348,1800,0,7_S
1778660543.962933,1477,0,7_S
1778660543.9642282,1945,0,7_S
1778660543.966774,2243,0,7_S
1778660543.9681652,2275,0,7_S
1778660543.972419,2244,0,7_S
1778660543.972865,2257,0,7_S
1778660543.976335,2076,0,7_S
1778660543.977077,2091,0,7_S
1778660543.979233,2096,0,7_S
1778660543.9806452,2132,0,7_S
1778660543.9822888,1895,0,7_S
1778660543.984853,1786,0,7_S
1778660543.9861681,1875,0,7_S
1778660543.988729,2120,0,7_S
1778660543.9901052,2084,0,7_S
1778660543.995748,2036,0,7_S
1778660543.996174,1955,0,7_S
1778660543.9965608,2067,0,7_S
1778660543.999027,2023,0,7_S
1778660544.001054,1827,0,7_S
1778660544.00243,1996,0,7_S
1778660544.005763,2244,0,7_S
1778660544.0070589,2237,0,7_S
1778660544.008353,2023,0,7_S
1778660544.010933,1819,0,7_S
1778660544.012227,2056,0,7_S
1778660544.014775,2129,0,7_S
1778660544.0188448,2078,0,7_S
1778660544.0191958,1967,0,7_S
1778660544.021493,2108,0,7_S
1778660544.023341,2266,0,7_S
1778660544.024908,2086,0,7_S
1778660544.026413,1882,0,7_S
1778660544.029512,1996,0,7_S
1778660544.030814,2105,0,7_S
1778660544.032107,1876,0,7_S
1778660544.034654,1827,0,7_S
1778660544.037197,2018,0,7_S
1778660544.0417888,1966,0,7_S
1778660544.042159,1807,0,7_S
1778660544.0422242,2053,0,7_S
1778660544.044188,2081,0,7_S
1778660544.047179,2077,0,7_S
1778660544.048616,1970,0,7_S
1778660544.050057,1795,0,7_S
1778660544.0531242,2003,0,7_S
1778660544.054435,2376,0,7_S
1778660544.056989,2340,0,7_S
1778660544.058293,1890,0,7_S
1778660544.063766,1444,0,7_S
1778660544.0641851,1959,0,7_S
1778660544.064564,2137,0,7_S
1778660544.0661209,1530,0,7_S
1778660544.069205,1525,0,7_S
1778660544.072236,2439,0,7_S
1778660544.072381,2459,0,7_S
1778660544.0750642,2072,0,7_S
1778660544.076353,2353,0,7_S
1778660544.078903,2354,0,7_S
1778660544.080189,2220,0,7_S
1778660544.086455,1992,0,7_S
1778660544.0868638,1788,0,7_S
1778660544.0883222,1892,0,7_S
1778660544.088438,2180,0,7_S
1778660544.0916858,1999,0,7_S
1778660544.0946538,1981,0,7_S
1778660544.094914,1640,0,7_S
1778660544.096339,1819,0,7_S
1778660544.098921,1546,0,7_S
1778660544.10025,1782,0,7_S
1778660544.102814,2084,0,7_S
1778660544.1041012,2655,0,7_S
1778660544.110018,2451,0,7_S
1778660544.1100779,2095,0,7_S
1778660544.110164,1962,0,7_S
1778660544.1124961,2006,0,7_S
1778660544.115958,2060,0,7_S
1778660544.1172988,1949,0,7_S
1778660544.11905,1861,0,7_S
1778660544.121266,1734,0,7_S
1778660544.122565,1822,0,7_S
1778660544.12532,1782,0,7_S
1778660544.126723,1025,0,7_S
1778660544.128096,1644,0,7_S
1778660544.134576,2326,0,7_S
1778660544.135094,2243,0,7_S
1778660544.137471,2261,0,7_S
1778660544.137675,2391,0,7_S
1778660544.141747,2325,0,7_S
1778660544.143299,2061,0,7_S
1778660544.145212,2029,0,7_S
1778660544.145448,1947,0,7_S
1778660544.1475399,2001,0,7_S
1778660544.149323,1581,0,7_S
1778660544.1506639,1281,0,7_S
1778660544.15655,973,0,7_S
1778660544.156619,1172,0,7_S
1778660544.157187,2702,0,7_S
1778660544.16044,2997,0,7_S
1778660544.160917,2223,0,7_S
1778660544.165948,2237,0,7_S
1778660544.1661499,2251,0,7_S
1778660544.166558,2272,0,7_S
1778660544.168651,2269,0,7_S
1778660544.170057,2014,0,7_S
1778660544.172718,2301,0,7_S
1778660544.174062,2009,0,7_S
1778660544.17665,1484,0,7_S
1778660544.184136,1307,0,7_S
1778660544.185557,1448,0,7_S
1778660544.185837,1287,0,7_S
1778660544.1872551,1783,0,7_S
1778660544.187735,2084,0,7_S
1778660544.1896808,1874,0,7_S
1778660544.1914492,1866,0,7_S
1778660544.193408,2297,0,7_S
1778660544.1956291,2241,0,7_S
1778660544.1969988,1768,0,7_S
1778660544.19839,1697,0,7_S
1778660544.204851,2196,0,7_S
1778660544.205059,1907,0,7_S
1778660544.2066538,2197,0,7_S
1778660544.2083042,1676,0,7_S
1778660544.209959,1723,0,7_S
1778660544.210506,1638,0,7_S
1778660544.212607,2014,0,7_S
1778660544.214697,2252,0,7_S
1778660544.2170088,2230,0,7_S
1778660544.218421,1779,0,7_S
1778660544.221046,1897,0,7_S
1778660544.222409,2005,0,7_S
1778660544.2250628,1741,0,7_S
1778660544.22642,1741,0,7_S
1778660544.234161,1605,0,7_S
1778660544.2344499,1425,0,7_S
1778660544.236918,1774,0,7_S
1778660544.237107,1990,0,7_S
1778660544.237601,2151,0,7_S
1778660544.240484,2255,0,7_S
1778660544.243121,1891,0,7_S
1778660544.243422,1548,0,7_S
1778660544.245868,1933,0,7_S
1778660544.2459788,2116,0,7_S
1778660544.248631,1415,0,7_S
1778660544.254687,1598,0,7_S
1778660544.257469,1841,0,7_S
1778660544.259962,2037,0,7_S
1778660544.2605639,1974,0,7_S
1778660544.261556,1864,0,7_S
1778660544.262122,2238,0,7_S
1778660544.2662451,2197,0,7_S
1778660544.266617,1758,0,7_S
1778660544.266788,1482,0,7_S
1778660544.268865,1290,0,7_S
1778660544.270255,1720,0,7_S
1778660544.273049,2022,0,7_S
1778660544.274399,2220,0,7_S
1778660544.2769961,1974,0,7_S
1778660544.278357,1828,0,7_S
1778660544.2851121,1994,0,7_S
1778660544.286591,1913,0,7_S
1778660544.2869592,1955,0,7_S
1778660544.2897332,2160,0,7_S
1778660544.2907221,2244,0,7_S
1778660544.291242,1858,0,7_S
1778660544.293261,1554,0,7_S
1778660544.295916,1557,0,7_S
1778660544.296344,1381,0,7_S
1778660544.298561,1406,0,7_S
1778660544.2999759,1260,0,7_S
1778660544.3025842,2024,0,7_S
1778660544.307425,2254,0,7_S
1778660544.3083909,2096,0,7_S
1778660544.3107111,1488,0,7_S
1778660544.310876,892,0,7_S
1778660544.3138618,2209,0,7_S
1778660544.3144681,2625,0,7_S
1778660544.3194408,2042,0,7_S
1778660544.3197088,1643,0,7_S
1778660544.322207,2004,0,7_S
1778660544.322272,2194,0,7_S
1778660544.324784,2071,0,7_S
1778660544.326148,2095,0,7_S
1778660544.328796,1979,0,7_S
1778660544.330028,1944,0,7_S
1778660544.3328042,1732,0,7_S
1778660544.340937,1607,0,7_S
1778660544.341217,2023,0,7_S
1778660544.341511,2069,0,7_S
1778660544.341645,2217,0,7_S
1778660544.34377,2210,0,7_S
1778660544.345599,2055,0,7_S
1778660544.347622,2055,0,7_S
1778660544.350332,1973,0,7_S
1778660544.351037,2105,0,7_S
1778660544.353089,2004,0,7_S
1778660544.354622,2167,0,7_S
1778660544.355988,2207,0,7_S
1778660544.3631139,2159,0,7_S
1778660544.363689,1848,0,7_S
1778660544.366029,1813,0,7_S
1778660544.366283,1962,0,7_S
1778660544.366464,1931,0,7_S
1778660544.368819,1898,0,7_S
1778660544.371163,2171,0,7_S
1778660544.375597,2348,0,7_S
1778660544.3758552,2275,0,7_S
1778660544.376231,2193,0,7_S
1778660544.378655,1715,0,7_S
1778660544.38,2042,0,7_S
1778660544.38269,2255,0,7_S
1778660544.3840709,1873,0,7_S
1778660544.386698,2271,0,7_S
1778660544.3880682,2058,0,7_S
1778660544.39711,2035,0,7_S
1778660544.397442,2437,0,7_S
1778660544.397653,1792,0,7_S
1778660544.399678,1914,0,7_S
1778660544.401129,1802,0,7_S
1778660544.40172,1990,0,7_S
1778660544.4042711,2176,0,7_S
1778660544.4071512,2659,0,7_S
1778660544.407417,2188,0,7_S
1778660544.409962,2200,0,7_S
1778660544.410079,1707,0,7_S
1778660544.412727,2369,0,7_S
1778660544.4141152,2068,0,7_S
1778660544.421996,1795,0,7_S
1778660544.4237702,1431,0,7_S
1778660544.424384,1523,0,7_S
1778660544.424963,1729,0,7_S
1778660544.425568,1607,0,7_S
1778660544.431214,2446,0,7_S
1778660544.4316869,2177,0,7_S
1778660544.4319098,1735,0,7_S
1778660544.432278,1928,0,7_S
1778660544.434547,2430,0,7_S
1778660544.43597,2211,0,7_S
1778660544.438608,2828,0,7_S
1778660544.440008,1758,0,7_S
1778660544.442506,1849,0,7_S
1778660544.44893,1949,0,7_S
1778660544.4494069,2111,0,7_S
1778660544.450277,1690,0,7_S
1778660544.454093,1485,0,7_S
1778660544.45463,1291,0,7_S
1778660544.4552162,1799,0,7_S
1778660544.4568331,2390,0,7_S
1778660544.463145,2103,0,7_S
1778660544.463445,1437,0,7_S
1778660544.463979,1632,0,7_S
1778660544.4642198,1640,0,7_S
1778660544.46659,2077,0,7_S
1778660544.467981,1900,0,7_S
1778660544.470626,1804,0,7_S
1778660544.479051,1965,0,7_S
1778660544.479245,2052,0,7_S
1778660544.481726,2046,0,7_S
1778660544.481938,1787,0,7_S
1778660544.4825668,2022,0,7_S
1778660544.482789,2029,0,7_S
1778660544.486291,1491,0,7_S
1778660544.4868102,1409,0,7_S
1778660544.489933,1934,0,7_S
1778660544.4900439,2191,0,7_S
1778660544.492358,1292,0,7_S
1778660544.4949389,1143,0,7_S
1778660544.4962401,1426,0,7_S
1778660544.498795,1628,0,7_S
1778660544.5032341,1527,0,7_S
1778660544.50327,1477,0,7_S
1778660544.504562,1879,0,7_S
1778660544.506005,1658,0,7_S
1778660544.5267,1535,0,7_S
1778660544.526819,1512,0,7_S
1778660544.526884,1420,0,7_S
1778660544.526936,1098,0,7_S
1778660544.526986,609,0,7_S
1778660544.5270321,886,0,7_S
1778660544.5270798,1213,0,7_S
1778660544.527128,1453,0,7_S
1778660544.527172,955,0,7_S
1778660544.52722,1364,0,7_S
1778660544.528625,1668,0,7_S
1778660544.52999,1222,0,7_S
1778660544.5364668,1615,0,7_S
1778660544.537368,2209,0,7_S
1778660544.537476,824,0,7_S
1778660544.5414999,1555,0,7_S
1778660544.542782,1647,0,7_S
1778660544.544111,1954,0,7_S
1778660544.545743,1921,0,7_S
1778660544.548862,1224,0,7_S
1778660544.549192,1828,0,7_S
1778660544.55146,1492,0,7_S
1778660544.55285,2902,0,7_S
1778660544.554199,3754,0,7_S
1778660544.556834,3073,0,7_S
1778660544.55817,1972,0,7_S
1778660544.560767,2542,0,7_S
1778660544.569626,1601,0,7_S
1778660544.5697868,390,0,7_S
1778660544.572212,944,0,7_S
1778660544.573119,3228,0,7_S
1778660544.573751,4013,0,7_S
1778660544.573981,3226,0,7_S
1778660544.574186,2947,0,7_S
1778660544.5772202,2962,0,7_S
1778660544.580319,1982,0,7_S
1778660544.5806441,2395,0,7_S
1778660544.583224,3331,0,7_S
1778660544.5847838,2286,0,7_S
1778660544.586124,1996,0,7_S
1778660544.593696,2237,0,7_S
1778660544.5947819,2182,0,7_S
1778660544.5963361,1803,0,7_S
1778660544.59665,1504,0,7_S
1778660544.596925,2133,0,7_S
1778660544.599138,3486,0,7_S
1778660544.6015732,3154,0,7_S
1778660544.603261,2235,0,7_S
1778660544.607056,1678,0,7_S
1778660544.6075578,1810,0,7_S
1778660544.609368,2015,0,7_S
1778660544.610752,2366,0,7_S
1778660544.612077,2530,0,7_S
1778660544.614677,2506,0,7_S
1778660544.6160011,2085,0,7_S
1778660544.618698,1749,0,7_S
1778660544.620037,1715,0,7_S
1778660544.625602,1947,0,7_S
1778660544.626303,2024,0,7_S
1778660544.627418,2132,0,7_S
1778660544.629614,2280,0,7_S
1778660544.632863,2470,0,7_S
1778660544.633457,2289,0,7_S
1778660544.636432,2017,0,7_S
1778660544.639883,2005,0,7_S
1778660544.640372,2175,0,7_S
1778660544.640567,2186,0,7_S
1778660544.6432042,2179,0,7_S
1778660544.6445608,2238,0,7_S
1778660544.645934,2320,0,7_S
1778660544.653396,2289,0,7_S
1778660544.6541,2095,0,7_S
1778660544.654728,2014,0,7_S
1778660544.654896,2241,0,7_S
1778660544.66024,2338,0,7_S
1778660544.661757,2168,0,7_S
1778660544.662344,2188,0,7_S
1778660544.6675148,2234,0,7_S
1778660544.6678689,2331,0,7_S
1778660544.66804,2143,0,7_S
1778660544.668329,2097,0,7_S
1778660544.670241,2204,0,7_S
1778660544.6731782,2359,0,7_S
1778660544.6745222,2212,0,7_S
1778660544.6771688,2072,0,7_S
1778660544.678498,2028,0,7_S
1778660544.681212,2168,0,7_S
1778660544.68843,2134,0,7_S
1778660544.690063,1986,0,7_S
1778660544.690318,2080,0,7_S
1778660544.690742,2232,0,7_S
1778660544.6925771,2177,0,7_S
1778660544.693121,2237,0,7_S
1778660544.697425,2220,0,7_S
1778660544.697644,2254,0,7_S
1778660544.701084,2309,0,7_S
1778660544.7014558,2307,0,7_S
1778660544.704052,2491,0,7_S
1778660544.704115,2607,0,7_S
1778660544.706712,2661,0,7_S
1778660544.7080362,2491,0,7_S
1778660544.7146182,2380,0,7_S
1778660544.7152572,2275,0,7_S
1778660544.715482,2209,0,7_S
1778660544.717134,2103,0,7_S
1778660544.7194371,2118,0,7_S
1778660544.72348,2312,0,7_S
1778660544.7238212,2494,0,7_S
1778660544.7275379,2291,0,7_S
1778660544.72947,2200,0,7_S
1778660544.7301471,2144,0,7_S
1778660544.730211,2277,0,7_S
1778660544.7328231,2167,0,7_S
1778660544.734211,1937,0,7_S
1778660544.736939,1956,0,7_S
1778660544.738445,2256,0,7_S
1778660544.741483,2297,0,7_S
1778660544.748338,2098,0,7_S
1778660544.748497,1988,0,7_S
1778660544.750082,2058,0,7_S
1778660544.750324,2081,0,7_S
1778660544.750622,1972,0,7_S
1778660544.752649,1998,0,7_S
1778660544.755231,2133,0,7_S
1778660544.7608051,2269,0,7_S
1778660544.7611609,2098,0,7_S
1778660544.761722,1984,0,7_S
1778660544.764096,2005,0,7_S
1778660544.76419,2110,0,7_S
1778660544.76679,1985,0,7_S
1778660544.768115,1944,0,7_S
1778660544.77332,2079,0,7_S
1778660544.774274,2257,0,7_S
1778660544.774936,2139,0,7_S
1778660544.777324,2027,0,7_S
1778660544.7802298,1908,0,7_S
1778660544.7816708,1995,0,7_S
1778660544.784461,1987,0,7_S
1778660544.784616,1851,0,7_S
1778660544.78822,2011,0,7_S
1778660544.7885911,2123,0,7_S
1778660544.7912939,2182,0,7_S
1778660544.792686,2043,0,7_S
1778660544.7940218,1985,0,7_S
1778660544.796631,1972,0,7_S
1778660544.7979689,2019,0,7_S
1778660544.800585,1895,0,7_S
1778660544.802156,1915,0,7_S
1778660544.8072472,2047,0,7_S
1778660544.808341,2249,0,7_S
1778660544.809012,2087,0,7_S
1778660544.811182,2016,0,7_S
1778660544.813529,1990,0,7_S
1778660544.815588,2066,0,7_S
1778660544.817884,1958,0,7_S
1778660544.821134,1916,0,7_S
1778660544.8215418,2111,0,7_S
1778660544.823643,2264,0,7_S
1778660544.825419,2140,0,7_S
1778660544.826764,2015,0,7_S
1778660544.8281431,1935,0,7_S
1778660544.83482,2001,0,7_S
1778660544.836237,1982,0,7_S
1778660544.8364391,1888,0,7_S
1778660544.838072,2017,0,7_S
1778660544.8383129,2252,0,7_S
1778660544.8404129,2202,0,7_S
1778660544.842572,2032,0,7_S
1778660544.845074,2004,0,7_S
1778660544.8483682,2037,0,7_S
1778660544.849043,1985,0,7_S
1778660544.851659,1891,0,7_S
1778660544.853031,1946,0,7_S
1778660544.854375,2150,0,7_S
1778660544.856831,2259,0,7_S
1778660544.85819,2070,0,7_S
1778660544.860863,1961,0,7_S
1778660544.8622139,1959,0,7_S
1778660544.868902,2058,0,7_S
1778660544.8695319,1965,0,7_S
1778660544.8735318,1953,0,7_S
1778660544.8742552,2061,0,7_S
1778660544.8749819,2221,0,7_S
1778660544.875233,2105,0,7_S
1778660544.877408,2041,0,7_S
1778660544.879401,1972,0,7_S
1778660544.883234,2100,0,7_S
1778660544.883551,2064,0,7_S
1778660544.885887,1881,0,7_S
1778660544.886158,2019,0,7_S
1778660544.8888252,2232,0,7_S
1778660544.890149,2290,0,7_S
1778660544.895683,2078,0,7_S
1778660544.896607,1983,0,7_S
1778660544.8975492,1997,0,7_S
1778660544.898958,1969,0,7_S
1778660544.901654,1919,0,7_S
1778660544.9035351,1935,0,7_S
1778660544.905195,2150,0,7_S
1778660544.908409,2340,0,7_S
1778660544.908695,2119,0,7_S
1778660544.91102,2056,0,7_S
1778660544.912329,2045,0,7_S
1778660544.914897,2130,0,7_S
1778660544.9161952,2038,0,7_S
1778660544.918752,1972,0,7_S
1778660544.920049,2079,0,7_S
1778660544.922405,2305,0,7_S
1778660544.931162,2197,0,7_S
1778660544.933857,2058,0,7_S
1778660544.937551,1976,0,7_S
1778660544.9412549,2110,0,7_S
1778660544.9421551,2063,0,7_S
1778660544.944601,1928,0,7_S
1778660544.944682,2011,0,7_S
1778660544.944735,2231,0,7_S
1778660544.9447858,2287,0,7_S
1778660544.9448378,2081,0,7_S
1778660544.94489,1974,0,7_S
1778660544.946264,1981,0,7_S
1778660544.948726,2054,0,7_S
1778660544.956733,1960,0,7_S
1778660544.956935,1959,0,7_S
1778660544.9570959,2141,0,7_S
1778660544.9587672,2287,0,7_S
1778660544.958936,2043,0,7_S
1778660544.9615161,1958,0,7_S
1778660544.9636679,2050,0,7_S
1778660544.965874,2210,0,7_S
1778660544.9660711,1957,0,7_S
1778660544.9696891,1857,0,7_S
1778660544.970088,2184,0,7_S
1778660544.972793,2378,0,7_S
1778660544.97415,2231,0,7_S
1778660544.9767702,2206,0,7_S
1778660544.9781241,2062,0,7_S
1778660544.980719,2122,0,7_S
1778660544.982044,2096,0,7_S
1778660544.9901912,2035,0,7_S
1778660544.990763,2036,0,7_S
1778660544.9910011,2257,0,7_S
1778660544.9950988,2287,0,7_S
1778660544.996562,2094,0,7_S
1778660544.9967449,1961,0,7_S
1778660544.997809,2083,0,7_S
1778660544.9988859,2190,0,7_S
1778660545.003857,2026,0,7_S
1778660545.0045362,2038,0,7_S
1778660545.004831,2327,0,7_S
1778660545.007357,2396,0,7_S
1778660545.008706,2243,0,7_S
1778660545.0100732,2112,0,7_S
1778660545.016875,2051,0,7_S
1778660545.017906,2126,0,7_S
1778660545.018986,2033,0,7_S
1778660545.0195358,1991,0,7_S
1778660545.021269,2091,0,7_S
1778660545.0245178,2374,0,7_S
1778660545.024713,2342,0,7_S
1778660545.026335,2263,0,7_S
1778660545.0313432,2187,0,7_S
1778660545.03191,2216,0,7_S
1778660545.03212,2162,0,7_S
1778660545.034632,2022,0,7_S
1778660545.035993,2147,0,7_S
1778660545.038668,2338,0,7_S
1778660545.041997,2431,0,7_S
1778660545.042112,2271,0,7_S
1778660545.044781,2235,0,7_S
1778660545.046134,2287,0,7_S
1778660545.052605,2314,0,7_S
1778660545.054069,2115,0,7_S
1778660545.0542688,2191,0,7_S
1778660545.055823,2324,0,7_S
1778660545.056054,2485,0,7_S
1778660545.059817,2243,0,7_S
1778660545.060863,2279,0,7_S
1778660545.0664299,2178,0,7_S
1778660545.0668201,2345,0,7_S
1778660545.067035,2281,0,7_S
1778660545.069669,2143,0,7_S
1778660545.0710971,2402,0,7_S
1778660545.072442,2541,0,7_S
1778660545.07378,2281,0,7_S
1778660545.079849,2205,0,7_S
1778660545.0831912,2088,0,7_S
1778660545.083544,2205,0,7_S
1778660545.085907,2186,0,7_S
1778660545.086064,2183,0,7_S
1778660545.086553,2239,0,7_S
1778660545.090336,2440,0,7_S
1778660545.094029,2481,0,7_S
1778660545.094194,2349,0,7_S
1778660545.09445,2236,0,7_S
1778660545.0965838,2268,0,7_S
1778660545.097932,2348,0,7_S
1778660545.099935,2102,0,7_S
1778660545.102612,2115,0,7_S
1778660545.1039722,2294,0,7_S
1778660545.106605,2388,0,7_S
1778660545.108163,2222,0,7_S
1778660545.1160371,2053,0,7_S
1778660545.1187708,1993,0,7_S
1778660545.118892,2194,0,7_S
1778660545.119447,2240,0,7_S
1778660545.119987,2039,0,7_S
1778660545.120617,2220,0,7_S
1778660545.12355,2481,0,7_S
1778660545.126852,2385,0,7_S
1778660545.1275158,2273,0,7_S
1778660545.1301382,2117,0,7_S
1778660545.130215,2097,0,7_S
1778660545.13284,2145,0,7_S
1778660545.1340091,2045,0,7_S
1778660545.14064,2008,0,7_S
1778660545.141278,2158,0,7_S
1778660545.1433868,2287,0,7_S
1778660545.147012,2286,0,7_S
1778660545.1476648,2206,0,7_S
1778660545.148802,2224,0,7_S
1778660545.150563,2269,0,7_S
1778660545.150864,1826,0,7_S
1778660545.1541069,1807,0,7_S
1778660545.1545339,2118,0,7_S
1778660545.157086,2402,0,7_S
1778660545.158449,2264,0,7_S
1778660545.15978,2196,0,7_S
1778660545.162254,2075,0,7_S
1778660545.164871,2180,0,7_S
1778660545.166204,2093,0,7_S
1778660545.173429,2030,0,7_S
1778660545.176209,2150,0,7_S
1778660545.1764412,2286,0,7_S
1778660545.176768,2281,0,7_S
1778660545.17695,2155,0,7_S
1778660545.179696,2009,0,7_S
1778660545.180266,2032,0,7_S
1778660545.182048,2092,0,7_S
1778660545.186993,1951,0,7_S
1778660545.187606,2095,0,7_S
1778660545.1879292,2257,0,7_S
1778660545.190272,2286,0,7_S
1778660545.191736,2076,0,7_S
1778660545.19438,1900,0,7_S
1778660545.195733,1954,0,7_S
1778660545.200914,2079,0,7_S
1778660545.201967,2058,0,7_S
1778660545.203109,1951,0,7_S
1778660545.2047958,2064,0,7_S
1778660545.2073169,2281,0,7_S
1778660545.209373,2081,0,7_S
1778660545.2147179,1992,0,7_S
1778660545.215208,1918,0,7_S
1778660545.2154171,1899,0,7_S
1778660545.217917,2008,0,7_S
1778660545.21798,1847,0,7_S
1778660545.220601,2050,0,7_S
1778660545.221929,2185,0,7_S
1778660545.224642,2143,0,7_S
1778660545.225982,2104,0,7_S
1778660545.2285361,2020,0,7_S
1778660545.2355268,1986,0,7_S
1778660545.2389371,2047,0,7_S
1778660545.23996,1806,0,7_S
1778660545.240688,1969,0,7_S
1778660545.242083,2092,0,7_S
1778660545.242732,2160,0,7_S
1778660545.242913,1907,0,7_S
1778660545.2451289,1883,0,7_S
1778660545.248385,2031,0,7_S
1778660545.248608,2005,0,7_S
1778660545.251324,1872,0,7_S
1778660545.252745,1773,0,7_S
1778660545.254184,2014,0,7_S
1778660545.262173,2351,0,7_S
1778660545.264271,2266,0,7_S
1778660545.265853,2052,0,7_S
1778660545.266834,1822,0,7_S
1778660545.267828,1952,0,7_S
1778660545.2688708,1868,0,7_S
1778660545.269865,1847,0,7_S
1778660545.271747,1947,0,7_S
1778660545.2752142,2093,0,7_S
1778660545.2756171,2102,0,7_S
1778660545.275839,1865,0,7_S
1778660545.278827,1861,0,7_S
1778660545.280194,1895,0,7_S
1778660545.282913,1930,0,7_S
1778660545.284283,1881,0,7_S
1778660545.2866518,1844,0,7_S
1778660545.287853,1993,0,7_S
1778660545.2985358,2278,0,7_S
1778660545.2989461,1917,0,7_S
1778660545.299212,1881,0,7_S
1778660545.301696,1902,0,7_S
1778660545.3022778,1923,0,7_S
1778660545.3023849,1919,0,7_S
1778660545.3024929,1716,0,7_S
1778660545.3060951,1881,0,7_S
1778660545.3063529,2188,0,7_S
1778660545.309288,1982,0,7_S
1778660545.3117251,1936,0,7_S
1778660545.311925,1823,0,7_S
1778660545.314513,1928,0,7_S
1778660545.315818,1882,0,7_S
1778660545.320887,1700,0,7_S
1778660545.321773,1788,0,7_S
1778660545.3226938,1877,0,7_S
1778660545.3242319,1721,0,7_S
1778660545.326443,1503,0,7_S
1778660545.328885,1411,0,7_S
1778660545.330522,1444,0,7_S
1778660545.333819,1495,0,7_S
1778660545.334311,1420,0,7_S
1778660545.3367538,1477,0,7_S
1778660545.33814,1763,0,7_S
1778660545.340737,1938,0,7_S
1778660545.342041,1788,0,7_S
1778660545.344613,1737,0,7_S
1778660545.345999,1739,0,7_S
1778660545.353805,1819,0,7_S
1778660545.3549519,1708,0,7_S
1778660545.357496,1700,0,7_S
1778660545.3580558,1850,0,7_S
1778660545.360576,2095,0,7_S
1778660545.362518,1963,0,7_S
1778660545.3627882,1881,0,7_S
1778660545.363338,1848,0,7_S
1778660545.3684359,1952,0,7_S
1778660545.368723,1841,0,7_S
1778660545.368907,1727,0,7_S
1778660545.3714812,1855,0,7_S
1778660545.372828,2050,0,7_S
1778660545.374194,2075,0,7_S
1778660545.380532,1958,0,7_S
1778660545.3815339,1908,0,7_S
1778660545.381631,1898,0,7_S
1778660545.382169,1908,0,7_S
1778660545.386933,1753,0,7_S
1778660545.387201,1846,0,7_S
1778660545.388837,2045,0,7_S
1778660545.391434,2129,0,7_S
1778660545.39442,1909,0,7_S
1778660545.394698,1814,0,7_S
1778660545.397324,1861,0,7_S
1778660545.3987,1922,0,7_S
1778660545.400023,1806,0,7_S
1778660545.402685,1822,0,7_S
1778660545.404015,1993,0,7_S
1778660545.406601,2170,0,7_S
1778660545.407937,1986,0,7_S
1778660545.41452,1938,0,7_S
1778660545.419126,1876,0,7_S
1778660545.4192839,1927,0,7_S
1778660545.420894,1876,0,7_S
1778660545.422395,1805,0,7_S
1778660545.422605,1883,0,7_S
1778660545.424772,2012,0,7_S
1778660545.424881,2051,0,7_S
1778660545.428053,2015,0,7_S
1778660545.428254,1891,0,7_S
1778660545.430708,1808,0,7_S
1778660545.4320629,1848,0,7_S
1778660545.434703,1790,0,7_S
1778660545.440473,1856,0,7_S
1778660545.441134,2056,0,7_S
1778660545.4425752,2183,0,7_S
1778660545.4427981,1988,0,7_S
1778660545.444552,1881,0,7_S
1778660545.447294,1878,0,7_S
1778660545.449467,1945,0,7_S
1778660545.451305,1841,0,7_S
1778660545.454696,1846,0,7_S
1778660545.4568288,1939,0,7_S
1778660545.457543,2131,0,7_S
1778660545.458899,1991,0,7_S
1778660545.4602292,1952,0,7_S
1778660545.462879,1905,0,7_S
1778660545.4642282,1998,0,7_S
1778660545.466889,1926,0,7_S
1778660545.468561,1734,0,7_S
1778660545.475327,1869,0,7_S
1778660545.477094,2126,0,7_S
1778660545.4801002,2133,0,7_S
1778660545.4803278,1995,0,7_S
1778660545.480923,1911,0,7_S
1778660545.4819462,1957,0,7_S
1778660545.482529,1937,0,7_S
1778660545.484616,1819,0,7_S
1778660545.487673,1896,0,7_S
1778660545.488148,2047,0,7_S
1778660545.490616,2187,0,7_S
1778660545.49196,1993,0,7_S
1778660545.494658,1855,0,7_S
1778660545.500486,1786,0,7_S
1778660545.500629,2007,0,7_S
1778660545.501309,1863,0,7_S
1778660545.503958,1829,0,7_S
1778660545.5043468,1993,0,7_S
1778660545.507033,2206,0,7_S
1778660545.509078,2124,0,7_S
1778660545.5107808,1969,0,7_S
1778660545.5137322,1853,0,7_S
1778660545.514003,1971,0,7_S
1778660545.516713,1966,0,7_S
1778660545.5181901,1780,0,7_S
1778660545.519642,1910,0,7_S
1778660545.5223098,2137,0,7_S
1778660545.523647,2205,0,7_S
1778660545.526282,1970,0,7_S
1778660545.532306,1897,0,7_S
1778660545.532614,1970,0,7_S
1778660545.534514,1987,0,7_S
1778660545.536284,1864,0,7_S
1778660545.536546,1855,0,7_S
1778660545.5388129,2036,0,7_S
1778660545.5408509,2199,0,7_S
1778660545.543173,2039,0,7_S
1778660545.546259,1941,0,7_S
1778660545.546435,1889,0,7_S
1778660545.5484018,2035,0,7_S
1778660545.549741,1924,0,7_S
1778660545.552083,1841,0,7_S
1778660545.558469,2006,0,7_S
1778660545.558563,2221,0,7_S
1778660545.559071,2123,0,7_S
1778660545.562583,1956,0,7_S
1778660545.5627468,1924,0,7_S
1778660545.5658429,1954,0,7_S
1778660545.5669272,1952,0,7_S
1778660545.5728939,1879,0,7_S
1778660545.57314,1907,0,7_S
1778660545.573628,2127,0,7_S
1778660545.574005,2178,0,7_S
1778660545.576641,2026,0,7_S
1778660545.578016,1896,0,7_S
1778660545.5806541,1871,0,7_S
1778660545.582012,1998,0,7_S
1778660545.58466,1867,0,7_S
1778660545.586105,1852,0,7_S
1778660545.593855,2006,0,7_S
1778660545.595009,2170,0,7_S
1778660545.596618,2034,0,7_S
1778660545.5970821,1957,0,7_S
1778660545.598679,1941,0,7_S
1778660545.60044,2037,0,7_S
1778660545.601098,1893,0,7_S
1778660545.606868,1810,0,7_S
1778660545.6071942,1977,0,7_S
1778660545.607373,2216,0,7_S
1778660545.609813,2110,0,7_S
1778660545.610519,1927,0,7_S
1778660545.611852,1883,0,7_S
1778660545.614479,1955,0,7_S
1778660545.6161,1954,0,7_S
1778660545.622168,1830,0,7_S
1778660545.625503,1899,0,7_S
1778660545.625728,2083,0,7_S
1778660545.627732,2166,0,7_S
1778660545.628362,1985,0,7_S
1778660545.6294699,1867,0,7_S
1778660545.63057,1764,0,7_S
1778660545.636024,1798,0,7_S
1778660545.636252,1834,0,7_S
1778660545.636544,1911,0,7_S
1778660545.638581,2101,0,7_S
1778660545.639938,2232,0,7_S
1778660545.642545,2033,0,7_S
1778660545.643873,1976,0,7_S
1778660545.646487,1979,0,7_S
1778660545.647831,2115,0,7_S
1778660545.6504588,1979,0,7_S
1778660545.656993,1901,0,7_S
1778660545.658912,2019,0,7_S
1778660545.660554,2169,0,7_S
1778660545.6609778,2051,0,7_S
1778660545.661279,2018,0,7_S
1778660545.6633742,1878,0,7_S
1778660545.665704,1757,0,7_S
1778660545.668396,1699,0,7_S
1778660545.668621,1741,0,7_S
1778660545.671794,1541,0,7_S
1778660545.6725519,1599,0,7_S
1778660545.675179,2447,0,7_S
1778660545.6766012,2338,0,7_S
1778660545.677952,1842,0,7_S
1778660545.684535,1798,0,7_S
1778660545.6851149,2308,0,7_S
1778660545.6860201,2465,0,7_S
1778660545.6865852,2222,0,7_S
1778660545.6883159,2118,0,7_S
1778660545.6904829,1819,0,7_S
1778660545.692095,2000,0,7_S
1778660545.694617,2289,0,7_S
1778660545.6969879,2194,0,7_S
1778660545.6994638,2031,0,7_S
1778660545.700904,1711,0,7_S
1778660545.7021172,1674,0,7_S
1778660545.7046819,1986,0,7_S
1778660545.7059798,2338,0,7_S
1778660545.708534,2204,0,7_S
1778660545.7101078,2020,0,7_S
1778660545.715575,1818,0,7_S
1778660545.716156,1881,0,7_S
1778660545.717201,2002,0,7_S
1778660545.719105,1723,0,7_S
1778660545.721091,1637,0,7_S
1778660545.722655,2047,0,7_S
1778660545.725445,2351,0,7_S
1778660545.727991,2075,0,7_S
1778660545.728283,1885,0,7_S
1778660545.730916,1847,0,7_S
1778660545.7323039,1958,0,7_S
1778660545.733641,1917,0,7_S
1778660545.7407901,1951,0,7_S
1778660545.740902,2082,0,7_S
1778660545.7441652,2152,0,7_S
1778660545.7446442,1929,0,7_S
1778660545.7478762,1866,0,7_S
1778660545.7490492,1877,0,7_S
1778660545.7516842,1916,0,7_S
1778660545.754296,1716,0,7_S
1778660545.754592,1862,0,7_S
1778660545.755054,2065,0,7_S
1778660545.757775,2252,0,7_S
1778660545.7579122,2081,0,7_S
1778660545.7605839,2003,0,7_S
1778660545.761965,1785,0,7_S
1778660545.764576,1926,0,7_S
1778660545.765964,2122,0,7_S
1778660545.7684412,1976,0,7_S
1778660545.7756119,1927,0,7_S
1778660545.776206,2047,0,7_S
1778660545.7782788,2151,0,7_S
1778660545.78088,1865,0,7_S
1778660545.7825549,1954,0,7_S
1778660545.784003,1997,0,7_S
1778660545.78582,2015,0,7_S
1778660545.786098,1667,0,7_S
1778660545.788618,1641,0,7_S
1778660545.789165,2167,0,7_S
1778660545.7917418,2323,0,7_S
1778660545.791798,2092,0,7_S
1778660545.794394,1950,0,7_S
1778660545.795726,1944,0,7_S
1778660545.801576,1942,0,7_S
1778660545.804395,2028,0,7_S
1778660545.8046248,1902,0,7_S
1778660545.8049731,1898,0,7_S
1778660545.807204,2247,0,7_S
1778660545.8093781,2322,0,7_S
1778660545.8120792,2080,0,7_S
1778660545.8122098,1807,0,7_S
1778660545.814742,1785,0,7_S
1778660545.8174982,1675,0,7_S
1778660545.817562,1824,0,7_S
1778660545.820161,1903,0,7_S
1778660545.822767,2317,0,7_S
1778660545.824092,2306,0,7_S
1778660545.82555,2028,0,7_S
1778660545.8284779,1481,0,7_S
1778660545.834351,1820,0,7_S
1778660545.834989,2391,0,7_S
1778660545.8351629,2250,0,7_S
1778660545.8371682,2068,0,7_S
1778660545.839571,2103,0,7_S
1778660545.8406432,2175,0,7_S
1778660545.842298,2081,0,7_S
1778660545.84686,2170,0,7_S
1778660545.8472261,2216,0,7_S
1778660545.8498719,1917,0,7_S
1778660545.849942,2029,0,7_S
1778660545.852581,1929,0,7_S
1778660545.8539982,2016,0,7_S
1778660545.859775,2042,0,7_S
1778660545.8599539,1999,0,7_S
1778660545.8619468,1953,0,7_S
1778660545.862126,1872,0,7_S
1778660545.8636138,1965,0,7_S
1778660545.8676429,1847,0,7_S
1778660545.8686662,1517,0,7_S
1778660545.873155,1723,0,7_S
1778660545.873374,1761,0,7_S
1778660545.873779,1777,0,7_S
1778660545.876269,1820,0,7_S
1778660545.8776808,2279,0,7_S
1778660545.880312,2192,0,7_S
1778660545.8816361,1895,0,7_S
1778660545.884508,1933,0,7_S
1778660545.8858922,1815,0,7_S
1778660545.893319,2020,0,7_S
1778660545.896019,2243,0,7_S
1778660545.8980029,2066,0,7_S
1778660545.898975,1766,0,7_S
1778660545.899159,2049,0,7_S
1778660545.899727,1967,0,7_S
1778660545.899888,1799,0,7_S
1778660545.905524,1825,0,7_S
1778660545.906005,2058,0,7_S
1778660545.9062479,1163,0,7_S
1778660545.908315,2244,0,7_S
1778660545.909666,2923,0,7_S
1778660545.9122949,2103,0,7_S
1778660545.918596,1769,0,7_S
1778660545.919615,1966,0,7_S
1778660545.919799,2075,0,7_S
1778660545.9217842,2048,0,7_S
1778660545.922258,1686,0,7_S
1778660545.924423,1829,0,7_S
1778660545.926116,2091,0,7_S
1778660545.928575,1710,0,7_S
1778660545.9317691,1370,0,7_S
1778660545.932155,2065,0,7_S
1778660545.934679,1674,0,7_S
1778660545.936051,1838,0,7_S
1778660545.938716,2034,0,7_S
1778660545.940077,1604,0,7_S
1778660545.9414809,1724,0,7_S
1778660545.944087,2171,0,7_S
1778660545.945515,1349,0,7_S
1778660545.952286,2017,0,7_S
1778660545.952874,2502,0,7_S
1778660545.9544241,2038,0,7_S
1778660545.954726,1796,0,7_S
1778660545.957636,1955,0,7_S
1778660545.958338,2379,0,7_S
1778660545.961495,1934,0,7_S
1778660545.961844,1722,0,7_S
1778660545.9648309,1593,0,7_S
1778660545.967411,1044,0,7_S
1778660545.967725,1409,0,7_S
1778660545.97033,860,0,7_S
1778660545.971742,1302,0,7_S
1778660545.978837,3950,0,7_S
1778660545.981302,3345,0,7_S
1778660545.981632,1041,0,7_S
1778660545.982003,1681,0,7_S
1778660545.983746,2444,0,7_S
1778660545.984242,2582,0,7_S
1778660545.985924,2211,0,7_S
1778660545.98899,2026,0,7_S
1778660545.992048,2134,0,7_S
1778660545.9922009,1939,0,7_S
1778660545.9947882,1694,0,7_S
1778660545.996158,1778,0,7_S
1778660545.997539,1772,0,7_S
1778660546.000212,1173,0,7_S
1778660546.00176,1328,0,7_S
1778660546.004394,2195,0,7_S
1778660546.005963,2124,0,7_S
1778660546.012838,1608,0,7_S
1778660546.014694,1181,0,7_S
1778660546.018303,1445,0,7_S
1778660546.022329,1577,0,7_S
1778660546.022601,698,0,7_S
1778660546.025772,1918,0,7_S
1778660546.026001,2051,0,7_S
1778660546.026397,1730,0,7_S
1778660546.02669,1749,0,7_S
1778660546.0270872,1336,0,7_S
1778660546.029742,2148,0,7_S
1778660546.029805,1836,0,7_S
1778660546.032466,1800,0,7_S
1778660546.033833,1251,0,7_S
1778660546.0400178,751,0,7_S
1778660546.0402272,936,0,7_S
1778660546.040844,2504,0,7_S
1778660546.047441,2365,0,7_S
1778660546.048575,2214,0,7_S
1778660546.0486872,1907,0,7_S
1778660546.051151,2052,0,7_S
1778660546.054678,2130,0,7_S
1778660546.055352,1848,0,7_S
1778660546.0581279,1428,0,7_S
1778660546.058486,2097,0,7_S
1778660546.058651,2159,0,7_S
1778660546.060009,1940,0,7_S
1778660546.062528,1955,0,7_S
1778660546.06388,2045,0,7_S
1778660546.066695,2182,0,7_S
1778660546.068065,2205,0,7_S
1778660546.069428,2181,0,7_S
1778660546.075904,2285,0,7_S
1778660546.076983,2228,0,7_S
1778660546.079489,1789,0,7_S
1778660546.081734,1683,0,7_S
1778660546.084498,1734,0,7_S
1778660546.084699,1968,0,7_S
1778660546.0869849,1930,0,7_S
1778660546.087208,1889,0,7_S
1778660546.090501,1902,0,7_S
1778660546.0907578,2237,0,7_S
1778660546.0934489,1973,0,7_S
1778660546.093499,2056,0,7_S
1778660546.0960739,2046,0,7_S
1778660546.102657,2114,0,7_S
1778660546.1036081,2257,0,7_S
1778660546.103744,1822,0,7_S
1778660546.104222,1960,0,7_S
1778660546.1063738,2124,0,7_S
1778660546.108186,2532,0,7_S
1778660546.1096761,2249,0,7_S
1778660546.112521,1862,0,7_S
1778660546.11539,1881,0,7_S
1778660546.1155689,2006,0,7_S
1778660546.1181388,1922,0,7_S
1778660546.119437,1947,0,7_S
1778660546.122002,2276,0,7_S
1778660546.124578,2256,0,7_S
1778660546.125895,2038,0,7_S
1778660546.128705,2064,0,7_S
1778660546.135699,1925,0,7_S
1778660546.136321,1814,0,7_S
1778660546.137905,1660,0,7_S
1778660546.1406772,2436,0,7_S
1778660546.1414242,2610,0,7_S
1778660546.142145,2555,0,7_S
1778660546.142375,2273,0,7_S
1778660546.144184,2010,0,7_S
1778660546.149068,1965,0,7_S
1778660546.149436,2158,0,7_S
1778660546.149919,2206,0,7_S
1778660546.152509,2021,0,7_S
1778660546.153911,2015,0,7_S
1778660546.156548,2143,0,7_S
1778660546.162603,2157,0,7_S
1778660546.1643672,1998,0,7_S
1778660546.166146,1861,0,7_S
1778660546.168494,2007,0,7_S
1778660546.1690829,2187,0,7_S
1778660546.169665,2090,0,7_S
1778660546.171813,1973,0,7_S
1778660546.174281,2049,0,7_S
1778660546.174486,2258,0,7_S
1778660546.177563,2120,0,7_S
1778660546.177804,2078,0,7_S
1778660546.1799638,2071,0,7_S
1778660546.182608,2024,0,7_S
1778660546.1839721,1952,0,7_S
1778660546.1865861,2079,0,7_S
1778660546.187958,2148,0,7_S
1778660546.19059,2196,0,7_S
1778660546.196793,2500,0,7_S
1778660546.19848,2228,0,7_S
1778660546.200535,1882,0,7_S
1778660546.200897,2190,0,7_S
1778660546.2036731,2273,0,7_S
1778660546.204763,1912,0,7_S
1778660546.205444,1963,0,7_S
1778660546.2061,2152,0,7_S
1778660546.211188,2162,0,7_S
1778660546.211648,2052,0,7_S
1778660546.211852,2057,0,7_S
1778660546.2141771,2124,0,7_S
1778660546.2155561,2101,0,7_S
1778660546.218186,1901,0,7_S
1778660546.2245078,1990,0,7_S
1778660546.226805,2093,0,7_S
1778660546.22693,2260,0,7_S
1778660546.227264,1833,0,7_S
1778660546.230455,1872,0,7_S
1778660546.231035,2111,0,7_S
1778660546.2339551,2510,0,7_S
1778660546.236935,2244,0,7_S
1778660546.2372658,2087,0,7_S
1778660546.23968,2485,0,7_S
1778660546.239933,2087,0,7_S
1778660546.2425652,2007,0,7_S
1778660546.243959,2125,0,7_S
1778660546.2466319,1664,0,7_S
1778660546.247822,2161,0,7_S
1778660546.250474,1529,0,7_S
1778660546.260467,1130,0,7_S
1778660546.262666,2342,0,7_S
1778660546.268141,2334,0,7_S
1778660546.268637,2243,0,7_S
1778660546.2689788,2241,0,7_S
1778660546.269289,2594,0,7_S
1778660546.27104,1579,0,7_S
1778660546.2717922,1811,0,7_S
1778660546.2719228,1479,0,7_S
1778660546.272012,1656,0,7_S
1778660546.272052,2133,0,7_S
1778660546.273428,2449,0,7_S
1778660546.276237,1838,0,7_S
1778660546.2821481,2195,0,7_S
1778660546.284522,1642,0,7_S
1778660546.284872,1787,0,7_S
1778660546.285161,1828,0,7_S
1778660546.288646,1800,0,7_S
1778660546.291659,1814,0,7_S
1778660546.294878,1850,0,7_S
1778660546.295528,1739,0,7_S
1778660546.295876,1876,0,7_S
1778660546.2961018,1611,0,7_S
1778660546.2985432,1843,0,7_S
1778660546.299896,2167,0,7_S
1778660546.302507,1958,0,7_S
1778660546.303848,1457,0,7_S
1778660546.306442,1947,0,7_S
1778660546.307779,1981,0,7_S
1778660546.315604,1696,0,7_S
1778660546.3176131,1773,0,7_S
1778660546.317842,1848,0,7_S
1778660546.317937,1723,0,7_S
1778660546.319959,1293,0,7_S
1778660546.320527,1369,0,7_S
1778660546.322187,1875,0,7_S
1778660546.327727,2285,0,7_S
1778660546.328148,1694,0,7_S
1778660546.328656,1059,0,7_S
1778660546.331017,1188,0,7_S
1778660546.3323798,2358,0,7_S
1778660546.333788,1629,0,7_S
1778660546.3413088,655,0,7_S
1778660546.342245,2138,0,7_S
1778660546.344356,3528,0,7_S
1778660546.3446841,2683,0,7_S
1778660546.3467588,287,0,7_S
1778660546.347732,0,0,7_S
1778660546.348246,2074,0,7_S
1778660546.3508742,3692,0,7_S
1778660546.355938,2588,0,7_S
1778660546.356214,1285,0,7_S
1778660546.356281,2824,0,7_S
1778660546.357704,3304,0,7_S
1778660546.362056,3379,0,7_S
1778660546.362137,2680,0,7_S
1778660546.363487,2353,0,7_S
1778660546.366166,3180,0,7_S
1778660546.371037,2022,0,7_S
1778660546.372121,1054,0,7_S
1778660546.37447,506,0,7_S
1778660546.377078,3067,0,7_S
1778660546.379084,3322,0,7_S
1778660546.379793,3090,0,7_S
1778660546.382018,2711,0,7_S
1778660546.385529,2555,0,7_S
1778660546.385934,2232,0,7_S
1778660546.386155,1281,0,7_S
1778660546.38866,1171,0,7_S
1778660546.390087,3283,0,7_S
1778660546.3914912,3240,0,7_S
1778660546.3983948,1972,0,7_S
1778660546.398933,1848,0,7_S
1778660546.401185,1862,0,7_S
1778660546.403072,2359,0,7_S
1778660546.404496,2363,0,7_S
1778660546.4050639,2700,0,7_S
1778660546.4077802,2465,0,7_S
1778660546.4111218,1784,0,7_S
1778660546.411468,1530,0,7_S
1778660546.411808,1641,0,7_S
1778660546.4140449,1973,0,7_S
1778660546.415394,2405,0,7_S
1778660546.418017,2360,0,7_S
1778660546.4193962,2221,0,7_S
1778660546.422003,2218,0,7_S
1778660546.424566,2181,0,7_S
1778660546.4303339,1918,0,7_S
1778660546.430996,1840,0,7_S
1778660546.431941,1949,0,7_S
1778660546.432611,2197,0,7_S
1778660546.437523,2212,0,7_S
1778660546.4385989,2118,0,7_S
1778660546.439234,2175,0,7_S
1778660546.4399428,2035,0,7_S
1778660546.4452229,1981,0,7_S
1778660546.4454331,2014,0,7_S
1778660546.44595,1934,0,7_S
1778660546.448621,2265,0,7_S
1778660546.45004,2497,0,7_S
1778660546.451395,2229,0,7_S
1778660546.4588711,2268,0,7_S
1778660546.462176,2373,0,7_S
1778660546.462517,2422,0,7_S
1778660546.462795,2183,0,7_S
1778660546.46466,2021,0,7_S
1778660546.465326,2028,0,7_S
1778660546.4658592,2052,0,7_S
1778660546.467977,1956,0,7_S
1778660546.4733708,1981,0,7_S
1778660546.473569,2176,0,7_S
1778660546.473678,2415,0,7_S
1778660546.47615,2286,0,7_S
1778660546.4775271,2132,0,7_S
1778660546.4801579,2011,0,7_S
1778660546.481499,2108,0,7_S
1778660546.484143,1999,0,7_S
1778660546.485472,1939,0,7_S
1778660546.49222,2021,0,7_S
1778660546.495088,2168,0,7_S
1778660546.495279,2282,0,7_S
1778660546.495574,2187,0,7_S
1778660546.4958029,2046,0,7_S
1778660546.499894,2073,0,7_S
1778660546.502514,2043,0,7_S
1778660546.5028532,1834,0,7_S
1778660546.506412,2021,0,7_S
1778660546.506714,2142,0,7_S
1778660546.508903,2022,0,7_S
1778660546.510249,2182,0,7_S
1778660546.511583,2223,0,7_S
1778660546.520138,2117,0,7_S
1778660546.520753,2103,0,7_S
1778660546.522444,2042,0,7_S
1778660546.522686,2241,0,7_S
1778660546.522906,2522,0,7_S
1778660546.525281,2811,0,7_S
1778660546.525861,2745,0,7_S
1778660546.527477,2669,0,7_S
1778660546.533212,2595,0,7_S
1778660546.533345,2651,0,7_S
1778660546.5335948,2609,0,7_S
1778660546.536395,2484,0,7_S
1778660546.537759,2543,0,7_S
1778660546.5403981,2663,0,7_S
1778660546.541748,2550,0,7_S
1778660546.544364,2220,0,7_S
1778660546.546072,2122,0,7_S
1778660546.547638,2187,0,7_S
1778660546.5525959,2250,0,7_S
1778660546.553681,2077,0,7_S
1778660546.554715,2174,0,7_S
1778660546.556384,2290,0,7_S
1778660546.558409,2400,0,7_S
1778660546.560066,2199,0,7_S
1778660546.56637,2105,0,7_S
1778660546.5664399,2067,0,7_S
1778660546.566566,2110,0,7_S
1778660546.5690901,1990,0,7_S
1778660546.570474,1917,0,7_S
1778660546.571904,2108,0,7_S
1778660546.573329,2267,0,7_S
1778660546.5822551,2125,0,7_S
1778660546.584468,2002,0,7_S
1778660546.586438,2022,0,7_S
1778660546.587838,2055,0,7_S
1778660546.593073,2000,0,7_S
1778660546.593481,1941,0,7_S
1778660546.593791,2091,0,7_S
1778660546.5940852,2262,0,7_S
1778660546.5942888,2227,0,7_S
1778660546.594486,2069,0,7_S
1778660546.59697,1985,0,7_S
1778660546.598337,1985,0,7_S
1778660546.599686,2011,0,7_S
1778660546.602166,1866,0,7_S
1778660546.6035352,1944,0,7_S
1778660546.606176,2114,0,7_S
1778660546.607541,2296,0,7_S
1778660546.6135979,2116,0,7_S
1778660546.614783,1990,0,7_S
1778660546.6158888,1984,0,7_S
1778660546.6176481,2085,0,7_S
1778660546.617833,1969,0,7_S
1778660546.620233,1941,0,7_S
1778660546.6221938,2116,0,7_S
1778660546.6283112,2308,0,7_S
1778660546.628609,2166,0,7_S
1778660546.6288261,2019,0,7_S
1778660546.631568,2022,0,7_S
1778660546.6316879,2068,0,7_S
1778660546.634312,2017,0,7_S
1778660546.635665,1900,0,7_S
1778660546.6423821,1996,0,7_S
1778660546.6425998,2196,0,7_S
1778660546.643569,2229,0,7_S
1778660546.6483898,2078,0,7_S
1778660546.65187,1962,0,7_S
1778660546.655456,1947,0,7_S
1778660546.6559732,2041,0,7_S
1778660546.6562262,1949,0,7_S
1778660546.656718,1948,0,7_S
1778660546.657021,2139,0,7_S
1778660546.659552,2323,0,7_S
1778660546.65962,2143,0,7_S
1778660546.6622562,2042,0,7_S
1778660546.6636019,1987,0,7_S
1778660546.666239,2092,0,7_S
1778660546.667611,2000,0,7_S
1778660546.670469,1919,0,7_S
1778660546.680743,2043,0,7_S
1778660546.682453,2268,0,7_S
1778660546.682933,2160,0,7_S
1778660546.6855638,2040,0,7_S
1778660546.685786,1983,0,7_S
1778660546.689427,2082,0,7_S
1778660546.6897438,2023,0,7_S
1778660546.690134,1931,0,7_S
1778660546.690364,1997,0,7_S
1778660546.690685,2209,0,7_S
1778660546.693271,2296,0,7_S
1778660546.6933298,2099,0,7_S
1778660546.695791,2003,0,7_S
1778660546.703933,2056,0,7_S
1778660546.706795,2102,0,7_S
1778660546.708732,1984,0,7_S
1778660546.709961,1979,0,7_S
1778660546.711561,2135,0,7_S
1778660546.711696,2273,0,7_S
1778660546.71327,2067,0,7_S
1778660546.715246,2005,0,7_S
1778660546.719167,1964,0,7_S
1778660546.719299,2088,0,7_S
1778660546.719627,1967,0,7_S
1778660546.719795,1952,0,7_S
1778660546.722634,2011,0,7_S
1778660546.724003,2246,0,7_S
1778660546.725356,2273,0,7_S
1778660546.728001,2073,0,7_S
1778660546.7292879,2020,0,7_S
1778660546.7318091,2095,0,7_S
1778660546.733259,2096,0,7_S
1778660546.738204,1893,0,7_S
1778660546.7421792,2006,0,7_S
1778660546.7425401,2200,0,7_S
1778660546.742929,2241,0,7_S
1778660546.745829,2054,0,7_S
1778660546.746478,1977,0,7_S
1778660546.753248,1974,0,7_S
1778660546.753498,2029,0,7_S
1778660546.754036,1951,0,7_S
1778660546.754336,1953,0,7_S
1778660546.7568629,2111,0,7_S
1778660546.75823,2197,0,7_S
1778660546.759595,2044,0,7_S
1778660546.768158,2040,0,7_S
1778660546.768414,1981,0,7_S
1778660546.769116,2023,0,7_S
1778660546.769826,1894,0,7_S
1778660546.7713568,1914,0,7_S
1778660546.7715058,2076,0,7_S
1778660546.775407,2193,0,7_S
1778660546.776093,2014,0,7_S
1778660546.778781,2037,0,7_S
1778660546.7824872,1983,0,7_S
1778660546.782816,2054,0,7_S
1778660546.785553,2092,0,7_S
1778660546.785624,1916,0,7_S
1778660546.7883031,1914,0,7_S
1778660546.789691,2143,0,7_S
1778660546.792328,2291,0,7_S
1778660546.793677,2100,0,7_S
1778660546.796304,1923,0,7_S
1778660546.805399,1914,0,7_S
1778660546.805794,2013,0,7_S
1778660546.806131,1992,0,7_S
1778660546.8090281,1939,0,7_S
1778660546.810152,1899,0,7_S
1778660546.810842,2095,0,7_S
1778660546.811486,1914,0,7_S
1778660546.812014,2015,0,7_S
1778660546.814075,2187,0,7_S
1778660546.817718,2125,0,7_S
1778660546.817858,1825,0,7_S
1778660546.820138,1647,0,7_S
1778660546.821832,2051,0,7_S
1778660546.823243,2472,0,7_S
1778660546.8261461,2195,0,7_S
1778660546.831441,1905,0,7_S
1778660546.831636,1678,0,7_S
1778660546.8326201,2037,0,7_S
1778660546.835233,2164,0,7_S
1778660546.8387141,1867,0,7_S
1778660546.83905,2035,0,7_S
1778660546.842284,2290,0,7_S
1778660546.845695,2454,0,7_S
1778660546.845875,2252,0,7_S
1778660546.846015,2076,0,7_S
1778660546.848442,1936,0,7_S
1778660546.8497548,1896,0,7_S
1778660546.8523252,1920,0,7_S
1778660546.853633,1978,0,7_S
1778660546.856204,2173,0,7_S
1778660546.857527,2086,0,7_S
1778660546.86389,1568,0,7_S
1778660546.864416,1568,0,7_S
1778660546.864937,1399,0,7_S
1778660546.867452,1419,0,7_S
1778660546.86764,1151,0,7_S
1778660546.870954,1215,0,7_S
1778660546.8739042,1624,0,7_S
1778660546.874054,1899,0,7_S
1778660546.877523,1780,0,7_S
1778660546.87761,1674,0,7_S
1778660546.880179,1872,0,7_S
1778660546.8814862,2028,0,7_S
1778660546.8840451,1950,0,7_S
1778660546.885597,1757,0,7_S
1778660546.8920991,1720,0,7_S
1778660546.893312,1977,0,7_S
1778660546.8965251,2107,0,7_S
1778660546.897237,1956,0,7_S
1778660546.898311,1955,0,7_S
1778660546.902215,1950,0,7_S
1778660546.90589,2060,0,7_S
1778660546.906462,1861,0,7_S
1778660546.908778,1892,0,7_S
1778660546.9096708,2022,0,7_S
1778660546.909772,2243,0,7_S
1778660546.909882,2006,0,7_S
1778660546.911259,1991,0,7_S
1778660546.9138691,1969,0,7_S
1778660546.915251,2075,0,7_S
1778660546.917894,1957,0,7_S
1778660546.919269,1872,0,7_S
1778660546.9285262,2047,0,7_S
1778660546.930241,2182,0,7_S
1778660546.932933,2128,0,7_S
1778660546.9341571,1972,0,7_S
1778660546.935296,1956,0,7_S
1778660546.935501,2042,0,7_S
1778660546.935947,2000,0,7_S
1778660546.9361322,1842,0,7_S
1778660546.9417741,1973,0,7_S
1778660546.942261,2157,0,7_S
1778660546.942741,2257,0,7_S
1778660546.945386,2046,0,7_S
1778660546.945437,1932,0,7_S
1778660546.947941,1973,0,7_S
1778660546.9493818,2076,0,7_S
1778660546.9549801,1891,0,7_S
1778660546.956504,1797,0,7_S
1778660546.9587688,1961,0,7_S
1778660546.959139,2293,0,7_S
1778660546.9614851,2115,0,7_S
1778660546.9620612,2002,0,7_S
1778660546.964216,1882,0,7_S
1778660546.965884,2088,0,7_S
1778660546.970693,1980,0,7_S
1778660546.971176,1969,0,7_S
1778660546.9715998,2023,0,7_S
1778660546.974155,2180,0,7_S
1778660546.975512,2127,0,7_S
1778660546.978195,1984,0,7_S
1778660546.979572,1928,0,7_S
1778660546.982293,1954,0,7_S
1778660546.983669,2015,0,7_S
1778660546.985523,1872,0,7_S
1778660546.9921439,1957,0,7_S
1778660546.9927628,2103,0,7_S
1778660546.994447,2210,0,7_S
1778660546.994817,2079,0,7_S
1778660546.9981709,1975,0,7_S
1778660546.998768,1963,0,7_S
1778660547.004721,2040,0,7_S
1778660547.005228,1885,0,7_S
1778660547.0055208,1885,0,7_S
1778660547.0060558,2054,0,7_S
1778660547.00863,2274,0,7_S
1778660547.009985,2123,0,7_S
1778660547.0113332,2008,0,7_S
1778660547.0184908,2008,0,7_S
1778660547.020082,2028,0,7_S
1778660547.020311,1948,0,7_S
1778660547.022397,1865,0,7_S
1778660547.022728,1980,0,7_S
1778660547.025099,2153,0,7_S
1778660547.025295,2175,0,7_S
1778660547.0293288,2056,0,7_S
1778660547.0325592,1930,0,7_S
1778660547.032916,2075,0,7_S
1778660547.0353951,2093,0,7_S
1778660547.035456,1922,0,7_S
1778660547.0380511,1931,0,7_S
1778660547.0394392,2165,0,7_S
1778660547.0420868,2270,0,7_S
1778660547.043436,2110,0,7_S
1778660547.046006,1931,0,7_S
1778660547.052233,1998,0,7_S
1778660547.053291,2063,0,7_S
1778660547.053886,1873,0,7_S
1778660547.0560699,1888,0,7_S
1778660547.0563369,2096,0,7_S
1778660547.058381,2229,0,7_S
1778660547.059968,2141,0,7_S
1778660547.065878,1972,0,7_S
1778660547.066135,1899,0,7_S
1778660547.0663218,2024,0,7_S
1778660547.0687842,1973,0,7_S
1778660547.0701828,1931,0,7_S
1778660547.07157,2041,0,7_S
1778660547.080144,2191,0,7_S
1778660547.0821838,2237,0,7_S
1778660547.084636,2046,0,7_S
1778660547.084806,1964,0,7_S
1778660547.0859451,1994,0,7_S
1778660547.087753,2041,0,7_S
1778660547.092695,1920,0,7_S
1778660547.093128,1916,0,7_S
1778660547.093566,2129,0,7_S
1778660547.093906,2263,0,7_S
1778660547.0940218,2046,0,7_S
1778660547.096454,1951,0,7_S
1778660547.097827,1931,0,7_S
1778660547.099194,2089,0,7_S
1778660547.1018,1938,0,7_S
1778660547.103164,1831,0,7_S
1778660547.1058052,2048,0,7_S
1778660547.107157,2260,0,7_S
1778660547.114263,2132,0,7_S
1778660547.1144378,1978,0,7_S
1778660547.11609,1973,0,7_S
1778660547.116301,2033,0,7_S
1778660547.119118,2009,0,7_S
1778660547.1201699,1888,0,7_S
1778660547.126115,2004,0,7_S
1778660547.126569,2223,0,7_S
1778660547.127253,2214,0,7_S
1778660547.127549,2032,0,7_S
1778660547.129521,1929,0,7_S
1778660547.132166,1968,0,7_S
1778660547.133547,2032,0,7_S
1778660547.140449,1897,0,7_S
1778660547.142453,1908,0,7_S
1778660547.145462,2112,0,7_S
1778660547.1460469,2253,0,7_S
1778660547.147305,2078,0,7_S
1778660547.147996,2029,0,7_S
1778660547.149915,1926,0,7_S
1778660547.152834,2058,0,7_S
1778660547.153085,2037,0,7_S
1778660547.1534111,1915,0,7_S
1778660547.156173,2010,0,7_S
1778660547.1575098,2270,0,7_S
1778660547.160251,2133,0,7_S
1778660547.1616268,2040,0,7_S
1778660547.164315,1962,0,7_S
1778660547.165659,2092,0,7_S
1778660547.1671412,2010,0,7_S
1778660547.173342,1842,0,7_S
1778660547.1755378,1981,0,7_S
1778660547.175748,2206,0,7_S
1778660547.175997,2248,0,7_S
1778660547.1803992,2064,0,7_S
1778660547.182684,1963,0,7_S
1778660547.182911,1994,0,7_S
1778660547.186213,2026,0,7_S
1778660547.1870599,1887,0,7_S
1778660547.189409,1874,0,7_S
1778660547.1894789,2147,0,7_S
1778660547.1921349,2272,0,7_S
1778660547.1934779,2080,0,7_S
1778660547.200168,2077,0,7_S
1778660547.202581,1953,0,7_S
1778660547.202832,2045,0,7_S
1778660547.204928,1982,0,7_S
1778660547.206393,1890,0,7_S
1778660547.206632,2060,0,7_S
1778660547.21315,2286,0,7_S
1778660547.213386,2122,0,7_S
1778660547.213943,2005,0,7_S
1778660547.2142222,1924,0,7_S
1778660547.216792,1948,0,7_S
1778660547.2181602,2093,0,7_S
1778660547.2195258,1960,0,7_S
1778660547.22222,2026,0,7_S
1778660547.223586,2223,0,7_S
1778660547.226194,2265,0,7_S
1778660547.227521,2103,0,7_S
1778660547.234176,2029,0,7_S
1778660547.234268,2050,0,7_S
1778660547.234947,2099,0,7_S
1778660547.2372532,1942,0,7_S
1778660547.239286,1942,0,7_S
1778660547.241418,2117,0,7_S
1778660547.242018,2264,0,7_S
1778660547.247732,2053,0,7_S
1778660547.248058,2013,0,7_S
1778660547.248368,1992,0,7_S
1778660547.250985,2075,0,7_S
1778660547.251182,1995,0,7_S
1778660547.253653,1930,0,7_S
1778660547.2551072,2054,0,7_S
1778660547.260752,2282,0,7_S
1778660547.2614772,2131,0,7_S
1778660547.263489,2008,0,7_S
1778660547.2650921,2026,0,7_S
1778660547.2654872,2053,0,7_S
1778660547.269362,2022,0,7_S
1778660547.270128,1873,0,7_S
1778660547.272293,1968,0,7_S
1778660547.275357,2212,0,7_S
1778660547.275639,2299,0,7_S
1778660547.278225,2114,0,7_S
1778660547.27959,1960,0,7_S
1778660547.28226,2038,0,7_S
1778660547.2836149,2098,0,7_S
1778660547.286249,1994,0,7_S
1778660547.287613,1939,0,7_S
1778660547.296374,2135,0,7_S
1778660547.298597,2290,0,7_S
1778660547.298787,2094,0,7_S
1778660547.301307,2009,0,7_S
1778660547.303233,1996,0,7_S
1778660547.303464,2018,0,7_S
1778660547.304089,1978,0,7_S
1778660547.306452,1901,0,7_S
1778660547.3066392,2028,0,7_S
1778660547.309845,2204,0,7_S
1778660547.310157,2155,0,7_S
1778660547.3130062,2053,0,7_S
1778660547.3130748,1949,0,7_S
1778660547.315755,2009,0,7_S
1778660547.317125,1981,0,7_S
1778660547.323949,1891,0,7_S
1778660547.3254988,1995,0,7_S
1778660547.327308,2181,0,7_S
1778660547.327582,2192,0,7_S
1778660547.3301718,2056,0,7_S
1778660547.3311841,1968,0,7_S
1778660547.3328729,1903,0,7_S
1778660547.333567,1937,0,7_S
1778660547.335298,1920,0,7_S
1778660547.338079,1980,0,7_S
1778660547.3405619,2042,0,7_S
1778660547.341877,2288,0,7_S
1778660547.343178,2119,0,7_S
1778660547.3457391,2046,0,7_S
1778660547.347035,2044,0,7_S
1778660547.349594,2109,0,7_S
1778660547.3560052,2005,0,7_S
1778660547.3564942,1895,0,7_S
1778660547.3565922,2054,0,7_S
1778660547.3592372,2208,0,7_S
1778660547.3614862,2116,0,7_S
1778660547.362117,2037,0,7_S
1778660547.364067,1974,0,7_S
1778660547.365823,2029,0,7_S
1778660547.368578,2022,0,7_S
1778660547.370771,1905,0,7_S
1778660547.372583,1939,0,7_S
1778660547.374022,2179,0,7_S
1778660547.3754518,2256,0,7_S
1778660547.3826182,2067,0,7_S
1778660547.384289,2019,0,7_S
1778660547.3861818,2050,0,7_S
1778660547.387546,2049,0,7_S
1778660547.394231,1908,0,7_S
1778660547.3969321,1891,0,7_S
1778660547.397181,2030,0,7_S
1778660547.39729,2190,0,7_S
1778660547.397388,2069,0,7_S
1778660547.39745,2061,0,7_S
1778660547.397506,2022,0,7_S
1778660547.4002078,2054,0,7_S
1778660547.401599,2027,0,7_S
1778660547.403019,1979,0,7_S
1778660547.405677,2186,0,7_S
1778660547.407001,2370,0,7_S
1778660547.4148102,2203,0,7_S
1778660547.415488,1924,0,7_S
1778660547.415735,1664,0,7_S
1778660547.417839,2035,0,7_S
1778660547.420419,2081,0,7_S
1778660547.421026,1929,0,7_S
1778660547.421558,1978,0,7_S
1778660547.423223,2149,0,7_S
1778660547.425073,2318,0,7_S
1778660547.427965,2166,0,7_S
1778660547.43065,1961,0,7_S
1778660547.431977,1749,0,7_S
1778660547.433322,1830,0,7_S
1778660547.441773,1911,0,7_S
1778660547.443941,1841,0,7_S
1778660547.446474,2016,0,7_S
1778660547.44719,2231,0,7_S
1778660547.447764,2158,0,7_S
1778660547.448543,2271,0,7_S
1778660547.454514,1929,0,7_S
1778660547.454955,2062,0,7_S
1778660547.4573388,2194,0,7_S
1778660547.4576252,2070,0,7_S
1778660547.457668,1974,0,7_S
1778660547.457768,2192,0,7_S
1778660547.4595761,2024,0,7_S
1778660547.46103,2010,0,7_S
1778660547.4635231,2091,0,7_S
1778660547.466209,2160,0,7_S
1778660547.467343,1917,0,7_S
1778660547.474389,1780,0,7_S
1778660547.474561,2076,0,7_S
1778660547.475264,2323,0,7_S
1778660547.475829,2325,0,7_S
1778660547.4775429,2052,0,7_S
1778660547.480051,1960,0,7_S
1778660547.4818602,2181,0,7_S
1778660547.484446,2189,0,7_S
1778660547.4873111,1963,0,7_S
1778660547.4878888,1906,0,7_S
1778660547.4903538,1982,0,7_S
1778660547.491541,2309,0,7_S
1778660547.493078,2014,0,7_S
1778660547.502027,1542,0,7_S
1778660547.506741,1780,0,7_S
1778660547.507879,2126,0,7_S
1778660547.5084229,2187,0,7_S
1778660547.509141,1884,0,7_S
1778660547.5121229,2075,0,7_S
1778660547.512459,2270,0,7_S
1778660547.51289,2453,0,7_S
1778660547.515722,2441,0,7_S
1778660547.515973,2376,0,7_S
1778660547.5162828,2232,0,7_S
1778660547.519064,2107,0,7_S
1778660547.519189,2062,0,7_S
1778660547.5218182,2139,0,7_S
1778660547.5231931,2080,0,7_S
1778660547.525791,2298,0,7_S
1778660547.5271611,2161,0,7_S
1778660547.5298078,1965,0,7_S
1778660547.536513,1858,0,7_S
1778660547.538673,2073,0,7_S
1778660547.541278,1958,0,7_S
1778660547.542347,1950,0,7_S
1778660547.542915,2089,0,7_S
1778660547.5442472,2401,0,7_S
1778660547.5459452,2081,0,7_S
1778660547.5485098,1833,0,7_S
1778660547.548813,2006,0,7_S
1778660547.551232,2264,0,7_S
1778660547.551438,2026,0,7_S
1778660547.5541198,1875,0,7_S
1778660547.555451,1774,0,7_S
1778660547.561109,2222,0,7_S
1778660547.561203,2182,0,7_S
1778660547.5616908,1904,0,7_S
1778660547.5640562,2098,0,7_S
1778660547.565809,2115,0,7_S
1778660547.568629,2391,0,7_S
1778660547.5703099,2108,0,7_S
1778660547.572808,2043,0,7_S
1778660547.5753112,2309,0,7_S
1778660547.575562,2494,0,7_S
1778660547.57814,1839,0,7_S
1778660547.579435,1863,0,7_S
1778660547.581999,2271,0,7_S
1778660547.5833101,2262,0,7_S
1778660547.585879,1690,0,7_S
1778660547.5915709,1709,0,7_S
1778660547.5921159,2222,0,7_S
1778660547.592265,2390,0,7_S
1778660547.5940108,2522,0,7_S
1778660547.5957701,2171,0,7_S
1778660547.597873,1837,0,7_S
1778660547.602096,1721,0,7_S
1778660547.602248,1756,0,7_S
1778660547.604523,1294,0,7_S
1778660547.605828,2009,0,7_S
1778660547.607126,2999,0,7_S
1778660547.614393,2746,0,7_S
1778660547.614871,2301,0,7_S
1778660547.616496,2105,0,7_S
1778660547.616624,1965,0,7_S
1778660547.618665,2037,0,7_S
1778660547.620838,2016,0,7_S
1778660547.621008,2040,0,7_S
1778660547.624906,1941,0,7_S
1778660547.625175,1922,0,7_S
1778660547.628181,2014,0,7_S
1778660547.629482,2099,0,7_S
1778660547.632051,2098,0,7_S
1778660547.633367,2319,0,7_S
1778660547.635935,2122,0,7_S
1778660547.6372962,1987,0,7_S
1778660547.6425788,1957,0,7_S
1778660547.643473,2077,0,7_S
1778660547.645206,1881,0,7_S
1778660547.645451,1809,0,7_S
1778660547.6472168,1862,0,7_S
1778660547.651032,1960,0,7_S
1778660547.653478,1845,0,7_S
1778660547.653625,2112,0,7_S
1778660547.6558158,2291,0,7_S
1778660547.657124,2338,0,7_S
1778660547.6596868,2117,0,7_S
1778660547.6648908,1274,0,7_S
1778660547.66532,1903,0,7_S
1778660547.666185,2471,0,7_S
1778660547.669487,2377,0,7_S
1778660547.67,2097,0,7_S
1778660547.6730502,1953,0,7_S
1778660547.673264,2197,0,7_S
1778660547.675891,2334,0,7_S
1778660547.678272,2150,0,7_S
1778660547.679677,2035,0,7_S
1778660547.681015,1923,0,7_S
1778660547.683674,2078,0,7_S
1778660547.6861389,1978,0,7_S
1778660547.687437,1831,0,7_S
1778660547.693584,2088,0,7_S
1778660547.696204,2321,0,7_S
1778660547.696511,2191,0,7_S
1778660547.696764,2058,0,7_S
1778660547.6987462,1899,0,7_S
1778660547.7025821,1916,0,7_S
1778660547.702768,1299,0,7_S
1778660547.7053928,1327,0,7_S
1778660547.705662,2332,0,7_S
1778660547.708031,2178,0,7_S
1778660547.709399,1775,0,7_S
1778660547.712081,2200,0,7_S
1778660547.717129,2195,0,7_S
1778660547.717696,2385,0,7_S
1778660547.718521,2355,0,7_S
1778660547.7203991,1599,0,7_S
1778660547.7228549,1276,0,7_S
1778660547.7238731,1926,0,7_S
1778660547.7266,2605,0,7_S
1778660547.729344,2501,0,7_S
1778660547.729661,2258,0,7_S
1778660547.731752,2016,0,7_S
1778660547.733058,2208,0,7_S
1778660547.735615,2120,0,7_S
1778660547.736908,1352,0,7_S
1778660547.739597,1843,0,7_S
1778660547.740993,1124,0,7_S
1778660547.75101,2047,0,7_S
1778660547.751303,2930,0,7_S
1778660547.754323,2526,0,7_S
1778660547.7554371,1854,0,7_S
1778660547.7560909,2268,0,7_S
1778660547.7582989,2400,0,7_S
1778660547.76095,1853,0,7_S
1778660547.761107,2298,0,7_S
1778660547.761339,2044,0,7_S
1778660547.761698,1950,0,7_S
1778660547.764178,1867,0,7_S
1778660547.7655628,1745,0,7_S
1778660547.766975,2397,0,7_S
1778660547.773234,2388,0,7_S
1778660547.7737548,2455,0,7_S
1778660547.7742772,2613,0,7_S
1778660547.7764769,2594,0,7_S
1778660547.778479,1999,0,7_S
1778660547.7825549,1707,0,7_S
1778660547.785447,1516,0,7_S
1778660547.785816,1659,0,7_S
1778660547.786121,781,0,7_S
1778660547.788642,2681,0,7_S
1778660547.790041,2849,0,7_S
1778660547.7914062,2253,0,7_S
1778660547.794071,1709,0,7_S
1778660547.7954738,1852,0,7_S
1778660547.796902,2462,0,7_S
1778660547.80411,2252,0,7_S
1778660547.805193,2028,0,7_S
1778660547.8067682,1760,0,7_S
1778660547.806873,2171,0,7_S
1778660547.807028,2194,0,7_S
1778660547.81031,2182,0,7_S
1778660547.813665,2167,0,7_S
1778660547.8138309,2088,0,7_S
1778660547.816525,2023,0,7_S
1778660547.818474,1771,0,7_S
1778660547.819884,1697,0,7_S
1778660547.821237,2216,0,7_S
1778660547.828981,2284,0,7_S
1778660547.83099,2063,0,7_S
1778660547.831302,1914,0,7_S
1778660547.833202,2260,0,7_S
1778660547.83367,2437,0,7_S
1778660547.834673,2169,0,7_S
1778660547.8379252,1626,0,7_S
1778660547.840634,1722,0,7_S
1778660547.840899,2684,0,7_S
1778660547.841238,2772,0,7_S
1778660547.843578,2392,0,7_S
1778660547.844971,2082,0,7_S
1778660547.847399,2239,0,7_S
1778660547.850079,2233,0,7_S
1778660547.851462,2193,0,7_S
1778660547.8529038,2011,0,7_S
1778660547.860317,2257,0,7_S
1778660547.862175,2332,0,7_S
1778660547.862279,2267,0,7_S
1778660547.862606,2068,0,7_S
1778660547.86477,2034,0,7_S
1778660547.8661041,2119,0,7_S
1778660547.868691,2115,0,7_S
1778660547.8714728,2008,0,7_S
1778660547.871799,1981,0,7_S
1778660547.874018,1896,0,7_S
1778660547.875498,2319,0,7_S
1778660547.8768709,2432,0,7_S
1778660547.883994,2278,0,7_S
1778660547.8844538,2305,0,7_S
1778660547.885049,2417,0,7_S
1778660547.8864052,2276,0,7_S
1778660547.888211,2227,0,7_S
1778660547.891003,2347,0,7_S
1778660547.895396,2438,0,7_S
1778660547.8957472,2431,0,7_S
1778660547.89604,2342,0,7_S
1778660547.898717,2172,0,7_S
1778660547.900049,2204,0,7_S
1778660547.901427,2199,0,7_S
1778660547.904067,2120,0,7_S
1778660547.9054542,2218,0,7_S
1778660547.908117,2494,0,7_S
1778660547.914027,2492,0,7_S
1778660547.916029,2278,0,7_S
1778660547.9183328,2125,0,7_S
1778660547.920491,2133,0,7_S
1778660547.921503,2234,0,7_S
1778660547.921739,2156,0,7_S
1778660547.92276,2266,0,7_S
1778660547.922945,2339,0,7_S
1778660547.925445,2424,0,7_S
1778660547.929943,2379,0,7_S
1778660547.9306219,2338,0,7_S
1778660547.93199,2230,0,7_S
1778660547.933346,2202,0,7_S
1778660547.9393501,2183,0,7_S
1778660547.9399621,2242,0,7_S
1778660547.940587,2462,0,7_S
1778660547.942963,2416,0,7_S
1778660547.944988,2265,0,7_S
1778660547.9451,2191,0,7_S
1778660547.951435,2135,0,7_S
1778660547.9517498,2065,0,7_S
1778660547.951966,2163,0,7_S
1778660547.9538019,1926,0,7_S
1778660547.955172,2090,0,7_S
1778660547.957779,2349,0,7_S
1778660547.9590578,2413,0,7_S
1778660547.961675,2229,0,7_S
1778660547.9627688,2197,0,7_S
1778660547.970321,2315,0,7_S
1778660547.9713762,2486,0,7_S
1778660547.9719942,1892,0,7_S
1778660547.97366,1740,0,7_S
1778660547.97391,1728,0,7_S
1778660547.9775739,2410,0,7_S
1778660547.9784498,2466,0,7_S
1778660547.980143,2302,0,7_S
1778660547.983166,2197,0,7_S
1778660547.9833632,2075,0,7_S
1778660547.98518,2177,0,7_S
1778660547.9870012,2081,0,7_S
1778660547.9896462,2581,0,7_S
1778660547.996295,2628,0,7_S
1778660547.997664,2271,0,7_S
1778660547.997812,2007,0,7_S
1778660547.999082,1593,0,7_S
1778660547.999531,1717,0,7_S
1778660548.002583,2182,0,7_S
1778660548.005484,2385,0,7_S
1778660548.00835,2210,0,7_S
1778660548.008708,2180,0,7_S
1778660548.00893,2447,0,7_S
1778660548.0115252,2070,0,7_S
1778660548.012893,1929,0,7_S
1778660548.015499,2159,0,7_S
1778660548.016774,1869,0,7_S
1778660548.019386,1552,0,7_S
1778660548.020767,1838,0,7_S
1778660548.027796,2043,0,7_S
1778660548.027951,2503,0,7_S
1778660548.028961,2883,0,7_S
1778660548.029511,2327,0,7_S
1778660548.032717,2059,0,7_S
1778660548.0337632,1884,0,7_S
1778660548.037473,2141,0,7_S
1778660548.040468,2096,0,7_S
1778660548.0407171,1762,0,7_S
1778660548.041003,1675,0,7_S
1778660548.0435681,1636,0,7_S
1778660548.044981,1374,0,7_S
1778660548.047678,1555,0,7_S
1778660548.0533388,1833,0,7_S
1778660548.053477,2086,0,7_S
1778660548.054462,1878,0,7_S
1778660548.058826,1895,0,7_S
1778660548.060153,1895,0,7_S
1778660548.062195,2176,0,7_S
1778660548.062366,1828,0,7_S
1778660548.06511,1530,0,7_S
1778660548.065203,2012,0,7_S
1778660548.067544,1999,0,7_S
1778660548.0689962,1569,0,7_S
1778660548.0715451,1740,0,7_S
1778660548.072932,1685,0,7_S
1778660548.075658,1749,0,7_S
1778660548.076999,1821,0,7_S
1778660548.08319,1783,0,7_S
1778660548.083894,1692,0,7_S
1778660548.0848901,1710,0,7_S
1778660548.0865011,1639,0,7_S
1778660548.089015,1626,0,7_S
1778660548.089531,1809,0,7_S
1778660548.09118,1962,0,7_S
1778660548.093247,1817,0,7_S
1778660548.09631,1700,0,7_S
1778660548.0985758,1850,0,7_S
1778660548.1000152,2074,0,7_S
1778660548.1013608,1748,0,7_S
1778660548.102776,1053,0,7_S
1778660548.10898,856,0,7_S
1778660548.109247,2108,0,7_S
1778660548.11118,2898,0,7_S
1778660548.11289,2226,0,7_S
1778660548.1138198,2206,0,7_S
1778660548.1174982,1864,0,7_S
1778660548.117764,1593,0,7_S
1778660548.120589,1552,0,7_S
1778660548.121022,3017,0,7_S
1778660548.1234539,3062,0,7_S
1778660548.124987,1364,0,7_S
1778660548.127608,621,0,7_S
1778660548.128934,3023,0,7_S
1778660548.1315641,3213,0,7_S
1778660548.1328819,2974,0,7_S
1778660548.1390479,1542,0,7_S
1778660548.139976,2803,0,7_S
1778660548.140815,3252,0,7_S
1778660548.142158,2815,0,7_S
1778660548.143851,2734,0,7_S
1778660548.145719,2542,0,7_S
1778660548.1478121,2158,0,7_S
1778660548.15058,1915,0,7_S
1778660548.150836,1334,0,7_S
1778660548.1538188,1629,0,7_S
1778660548.155112,2129,0,7_S
1778660548.161639,2589,0,7_S
1778660548.1624188,525,0,7_S
1778660548.162508,0,0,7_S
1778660548.164022,2331,0,7_S
1778660548.166441,3287,0,7_S
1778660548.168179,3300,0,7_S
1778660548.169697,2397,0,7_S
1778660548.172541,2495,0,7_S
1778660548.174936,2814,0,7_S
1778660548.1749928,3021,0,7_S
1778660548.177548,2769,0,7_S
1778660548.178841,2312,0,7_S
1778660548.181401,1852,0,7_S
1778660548.182881,1589,0,7_S
1778660548.188857,1399,0,7_S
1778660548.1896691,1355,0,7_S
1778660548.1897988,1739,0,7_S
1778660548.1917849,2152,0,7_S
1778660548.193333,2284,0,7_S
1778660548.1950998,2073,0,7_S
1778660548.197222,1931,0,7_S
1778660548.200091,1823,0,7_S
1778660548.202237,1733,0,7_S
1778660548.203539,1659,0,7_S
1778660548.2048352,1804,0,7_S
1778660548.210143,2090,0,7_S
1778660548.210596,2301,0,7_S
1778660548.211058,2165,0,7_S
1778660548.213284,2022,0,7_S
1778660548.215287,1925,0,7_S
1778660548.218475,1951,0,7_S
1778660548.221308,1816,0,7_S
1778660548.2214148,1871,0,7_S
1778660548.223389,2033,0,7_S
1778660548.224774,2248,0,7_S
1778660548.227333,2158,0,7_S
1778660548.22991,2124,0,7_S
1778660548.2312021,2020,0,7_S
1778660548.236887,1984,0,7_S
1778660548.237269,1914,0,7_S
1778660548.237377,1837,0,7_S
1778660548.2392588,2002,0,7_S
1778660548.241097,2247,0,7_S
1778660548.243125,2301,0,7_S
1778660548.2471008,2200,0,7_S
1778660548.247177,2038,0,7_S
1778660548.249176,2083,0,7_S
1778660548.251751,2062,0,7_S
1778660548.253045,1923,0,7_S
1778660548.257271,1986,0,7_S
1778660548.2576299,2176,0,7_S
1778660548.259667,2311,0,7_S
1778660548.261596,2126,0,7_S
1778660548.263508,2036,0,7_S
1778660548.2648551,2007,0,7_S
1778660548.2675672,2096,0,7_S
1778660548.269711,1996,0,7_S
1778660548.271017,1901,0,7_S
1778660548.27358,2045,0,7_S
1778660548.274875,2246,0,7_S
1778660548.277502,2181,0,7_S
1778660548.282756,2041,0,7_S
1778660548.28284,1990,0,7_S
1778660548.284312,2069,0,7_S
1778660548.28592,2016,0,7_S
1778660548.288449,1935,0,7_S
1778660548.291185,2041,0,7_S
1778660548.293872,2235,0,7_S
1778660548.2940009,2223,0,7_S
1778660548.2960188,2067,0,7_S
1778660548.297326,1986,0,7_S
1778660548.2998989,1978,0,7_S
1778660548.304091,1949,0,7_S
1778660548.305603,1782,0,7_S
1778660548.3069062,1937,0,7_S
1778660548.3082082,2194,0,7_S
1778660548.312336,2283,0,7_S
1778660548.3174841,2116,0,7_S
1778660548.3176,2015,0,7_S
1778660548.317657,2079,0,7_S
1778660548.3177102,2212,0,7_S
1778660548.319083,2023,0,7_S
1778660548.321716,1963,0,7_S
1778660548.323083,2108,0,7_S
1778660548.325702,2302,0,7_S
1778660548.327167,2155,0,7_S
1778660548.3325021,2033,0,7_S
1778660548.335003,1935,0,7_S
1778660548.3354099,2078,0,7_S
1778660548.338733,2053,0,7_S
1778660548.3413491,1928,0,7_S
1778660548.341456,2022,0,7_S
1778660548.3415549,2274,0,7_S
1778660548.344504,2327,0,7_S
1778660548.344736,2142,0,7_S
1778660548.347716,2042,0,7_S
1778660548.3490071,2094,0,7_S
1778660548.355119,2147,0,7_S
1778660548.356151,2042,0,7_S
1778660548.3574378,2164,0,7_S
1778660548.357617,2412,0,7_S
1778660548.359872,2552,0,7_S
1778660548.362834,2359,0,7_S
1778660548.365509,2286,0,7_S
1778660548.365767,2273,0,7_S
1778660548.367956,2407,0,7_S
1778660548.369249,2274,0,7_S
1778660548.370684,2192,0,7_S
1778660548.373281,2287,0,7_S
1778660548.3757172,2466,0,7_S
1778660548.3768551,2335,0,7_S
1778660548.381689,2228,0,7_S
1778660548.382508,2148,0,7_S
1778660548.3844721,2188,0,7_S
1778660548.384678,2055,0,7_S
1778660548.388441,1965,0,7_S
1778660548.3921459,2126,0,7_S
1778660548.392457,2290,0,7_S
1778660548.394115,2280,0,7_S
1778660548.3954072,2122,0,7_S
1778660548.396692,2047,0,7_S
1778660548.4025888,2067,0,7_S
1778660548.4029849,2113,0,7_S
1778660548.403661,1955,0,7_S
1778660548.406549,1973,0,7_S
1778660548.4069738,2149,0,7_S
1778660548.412287,2325,0,7_S
1778660548.412534,2171,0,7_S
1778660548.412713,2032,0,7_S
1778660548.4154172,1965,0,7_S
1778660548.416706,2104,0,7_S
1778660548.419258,1978,0,7_S
1778660548.4206421,1907,0,7_S
1778660548.423255,2097,0,7_S
1778660548.4268868,2251,0,7_S
1778660548.427577,2124,0,7_S
1778660548.429208,2068,0,7_S
1778660548.431243,1982,0,7_S
1778660548.433907,2099,0,7_S
1778660548.4364119,2064,0,7_S
1778660548.43813,1941,0,7_S
1778660548.4394329,2003,0,7_S
1778660548.440726,2176,0,7_S
1778660548.44329,2234,0,7_S
1778660548.444702,2094,0,7_S
1778660548.451092,1980,0,7_S
1778660548.451872,2035,0,7_S
1778660548.452693,2043,0,7_S
1778660548.452796,1934,0,7_S
1778660548.456,1985,0,7_S
1778660548.457837,2168,0,7_S
1778660548.459201,2299,0,7_S
1778660548.461683,2081,0,7_S
1778660548.463646,1990,0,7_S
1778660548.464952,2049,0,7_S
1778660548.467507,2038,0,7_S
1778660548.471505,2005,0,7_S
1778660548.4722161,1941,0,7_S
1778660548.473952,2019,0,7_S
1778660548.475769,2222,0,7_S
1778660548.4788952,2161,0,7_S
1778660548.4790761,1987,0,7_S
1778660548.481583,1925,0,7_S
1778660548.483553,2077,0,7_S
1778660548.484847,2135,0,7_S
1778660548.4874141,1907,0,7_S
1778660548.488706,1992,0,7_S
1778660548.49125,2215,0,7_S
1778660548.492842,2245,0,7_S
1778660548.496505,2228,0,7_S
1778660548.4986591,2033,0,7_S
1778660548.4987898,1874,0,7_S
1778660548.501884,2069,0,7_S
1778660548.5034308,1898,0,7_S
1778660548.5061262,2091,0,7_S
1778660548.507988,2245,0,7_S
1778660548.5092852,2253,0,7_S
1778660548.510582,2064,0,7_S
1778660548.513128,1915,0,7_S
1778660548.515682,1791,0,7_S
1778660548.5169768,2135,0,7_S
1778660548.5214012,2033,0,7_S
1778660548.52174,1770,0,7_S
1778660548.5235982,1936,0,7_S
1778660548.5252,2086,0,7_S
1778660548.52701,2148,0,7_S
1778660548.5307982,2137,0,7_S
1778660548.530918,1978,0,7_S
1778660548.532588,2026,0,7_S
1778660548.5350668,2129,0,7_S
1778660548.537618,1931,0,7_S
1778660548.5389109,2002,0,7_S
1778660548.541615,2249,0,7_S
1778660548.545088,2359,0,7_S
1778660548.545492,2143,0,7_S
1778660548.547501,1937,0,7_S
1778660548.5490692,2001,0,7_S
1778660548.551897,2022,0,7_S
1778660548.554344,1862,0,7_S
1778660548.55617,1839,0,7_S
1778660548.557471,1993,0,7_S
1778660548.558762,2224,0,7_S
1778660548.5613272,2018,0,7_S
1778660548.562614,1867,0,7_S
1778660548.565197,1880,0,7_S
1778660548.56844,2029,0,7_S
1778660548.5698361,1909,0,7_S
1778660548.572664,1733,0,7_S
1778660548.572727,1627,0,7_S
1778660548.577898,1739,0,7_S
1778660548.5779462,1514,0,7_S
1778660548.5795572,1486,0,7_S
1778660548.58085,1408,0,7_S
1778660548.5834172,1407,0,7_S
1778660548.584707,1487,0,7_S
1778660548.5872488,1371,0,7_S
1778660548.592261,1475,0,7_S
1778660548.592363,1850,0,7_S
1778660548.5942369,1905,0,7_S
1778660548.5959392,1945,0,7_S
1778660548.5988429,1866,0,7_S
1778660548.598975,1858,0,7_S
1778660548.601347,1935,0,7_S
1778660548.602908,1629,0,7_S
1778660548.605181,1850,0,7_S
1778660548.6079192,1996,0,7_S
1778660548.6092522,2159,0,7_S
1778660548.611806,1922,0,7_S
1778660548.61664,2011,0,7_S
1778660548.6176598,1997,0,7_S
1778660548.618964,2072,0,7_S
1778660548.620339,1949,0,7_S
1778660548.620729,1810,0,7_S
1778660548.626007,2026,0,7_S
1778660548.6262028,2120,0,7_S
1778660548.627784,2254,0,7_S
1778660548.629363,2066,0,7_S
1778660548.630686,1839,0,7_S
1778660548.633238,2068,0,7_S
1778660548.634527,1855,0,7_S
1778660548.6372569,1889,0,7_S
1778660548.642085,2043,0,7_S
1778660548.643232,2133,0,7_S
1778660548.6433978,2232,0,7_S
1778660548.6449542,2170,0,7_S
1778660548.646775,1976,0,7_S
1778660548.650285,1933,0,7_S
1778660548.65227,2015,0,7_S
1778660548.653569,1900,0,7_S
1778660548.654733,1910,0,7_S
1778660548.657278,2087,0,7_S
1778660548.6585631,2243,0,7_S
1778660548.661165,2063,0,7_S
1778660548.664649,2028,0,7_S
1778660548.665173,1958,0,7_S
1778660548.667073,2117,0,7_S
1778660548.669163,1900,0,7_S
1778660548.671803,1980,0,7_S
1778660548.674175,2082,0,7_S
1778660548.676092,2165,0,7_S
1778660548.6773918,2125,0,7_S
1778660548.678684,2029,0,7_S
1778660548.6812391,1950,0,7_S
1778660548.682528,2013,0,7_S
1778660548.687988,1891,0,7_S
1778660548.689056,1809,0,7_S
1778660548.689146,1945,0,7_S
1778660548.691888,2096,0,7_S
1778660548.6934159,2289,0,7_S
1778660548.697419,2026,0,7_S
1778660548.69753,2000,0,7_S
1778660548.699507,1865,0,7_S
1778660548.700812,1904,0,7_S
1778660548.703361,1885,0,7_S
1778660548.704674,1916,0,7_S
1778660548.707312,2057,0,7_S
1778660548.711583,2143,0,7_S
1778660548.711971,2023,0,7_S
1778660548.714001,1982,0,7_S
1778660548.715394,2098,0,7_S
1778660548.717433,2154,0,7_S
1778660548.720869,1885,0,7_S
1778660548.7209878,1865,0,7_S
1778660548.722752,1980,0,7_S
1778660548.725302,2223,0,7_S
1778660548.726604,2229,0,7_S
1778660548.728927,1993,0,7_S
1778660548.734815,1902,0,7_S
1778660548.73545,1975,0,7_S
1778660548.735848,2053,0,7_S
1778660548.737246,1955,0,7_S
1778660548.738915,1903,0,7_S
1778660548.741735,2157,0,7_S
1778660548.7440782,2208,0,7_S
1778660548.745942,2038,0,7_S
1778660548.7472472,1920,0,7_S
1778660548.748553,1903,0,7_S
1778660548.751117,1983,0,7_S
1778660548.753667,1914,0,7_S
1778660548.758035,1937,0,7_S
1778660548.7584,2058,0,7_S
1778660548.759474,2250,0,7_S
1778660548.760897,2154,0,7_S
1778660548.763053,1924,0,7_S
1778660548.765339,1888,0,7_S
1778660548.767479,2117,0,7_S
1778660548.768942,1986,0,7_S
1778660548.771498,1889,0,7_S
1778660548.7727842,2078,0,7_S
1778660548.7753348,2176,0,7_S
1778660548.776622,2154,0,7_S
1778660548.781072,2141,0,7_S
1778660548.781474,2030,0,7_S
1778660548.783328,2037,0,7_S
1778660548.7850828,1901,0,7_S
1778660548.787658,1833,0,7_S
1778660548.7900019,1935,0,7_S
1778660548.791754,2124,0,7_S
1778660548.7930381,2176,0,7_S
1778660548.7955909,2068,0,7_S
1778660548.796879,2039,0,7_S
1778660548.7994308,2002,0,7_S
1778660548.8044522,2066,0,7_S
1778660548.8050911,1895,0,7_S
1778660548.806126,1872,0,7_S
1778660548.80783,2068,0,7_S
1778660548.809164,2312,0,7_S
1778660548.810582,2128,0,7_S
1778660548.812691,2022,0,7_S
1778660548.815383,2005,0,7_S
1778660548.8166668,2046,0,7_S
1778660548.81922,1981,0,7_S
1778660548.820509,1886,0,7_S
1778660548.82629,2074,0,7_S
1778660548.826936,2244,0,7_S
1778660548.828201,2240,0,7_S
1778660548.830097,2100,0,7_S
1778660548.8345249,1948,0,7_S
1778660548.834822,1940,0,7_S
1778660548.834953,2035,0,7_S
1778660548.8375711,1962,0,7_S
1778660548.8388622,1991,0,7_S
1778660548.841405,2178,0,7_S
1778660548.842688,2318,0,7_S
1778660548.848335,2151,0,7_S
1778660548.848982,1990,0,7_S
1778660548.849328,1915,0,7_S
1778660548.8506591,2030,0,7_S
1778660548.8547819,1982,0,7_S
1778660548.854889,2031,0,7_S
1778660548.8568552,2023,0,7_S
1778660548.8588932,2252,0,7_S
1778660548.861446,2154,0,7_S
1778660548.862738,2152,0,7_S
1778660548.865282,2027,0,7_S
1778660548.866462,1954,0,7_S
1778660548.871101,1864,0,7_S
1778660548.871167,1935,0,7_S
1778660548.872986,2077,0,7_S
1778660548.874796,2322,0,7_S
1778660548.877221,2164,0,7_S
1778660548.879261,2116,0,7_S
1778660548.881152,2095,0,7_S
1778660548.882446,2041,0,7_S
1778660548.8849978,2131,0,7_S
1778660548.887548,2017,0,7_S
1778660548.8888378,2009,0,7_S
1778660548.893375,2151,0,7_S
1778660548.8940349,2233,0,7_S
1778660548.8954072,2063,0,7_S
1778660548.897511,2005,0,7_S
1778660548.9018738,2053,0,7_S
1778660548.9020429,2170,0,7_S
1778660548.904021,2010,0,7_S
1778660548.905417,1956,0,7_S
1778660548.9067168,2112,0,7_S
1778660548.9092312,2254,0,7_S
1778660548.9104269,2167,0,7_S
1778660548.9168692,2078,0,7_S
1778660548.917526,2013,0,7_S
1778660548.918581,2099,0,7_S
1778660548.91872,2024,0,7_S
1778660548.921827,1916,0,7_S
1778660548.9250329,1994,0,7_S
1778660548.9251242,2170,0,7_S
1778660548.927041,2238,0,7_S
1778660548.928412,2140,0,7_S
1778660548.930976,1950,0,7_S
1778660548.933532,2025,0,7_S
1778660548.934826,2123,0,7_S
1778660548.938385,1970,0,7_S
1778660548.9390771,2005,0,7_S
1778660548.940886,2191,0,7_S
1778660548.94271,2294,0,7_S
1778660548.9473548,2099,0,7_S
1778660548.947455,1978,0,7_S
1778660548.9491599,1964,0,7_S
1778660548.950453,2103,0,7_S
1778660548.953001,1986,0,7_S
1778660548.95441,1934,0,7_S
1778660548.9569652,2102,0,7_S
1778660548.961364,2313,0,7_S
1778660548.9617531,2177,0,7_S
1778660548.963277,2089,0,7_S
1778660548.964813,2020,0,7_S
1778660548.966547,2070,0,7_S
1778660548.969714,1963,0,7_S
1778660548.971575,1974,0,7_S
1778660548.972838,2111,0,7_S
1778660548.975383,2237,0,7_S
1778660548.9766688,2221,0,7_S
1778660548.979213,2090,0,7_S
1778660548.983498,1993,0,7_S
1778660548.983608,2076,0,7_S
1778660548.9858391,2071,0,7_S
1778660548.98737,1918,0,7_S
1778660548.989012,1950,0,7_S
1778660548.992178,2164,0,7_S
1778660548.993674,2362,0,7_S
1778660548.995241,2114,0,7_S
1778660548.9965272,1999,0,7_S
1778660548.999079,2012,0,7_S
1778660549.000414,2089,0,7_S
1778660549.006104,1987,0,7_S
1778660549.006217,1979,0,7_S
1778660549.0096,2126,0,7_S
1778660549.010035,2285,0,7_S
1778660549.011348,2203,0,7_S
1778660549.014657,2069,0,7_S
1778660549.014737,2023,0,7_S
1778660549.017497,2159,0,7_S
1778660549.018783,2007,0,7_S
1778660549.021406,1855,0,7_S
1778660549.022702,2029,0,7_S
1778660549.025256,2241,0,7_S
1778660549.028548,2278,0,7_S
1778660549.028948,2113,0,7_S
1778660549.030735,2020,0,7_S
1778660549.033419,2046,0,7_S
1778660549.035069,2122,0,7_S
1778660549.037121,2007,0,7_S
1778660549.038612,1990,0,7_S
1778660549.041167,2117,0,7_S
1778660549.042485,2281,0,7_S
1778660549.0450292,2093,0,7_S
1778660549.046433,2017,0,7_S
1778660549.050946,2010,0,7_S
1778660549.05126,2065,0,7_S
1778660549.0531142,1941,0,7_S
1778660549.054993,1876,0,7_S
1778660549.0575948,2046,0,7_S
1778660549.059628,2289,0,7_S
1778660549.061079,2184,0,7_S
1778660549.062381,1889,0,7_S
1778660549.064922,1867,0,7_S
1778660549.067487,2069,0,7_S
1778660549.068774,2197,0,7_S
1778660549.0734458,1998,0,7_S
1778660549.073806,2072,0,7_S
1778660549.0751302,2225,0,7_S
1778660549.077259,2277,0,7_S
1778660549.079448,2131,0,7_S
1778660549.081449,2014,0,7_S
1778660549.08322,2050,0,7_S
1778660549.084512,2042,0,7_S
1778660549.0870578,1882,0,7_S
1778660549.0894442,1901,0,7_S
1778660549.0907269,2131,0,7_S
1778660549.095711,2268,0,7_S
1778660549.096065,2058,0,7_S
1778660549.0990112,1941,0,7_S
1778660549.099421,1840,0,7_S
1778660549.1007922,2005,0,7_S
1778660549.103931,1931,0,7_S
1778660549.10572,1727,0,7_S
1778660549.107011,1629,0,7_S
1778660549.108302,2362,0,7_S
1778660549.11085,2188,0,7_S
1778660549.1134121,2179,0,7_S
1778660549.117803,2267,0,7_S
1778660549.117876,2207,0,7_S
1778660549.119751,1997,0,7_S
1778660549.121589,1638,0,7_S
1778660549.123997,2066,0,7_S
1778660549.125961,2668,0,7_S
1778660549.1277518,2590,0,7_S
1778660549.129051,2182,0,7_S
1778660549.130348,1884,0,7_S
1778660549.132904,2001,0,7_S
1778660549.1354508,2077,0,7_S
1778660549.139619,2030,0,7_S
1778660549.13972,2009,0,7_S
1778660549.141833,2001,0,7_S
1778660549.143884,1887,0,7_S
1778660549.148366,1830,0,7_S
1778660549.1485472,2014,0,7_S
1778660549.148658,2057,0,7_S
1778660549.151296,2058,0,7_S
1778660549.152583,2033,0,7_S
1778660549.155133,1974,0,7_S
1778660549.156422,2098,0,7_S
1778660549.162129,2260,0,7_S
1778660549.162591,2101,0,7_S
1778660549.1629398,1882,0,7_S
1778660549.1644301,1819,0,7_S
1778660549.1674979,1893,0,7_S
1778660549.168998,1946,0,7_S
1778660549.17082,1824,0,7_S
1778660549.173579,1956,0,7_S
1778660549.174863,2060,0,7_S
1778660549.176288,2199,0,7_S
1778660549.178835,2073,0,7_S
1778660549.18416,2000,0,7_S
1778660549.184261,1959,0,7_S
1778660549.184633,1970,0,7_S
1778660549.186504,1900,0,7_S
1778660549.189374,1964,0,7_S
1778660549.190729,2138,0,7_S
1778660549.19254,2237,0,7_S
1778660549.195198,1935,0,7_S
1778660549.196492,1802,0,7_S
1778660549.199035,1807,0,7_S
1778660549.200321,2086,0,7_S
1778660549.206203,2026,0,7_S
1778660549.206893,1903,0,7_S
1778660549.208225,2000,0,7_S
1778660549.2083359,2214,0,7_S
1778660549.21387,2167,0,7_S
1778660549.214009,2057,0,7_S
1778660549.2154272,1959,0,7_S
1778660549.216724,2044,0,7_S
1778660549.219271,1854,0,7_S
1778660549.2205598,1602,0,7_S
1778660549.223109,1867,0,7_S
1778660549.2273438,2272,0,7_S
1778660549.227676,2362,0,7_S
1778660549.229486,2105,0,7_S
1778660549.2309911,1923,0,7_S
1778660549.232525,1927,0,7_S
1778660549.235372,2056,0,7_S
1778660549.237133,1911,0,7_S
1778660549.238425,1932,0,7_S
1778660549.240982,2033,0,7_S
1778660549.2422762,2244,0,7_S
1778660549.244818,2031,0,7_S
1778660549.248225,1989,0,7_S
1778660549.248833,2013,0,7_S
1778660549.250475,2146,0,7_S
1778660549.253425,2028,0,7_S
1778660549.2548852,1780,0,7_S
1778660549.256623,2063,0,7_S
1778660549.259288,2356,0,7_S
1778660549.2605839,2303,0,7_S
1778660549.263127,2171,0,7_S
1778660549.264415,2041,0,7_S
1778660549.269462,1846,0,7_S
1778660549.270081,1872,0,7_S
1778660549.271573,2116,0,7_S
1778660549.273076,2195,0,7_S
1778660549.274476,2062,0,7_S
1778660549.277507,1742,0,7_S
1778660549.279186,2177,0,7_S
1778660549.280479,2286,0,7_S
1778660549.28302,2142,0,7_S
1778660549.28431,2035,0,7_S
1778660549.2868521,1977,0,7_S
1778660549.290604,2077,0,7_S
1778660549.290935,2131,0,7_S
1778660549.292555,2315,0,7_S
1778660549.295208,2034,0,7_S
1778660549.298545,1894,0,7_S
1778660549.29871,1849,0,7_S
1778660549.301286,1951,0,7_S
1778660549.3025768,2004,0,7_S
1778660549.305129,1924,0,7_S
1778660549.306416,2031,0,7_S
1778660549.311469,2109,0,7_S
1778660549.3121312,1732,0,7_S
1778660549.313801,1918,0,7_S
1778660549.31584,2192,0,7_S
1778660549.317924,2253,0,7_S
1778660549.319676,2062,0,7_S
1778660549.321404,1704,0,7_S
1778660549.3227,1913,0,7_S
1778660549.3252501,2356,0,7_S
1778660549.326543,2559,0,7_S
1778660549.3288472,2241,0,7_S
1778660549.333436,1959,0,7_S
1778660549.3359869,1922,0,7_S
1778660549.336274,1913,0,7_S
1778660549.336907,1882,0,7_S
1778660549.339322,2141,0,7_S
1778660549.341268,2274,0,7_S
1778660549.342717,2327,0,7_S
1778660549.34429,2089,0,7_S
1778660549.346807,1994,0,7_S
1778660549.349355,1889,0,7_S
1778660549.350645,1873,0,7_S
1778660549.35586,1869,0,7_S
1778660549.357406,1654,0,7_S
1778660549.3576078,1732,0,7_S
1778660549.359091,2143,0,7_S
1778660549.3638241,2207,0,7_S
1778660549.36423,2112,0,7_S
1778660549.365657,2009,0,7_S
1778660549.3669481,2025,0,7_S
1778660549.3682508,2123,0,7_S
1778660549.370801,1898,0,7_S
1778660549.373344,1333,0,7_S
1778660549.374628,1324,0,7_S
1778660549.37823,2253,0,7_S
1778660549.378923,2620,0,7_S
1778660549.381589,2196,0,7_S
1778660549.383292,1719,0,7_S
1778660549.386623,2056,0,7_S
1778660549.386726,2183,0,7_S
1778660549.389426,2206,0,7_S
1778660549.390722,2397,0,7_S
1778660549.393023,2209,0,7_S
1778660549.394309,1831,0,7_S
1778660549.400019,1539,0,7_S
1778660549.400366,1805,0,7_S
1778660549.400788,1653,0,7_S
1778660549.402498,1690,0,7_S
1778660549.405139,2411,0,7_S
1778660549.4069388,2503,0,7_S
1778660549.408837,1915,0,7_S
1778660549.410652,1793,0,7_S
1778660549.4132102,2043,0,7_S
1778660549.414504,1809,0,7_S
1778660549.4170492,1372,0,7_S
1778660549.4183319,1724,0,7_S
1778660549.4227479,1531,0,7_S
1778660549.4227772,1894,0,7_S
1778660549.42655,2683,0,7_S
1778660549.427543,2502,0,7_S
1778660549.429622,1434,0,7_S
1778660549.431689,2082,0,7_S
1778660549.433486,2403,0,7_S
1778660549.434669,2296,0,7_S
1778660549.437181,2216,0,7_S
1778660549.438633,2005,0,7_S
1778660549.441261,1351,0,7_S
1778660549.442709,1653,0,7_S
1778660549.4465652,2212,0,7_S
1778660549.446979,2306,0,7_S
1778660549.4488142,2299,0,7_S
1778660549.455321,1932,0,7_S
1778660549.4554381,1819,0,7_S
1778660549.4557,1887,0,7_S
1778660549.457386,1847,0,7_S
1778660549.4587781,2104,0,7_S
1778660549.461424,2216,0,7_S
1778660549.4625752,2251,0,7_S
1778660549.465121,1790,0,7_S
1778660549.470335,1169,0,7_S
1778660549.471036,1651,0,7_S
1778660549.4717171,1905,0,7_S
1778660549.4740102,1839,0,7_S
1778660549.4771378,1369,0,7_S
1778660549.479208,1871,0,7_S
1778660549.479396,2114,0,7_S
1778660549.481187,1951,0,7_S
1778660549.482559,1970,0,7_S
1778660549.485106,2004,0,7_S
1778660549.486395,1928,0,7_S
1778660549.48894,1883,0,7_S
1778660549.493174,1979,0,7_S
1778660549.493902,2245,0,7_S
1778660549.495861,1775,0,7_S
1778660549.498136,1298,0,7_S
1778660549.498573,1742,0,7_S
1778660549.500604,2042,0,7_S
1778660549.504407,1676,0,7_S
1778660549.504582,1663,0,7_S
1778660549.507141,2196,0,7_S
1778660549.508427,2725,0,7_S
1778660549.510974,2364,0,7_S
1778660549.5122619,2068,0,7_S
1778660549.5170949,1947,0,7_S
1778660549.517812,1792,0,7_S
1778660549.520109,1451,0,7_S
1778660549.52078,1536,0,7_S
1778660549.5233028,2149,0,7_S
1778660549.526997,2300,0,7_S
1778660549.527071,2148,0,7_S
1778660549.528357,1955,0,7_S
1778660549.530907,2158,0,7_S
1778660549.532192,2246,0,7_S
1778660549.534733,2222,0,7_S
1778660549.538729,2022,0,7_S
1778660549.538783,1857,0,7_S
1778660549.541045,1803,0,7_S
1778660549.5441139,2061,0,7_S
1778660549.545721,1954,0,7_S
1778660549.549932,1893,0,7_S
1778660549.55008,1846,0,7_S
1778660549.5501819,1981,0,7_S
1778660549.5529852,1920,0,7_S
1778660549.554355,1698,0,7_S
1778660549.557087,1694,0,7_S
1778660549.558507,2167,0,7_S
1778660549.56873,2072,0,7_S
1778660549.571363,1926,0,7_S
1778660549.5716522,1994,0,7_S
1778660549.573994,2111,0,7_S
1778660549.5744488,2033,0,7_S
1778660549.574754,1913,0,7_S
1778660549.576593,1904,0,7_S
1778660549.576669,2082,0,7_S
1778660549.576734,2146,0,7_S
1778660549.578136,1969,0,7_S
1778660549.5844648,1943,0,7_S
1778660549.5863402,1784,0,7_S
1778660549.586578,1913,0,7_S
1778660549.5881128,1654,0,7_S
1778660549.588955,1776,0,7_S
1778660549.593915,2041,0,7_S
1778660549.5941591,2448,0,7_S
1778660549.594638,2239,0,7_S
1778660549.5964448,2022,0,7_S
1778660549.599076,2041,0,7_S
1778660549.60045,2183,0,7_S
1778660549.603124,2369,0,7_S
1778660549.6046379,2104,0,7_S
1778660549.6098828,2129,0,7_S
1778660549.6122081,2226,0,7_S
1778660549.614123,2252,0,7_S
1778660549.614924,2084,0,7_S
1778660549.615639,1964,0,7_S
1778660549.619929,1990,0,7_S
1778660549.6203232,1985,0,7_S
1778660549.620631,1844,0,7_S
1778660549.622582,1966,0,7_S
1778660549.6252348,2156,0,7_S
1778660549.626629,2115,0,7_S
1778660549.630767,2050,0,7_S
1778660549.632873,2099,0,7_S
1778660549.6330838,2116,0,7_S
1778660549.635552,2246,0,7_S
1778660549.640286,2201,0,7_S
1778660549.640626,2102,0,7_S
1778660549.64084,2049,0,7_S
1778660549.642739,2361,0,7_S
1778660549.644127,2107,0,7_S
1778660549.6467898,1785,0,7_S
1778660549.6481578,1740,0,7_S
1778660549.650836,1909,0,7_S
1778660549.656811,2087,0,7_S
1778660549.656925,1978,0,7_S
1778660549.65873,1887,0,7_S
1778660549.6588988,2263,0,7_S
1778660549.660754,2321,0,7_S
1778660549.666312,2177,0,7_S
1778660549.666482,2449,0,7_S
1778660549.666681,2165,0,7_S
1778660549.6688042,1908,0,7_S
1778660549.670208,2097,0,7_S
1778660549.686429,1805,0,7_S
1778660549.689167,2106,0,7_S
1778660549.6892421,2248,0,7_S
1778660549.6892931,2159,0,7_S
1778660549.689342,1864,0,7_S
1778660549.6900249,1667,0,7_S
1778660549.6901429,1872,0,7_S
1778660549.690193,2171,0,7_S
1778660549.691156,1895,0,7_S
1778660549.691212,2044,0,7_S
1778660549.693801,2416,0,7_S
1778660549.6957529,1941,0,7_S
1778660549.6973739,1984,0,7_S
1778660549.7155478,2118,0,7_S
1778660549.715631,2208,0,7_S
1778660549.715683,2290,0,7_S
1778660549.7157319,1697,0,7_S
1778660549.71578,1610,0,7_S
1778660549.715826,1735,0,7_S
1778660549.715872,2271,0,7_S
1778660549.715918,2103,0,7_S
1778660549.733404,2249,0,7_S
1778660549.735588,1520,0,7_S
1778660549.735632,1895,0,7_S
1778660549.735658,2107,0,7_S
1778660549.735683,2196,0,7_S
1778660549.73576,1841,0,7_S
1778660549.735795,1937,0,7_S
1778660549.735822,2069,0,7_S
1778660549.735847,1953,0,7_S
1778660549.735871,1709,0,7_S
1778660549.735894,2162,0,7_S
1778660549.737851,2377,0,7_S
1778660549.739285,1999,0,7_S
1778660549.740597,1685,0,7_S
1778660549.743479,1838,0,7_S
1778660549.7450528,2072,0,7_S
1778660549.7553291,2011,0,7_S
1778660549.7573278,1559,0,7_S
1778660549.7575538,1396,0,7_S
1778660549.760514,1409,0,7_S
1778660549.760766,1499,0,7_S
1778660549.7609851,1675,0,7_S
1778660549.762943,2397,0,7_S
1778660549.763086,2035,0,7_S
1778660549.7631931,1845,0,7_S
1778660549.764562,1746,0,7_S
1778660549.767148,1403,0,7_S
1778660549.7742789,1207,0,7_S
1778660549.774529,1484,0,7_S
1778660549.776591,1589,0,7_S
1778660549.7781372,1975,0,7_S
1778660549.778925,1830,0,7_S
1778660549.7806249,1602,0,7_S
1778660549.783224,1675,0,7_S
1778660549.783417,1639,0,7_S
1778660549.7855492,1672,0,7_S
1778660549.787018,1665,0,7_S
1778660549.78837,1655,0,7_S
1778660549.791002,1595,0,7_S
1778660549.79235,1305,0,7_S
1778660549.794998,1561,0,7_S
1778660549.800102,125,0,7_S
1778660549.8010151,1539,0,7_S
1778660549.802784,2319,0,7_S
1778660549.802952,2686,0,7_S
1778660549.8057852,2010,0,7_S
1778660549.8085551,1085,0,7_S
1778660549.811092,762,0,7_S
1778660549.811512,2616,0,7_S
1778660549.8132522,901,0,7_S
1778660549.814615,1911,0,7_S
1778660549.816105,2452,0,7_S
1778660549.822248,3071,0,7_S
1778660549.823145,3078,0,7_S
1778660549.8251698,1462,0,7_S
1778660549.8253062,1963,0,7_S
1778660549.8274088,3697,0,7_S
1778660549.829168,3898,0,7_S
1778660549.830841,3103,0,7_S
1778660549.833802,2291,0,7_S
1778660549.835892,2077,0,7_S
1778660549.836065,1739,0,7_S
1778660549.8387241,1984,0,7_S
1778660549.840109,2248,0,7_S
1778660549.8427699,2905,0,7_S
1778660549.844159,2898,0,7_S
1778660549.850646,2335,0,7_S
1778660549.8511832,1126,0,7_S
1778660549.8525069,1508,0,7_S
1778660549.852842,1302,0,7_S
1778660549.8555908,2400,0,7_S
1778660549.8612611,2871,0,7_S
1778660549.861483,2852,0,7_S
1778660549.861942,2696,0,7_S
1778660549.863551,2522,0,7_S
1778660549.864914,2520,0,7_S
1778660549.866324,2531,0,7_S
1778660549.8736398,2342,0,7_S
1778660549.875076,1936,0,7_S
1778660549.8752708,1736,0,7_S
1778660549.8754802,1882,0,7_S
1778660549.87777,2186,0,7_S
1778660549.880834,2207,0,7_S
1778660549.880996,2236,0,7_S
1778660549.883878,2257,0,7_S
1778660549.886153,2322,0,7_S
1778660549.886271,2160,0,7_S
1778660549.8889868,2002,0,7_S
1778660549.890385,2051,0,7_S
1778660549.893045,2231,0,7_S
1778660549.89447,2223,0,7_S
1778660549.90049,2193,0,7_S
1778660549.9010718,2174,0,7_S
1778660549.902389,2214,0,7_S
1778660549.903808,2148,0,7_S
1778660549.905665,2008,0,7_S
1778660549.908305,2067,0,7_S
1778660549.9099379,2230,0,7_S
1778660549.9101598,2320,0,7_S
1778660549.91314,2163,0,7_S
1778660549.9155772,2094,0,7_S
1778660549.916996,2099,0,7_S
1778660549.918398,2189,0,7_S
1778660549.9258082,2083,0,7_S
1778660549.9276228,1998,0,7_S
1778660549.927839,2099,0,7_S
1778660549.928055,2346,0,7_S
1778660549.929661,2272,0,7_S
1778660549.932203,2195,0,7_S
1778660549.933831,2134,0,7_S
1778660549.937024,2199,0,7_S
1778660549.937425,2123,0,7_S
1778660549.9398458,2022,0,7_S
1778660549.940028,2126,0,7_S
1778660549.9427001,2332,0,7_S
1778660549.945107,2238,0,7_S
1778660549.946453,2120,0,7_S
1778660549.9491909,2088,0,7_S
1778660549.954958,2098,0,7_S
1778660549.9551492,2097,0,7_S
1778660549.9560928,2011,0,7_S
1778660549.95807,2110,0,7_S
1778660549.959927,2315,0,7_S
1778660549.960923,2373,0,7_S
1778660549.962645,2211,0,7_S
1778660549.9641652,2055,0,7_S
1778660549.96719,2131,0,7_S
1778660549.9693491,2244,0,7_S
1778660549.970809,2074,0,7_S
1778660549.972162,2046,0,7_S
1778660549.979157,2144,0,7_S
1778660549.980054,2333,0,7_S
1778660549.981526,2143,0,7_S
1778660549.9818208,2093,0,7_S
1778660549.984621,2108,0,7_S
1778660549.985258,2141,0,7_S
1778660549.987881,2027,0,7_S
1778660549.988074,1933,0,7_S
1778660549.9910011,2058,0,7_S
1778660549.99343,2274,0,7_S
1778660549.9949162,2225,0,7_S
1778660549.996354,2121,0,7_S
1778660549.998988,2028,0,7_S
1778660550.0003588,2051,0,7_S
1778660550.003003,1975,0,7_S
1778660550.010813,1919,0,7_S
1778660550.011046,1989,0,7_S
1778660550.0128279,2244,0,7_S
1778660550.0133178,2347,0,7_S
1778660550.015072,2138,0,7_S
1778660550.017505,2056,0,7_S
1778660550.020551,2062,0,7_S
1778660550.0209239,2071,0,7_S
1778660550.021129,1947,0,7_S
1778660550.023206,1981,0,7_S
1778660550.024626,2056,0,7_S
1778660550.026033,2218,0,7_S
1778660550.032504,2134,0,7_S
1778660550.0334132,1994,0,7_S
1778660550.035615,2047,0,7_S
1778660550.0359309,2139,0,7_S
1778660550.036099,2006,0,7_S
1778660550.0380511,1961,0,7_S
1778660550.041746,2092,0,7_S
1778660550.0447779,2297,0,7_S
1778660550.0450292,2266,0,7_S
1778660550.047384,2093,0,7_S
1778660550.048745,2016,0,7_S
1778660550.0501099,1996,0,7_S
1778660550.052734,2014,0,7_S
1778660550.054073,1891,0,7_S
1778660550.056763,1972,0,7_S
1778660550.061621,2118,0,7_S
1778660550.062588,2212,0,7_S
1778660550.0634549,2109,0,7_S
1778660550.0648818,1957,0,7_S
1778660550.066883,1962,0,7_S
1778660550.069343,2035,0,7_S
1778660550.0709388,1966,0,7_S
1778660550.0741591,1951,0,7_S
1778660550.074599,2068,0,7_S
1778660550.077274,2275,0,7_S
1778660550.078672,2038,0,7_S
1778660550.080019,1956,0,7_S
1778660550.087085,1953,0,7_S
1778660550.088208,2079,0,7_S
1778660550.0885298,2081,0,7_S
1778660550.09252,1973,0,7_S
1778660550.0926878,2008,0,7_S
1778660550.093698,2203,0,7_S
1778660550.096704,2229,0,7_S
1778660550.099793,2146,0,7_S
1778660550.1002922,2028,0,7_S
1778660550.1005912,2022,0,7_S
1778660550.103114,1973,0,7_S
1778660550.10451,1916,0,7_S
1778660550.10713,2029,0,7_S
1778660550.108481,2179,0,7_S
1778660550.111085,2491,0,7_S
1778660550.112431,2491,0,7_S
1778660550.119644,2474,0,7_S
1778660550.1212668,2487,0,7_S
1778660550.123538,2596,0,7_S
1778660550.124973,2484,0,7_S
1778660550.125561,2421,0,7_S
1778660550.1258318,2532,0,7_S
1778660550.1310499,2656,0,7_S
1778660550.1314292,2532,0,7_S
1778660550.131878,2301,0,7_S
1778660550.132065,2225,0,7_S
1778660550.135069,2243,0,7_S
1778660550.136405,2147,0,7_S
1778660550.143567,2113,0,7_S
1778660550.144518,2257,0,7_S
1778660550.145056,2464,0,7_S
1778660550.145181,2310,0,7_S
1778660550.149068,2104,0,7_S
1778660550.1496818,2097,0,7_S
1778660550.152729,2170,0,7_S
1778660550.155592,2179,0,7_S
1778660550.156033,2036,0,7_S
1778660550.156221,2076,0,7_S
1778660550.158431,2275,0,7_S
1778660550.161154,2415,0,7_S
1778660550.162566,2212,0,7_S
1778660550.163998,2038,0,7_S
1778660550.166659,2074,0,7_S
1778660550.168115,2162,0,7_S
1778660550.17451,2037,0,7_S
1778660550.175391,1974,0,7_S
1778660550.175606,2086,0,7_S
1778660550.178853,2322,0,7_S
1778660550.1798038,2178,0,7_S
1778660550.1829708,2093,0,7_S
1778660550.186054,2004,0,7_S
1778660550.186511,2047,0,7_S
1778660550.186765,2153,0,7_S
1778660550.189158,2030,0,7_S
1778660550.19055,2206,0,7_S
1778660550.1919549,2277,0,7_S
1778660550.199502,2283,0,7_S
1778660550.201777,2218,0,7_S
1778660550.20205,2079,0,7_S
1778660550.2039318,2118,0,7_S
1778660550.205759,2034,0,7_S
1778660550.205886,1872,0,7_S
1778660550.206416,1984,0,7_S
1778660550.208776,2229,0,7_S
1778660550.2117739,2389,0,7_S
1778660550.212047,2104,0,7_S
1778660550.214425,1953,0,7_S
1778660550.217082,1984,0,7_S
1778660550.218425,2054,0,7_S
1778660550.221131,2054,0,7_S
1778660550.222462,2060,0,7_S
1778660550.231134,2021,0,7_S
1778660550.232724,2266,0,7_S
1778660550.232963,2181,0,7_S
1778660550.2331011,2070,0,7_S
1778660550.2333288,2049,0,7_S
1778660550.235353,2070,0,7_S
1778660550.237374,2043,0,7_S
1778660550.242104,1917,0,7_S
1778660550.242244,2050,0,7_S
1778660550.2424488,2218,0,7_S
1778660550.2448058,2188,0,7_S
1778660550.246211,2057,0,7_S
1778660550.248884,2080,0,7_S
1778660550.253699,2068,0,7_S
1778660550.255305,1942,0,7_S
1778660550.256671,1832,0,7_S
1778660550.2570188,1957,0,7_S
1778660550.258689,2130,0,7_S
1778660550.261491,2253,0,7_S
1778660550.265856,2135,0,7_S
1778660550.26629,2043,0,7_S
1778660550.2665741,2010,0,7_S
1778660550.2689002,2081,0,7_S
1778660550.270297,1949,0,7_S
1778660550.2730281,1901,0,7_S
1778660550.274432,2115,0,7_S
1778660550.277191,2329,0,7_S
1778660550.278559,2142,0,7_S
1778660550.285229,2031,0,7_S
1778660550.287147,2053,0,7_S
1778660550.287333,2100,0,7_S
1778660550.287544,2013,0,7_S
1778660550.290048,1916,0,7_S
1778660550.290549,2069,0,7_S
1778660550.2963562,2217,0,7_S
1778660550.296486,2196,0,7_S
1778660550.2967172,2121,0,7_S
1778660550.299009,2022,0,7_S
1778660550.300331,2068,0,7_S
1778660550.3028889,2091,0,7_S
1778660550.307667,1935,0,7_S
1778660550.308104,1956,0,7_S
1778660550.30927,2154,0,7_S
1778660550.310536,2290,0,7_S
1778660550.312564,2037,0,7_S
1778660550.314244,1911,0,7_S
1778660550.316021,2044,0,7_S
1778660550.3186839,2138,0,7_S
1778660550.3208761,1985,0,7_S
1778660550.3221838,1926,0,7_S
1778660550.324744,2090,0,7_S
1778660550.326041,2276,0,7_S
1778660550.3286011,2134,0,7_S
1778660550.329928,2057,0,7_S
1778660550.3351839,1956,0,7_S
1778660550.3353221,2047,0,7_S
1778660550.3378718,1990,0,7_S
1778660550.338064,1873,0,7_S
1778660550.342274,1943,0,7_S
1778660550.3463008,2102,0,7_S
1778660550.346411,2026,0,7_S
1778660550.346553,1776,0,7_S
1778660550.348371,1614,0,7_S
1778660550.350008,1577,0,7_S
1778660550.35256,1565,0,7_S
1778660550.357675,1488,0,7_S
1778660550.35814,1493,0,7_S
1778660550.35854,1660,0,7_S
1778660550.361357,1883,0,7_S
1778660550.3630311,1757,0,7_S
1778660550.365109,1700,0,7_S
1778660550.367711,1860,0,7_S
1778660550.369843,2013,0,7_S
1778660550.3700402,1728,0,7_S
1778660550.372591,1699,0,7_S
1778660550.373916,2127,0,7_S
1778660550.376477,2356,0,7_S
1778660550.3778749,2082,0,7_S
1778660550.383911,1913,0,7_S
1778660550.384406,1973,0,7_S
1778660550.386376,2010,0,7_S
1778660550.386549,1868,0,7_S
1778660550.389033,1772,0,7_S
1778660550.394165,2106,0,7_S
1778660550.394472,2275,0,7_S
1778660550.394646,2115,0,7_S
1778660550.396647,1987,0,7_S
1778660550.397951,2000,0,7_S
1778660550.400512,2049,0,7_S
1778660550.404406,2068,0,7_S
1778660550.4048169,1970,0,7_S
1778660550.407202,1895,0,7_S
1778660550.408714,2129,0,7_S
1778660550.410306,2179,0,7_S
1778660550.4122581,2148,0,7_S
1778660550.414668,2052,0,7_S
1778660550.4167738,2112,0,7_S
1778660550.418085,2089,0,7_S
1778660550.420637,1980,0,7_S
1778660550.42193,1966,0,7_S
1778660550.424479,2078,0,7_S
1778660550.429575,2285,0,7_S
1778660550.429965,2151,0,7_S
1778660550.4306712,2124,0,7_S
1778660550.432585,2016,0,7_S
1778660550.43451,2091,0,7_S
1778660550.436425,2002,0,7_S
1778660550.440168,1870,0,7_S
1778660550.440245,2033,0,7_S
1778660550.4424388,2127,0,7_S
1778660550.444999,2051,0,7_S
1778660550.44629,2013,0,7_S
1778660550.455897,2037,0,7_S
1778660550.458689,2054,0,7_S
1778660550.4588192,2056,0,7_S
1778660550.461301,1979,0,7_S
1778660550.46158,1978,0,7_S
1778660550.461855,2230,0,7_S
1778660550.461938,2326,0,7_S
1778660550.462097,2133,0,7_S
1778660550.46489,2015,0,7_S
1778660550.4661791,1882,0,7_S
1778660550.468746,1996,0,7_S
1778660550.470037,2007,0,7_S
1778660550.4725828,2016,0,7_S
1778660550.477549,2040,0,7_S
1778660550.477621,2262,0,7_S
1778660550.480253,2170,0,7_S
1778660550.480364,2098,0,7_S
1778660550.482187,2011,0,7_S
1778660550.4853811,1979,0,7_S
1778660550.488066,1991,0,7_S
1778660550.488235,1905,0,7_S
1778660550.491012,1970,0,7_S
1778660550.492342,2067,0,7_S
1778660550.498474,2193,0,7_S
1778660550.499207,2183,0,7_S
1778660550.499636,2158,0,7_S
1778660550.5013351,2084,0,7_S
1778660550.503293,2093,0,7_S
1778660550.50664,2042,0,7_S
1778660550.506877,2029,0,7_S
1778660550.509383,2156,0,7_S
1778660550.511521,2325,0,7_S
1778660550.5128262,2142,0,7_S
1778660550.514118,2047,0,7_S
1778660550.516667,1971,0,7_S
1778660550.517954,2103,0,7_S
1778660550.520501,2005,0,7_S
1778660550.52544,1874,0,7_S
1778660550.525919,2009,0,7_S
1778660550.526687,2239,0,7_S
1778660550.5294662,2139,0,7_S
1778660550.531026,2010,0,7_S
1778660550.53459,1955,0,7_S
1778660550.5346189,1972,0,7_S
1778660550.536542,2030,0,7_S
1778660550.5378518,1927,0,7_S
1778660550.5404491,1981,0,7_S
1778660550.541767,2156,0,7_S
1778660550.544318,2152,0,7_S
1778660550.549566,2090,0,7_S
1778660550.5502248,2091,0,7_S
1778660550.55071,2071,0,7_S
1778660550.5521631,2081,0,7_S
1778660550.555082,1898,0,7_S
1778660550.5568829,1895,0,7_S
1778660550.55915,2132,0,7_S
1778660550.5611782,2341,0,7_S
1778660550.562476,2110,0,7_S
1778660550.563801,2034,0,7_S
1778660550.566345,1973,0,7_S
1778660550.5688949,2066,0,7_S
1778660550.573784,1988,0,7_S
1778660550.574228,1921,0,7_S
1778660550.574663,2102,0,7_S
1778660550.578235,2364,0,7_S
1778660550.57865,2188,0,7_S
1778660550.5810509,2124,0,7_S
1778660550.5832598,2000,0,7_S
1778660550.585303,2041,0,7_S
1778660550.586592,1976,0,7_S
1778660550.587879,1913,0,7_S
1778660550.590438,2079,0,7_S
1778660550.591767,2200,0,7_S
1778660550.597589,2183,0,7_S
1778660550.59854,2068,0,7_S
1778660550.600346,1975,0,7_S
1778660550.600405,2009,0,7_S
1778660550.603337,2094,0,7_S
1778660550.607522,1837,0,7_S
1778660550.607914,1948,0,7_S
1778660550.6083221,2140,0,7_S
1778660550.6102881,2394,0,7_S
1778660550.612842,2171,0,7_S
1778660550.614131,2008,0,7_S
1778660550.6166751,2007,0,7_S
1778660550.617962,2035,0,7_S
1778660550.622901,2043,0,7_S
1778660550.622973,1938,0,7_S
1778660550.625219,1997,0,7_S
1778660550.626702,2211,0,7_S
1778660550.628442,2166,0,7_S
1778660550.630055,2047,0,7_S
1778660550.6321542,1979,0,7_S
1778660550.634124,1991,0,7_S
1778660550.636683,2087,0,7_S
1778660550.6379719,1952,0,7_S
1778660550.640518,2012,0,7_S
1778660550.641804,2219,0,7_S
1778660550.646612,2273,0,7_S
1778660550.647012,2117,0,7_S
1778660550.64902,1998,0,7_S
1778660550.650862,1983,0,7_S
1778660550.652689,2162,0,7_S
1778660550.656029,1976,0,7_S
1778660550.656213,1896,0,7_S
1778660550.65805,2017,0,7_S
1778660550.660602,2217,0,7_S
1778660550.661888,2115,0,7_S
1778660550.6645231,2082,0,7_S
1778660550.6658602,2025,0,7_S
1778660550.6720572,2113,0,7_S
1778660550.672232,1988,0,7_S
1778660550.6724422,1977,0,7_S
1778660550.674243,2042,0,7_S
1778660550.678886,2262,0,7_S
1778660550.679042,2212,0,7_S
1778660550.6805298,2084,0,7_S
1778660550.681818,2047,0,7_S
1778660550.684362,2022,0,7_S
1778660550.686962,2023,0,7_S
1778660550.688257,1938,0,7_S
1778660550.6944451,1983,0,7_S
1778660550.694515,2259,0,7_S
1778660550.694609,2282,0,7_S
1778660550.698336,2027,0,7_S
1778660550.6987588,1987,0,7_S
1778660550.7007139,2022,0,7_S
1778660550.704024,2169,0,7_S
1778660550.704167,1971,0,7_S
1778660550.705804,1926,0,7_S
1778660550.7083678,2103,0,7_S
1778660550.7096598,2351,0,7_S
1778660550.7147782,2218,0,7_S
1778660550.715565,2062,0,7_S
1778660550.7175949,1985,0,7_S
1778660550.7197099,2049,0,7_S
1778660550.720716,1985,0,7_S
1778660550.7247,1967,0,7_S
1778660550.724731,2060,0,7_S
1778660550.7270951,2191,0,7_S
1778660550.7284899,2191,0,7_S
1778660550.72978,2057,0,7_S
1778660550.732445,1969,0,7_S
1778660550.734951,2027,0,7_S
1778660550.741744,2031,0,7_S
1778660550.743349,1904,0,7_S
1778660550.746735,1975,0,7_S
1778660550.747288,2109,0,7_S
1778660550.747911,2273,0,7_S
1778660550.751772,2154,0,7_S
1778660550.752429,1972,0,7_S
1778660550.754747,1997,0,7_S
1778660550.7549062,2102,0,7_S
1778660550.754984,1935,0,7_S
1778660550.756379,1925,0,7_S
1778660550.757733,2087,0,7_S
1778660550.765517,2277,0,7_S
1778660550.767832,2157,0,7_S
1778660550.7693892,2033,0,7_S
1778660550.771591,1958,0,7_S
1778660550.771827,2050,0,7_S
1778660550.774091,2024,0,7_S
1778660550.7744079,1924,0,7_S
1778660550.774691,2011,0,7_S
1778660550.7767591,2233,0,7_S
1778660550.778039,2171,0,7_S
1778660550.7806752,2025,0,7_S
1778660550.782099,1950,0,7_S
1778660550.7847402,1963,0,7_S
1778660550.786199,1994,0,7_S
1778660550.790821,1934,0,7_S
1778660550.793621,2046,0,7_S
1778660550.7960598,2161,0,7_S
1778660550.796284,2262,0,7_S
1778660550.796797,2108,0,7_S
1778660550.800065,2009,0,7_S
1778660550.802441,1954,0,7_S
1778660550.802937,2082,0,7_S
1778660550.8051682,1953,0,7_S
1778660550.806541,1842,0,7_S
1778660550.8078852,2063,0,7_S
1778660550.815237,2286,0,7_S
1778660550.8158169,2158,0,7_S
1778660550.817206,2071,0,7_S
1778660550.817431,2015,0,7_S
1778660550.819028,2092,0,7_S
1778660550.8209002,2008,0,7_S
1778660550.823128,1905,0,7_S
1778660550.8255439,2016,0,7_S
1778660550.828074,2186,0,7_S
1778660550.828149,2163,0,7_S
1778660550.830799,2023,0,7_S
1778660550.832155,2010,0,7_S
1778660550.834761,2053,0,7_S
1778660550.836082,2013,0,7_S
1778660550.844457,1730,0,7_S
1778660550.846504,1845,0,7_S
1778660550.8485792,2192,0,7_S
1778660550.849239,2383,0,7_S
1778660550.850965,2029,0,7_S
1778660550.8514419,1948,0,7_S
1778660550.8515651,2049,0,7_S
1778660550.855401,2178,0,7_S
1778660550.8557298,2084,0,7_S
1778660550.856131,1994,0,7_S
1778660550.8583412,2019,0,7_S
1778660550.859672,2146,0,7_S
1778660550.862349,2224,0,7_S
1778660550.867171,2093,0,7_S
1778660550.8685892,1983,0,7_S
1778660550.868722,2110,0,7_S
1778660550.870518,2059,0,7_S
1778660550.872512,1976,0,7_S
1778660550.8748338,2024,0,7_S
1778660550.8762739,2186,0,7_S
1778660550.878504,2203,0,7_S
1778660550.880331,2088,0,7_S
1778660550.881674,2032,0,7_S
1778660550.884311,2018,0,7_S
1778660550.885664,1978,0,7_S
1778660550.888296,1917,0,7_S
1778660550.8896692,1936,0,7_S
1778660550.898525,2082,0,7_S
1778660550.8989491,2176,0,7_S
1778660550.901668,2058,0,7_S
1778660550.902739,1990,0,7_S
1778660550.903761,1862,0,7_S
1778660550.903968,2042,0,7_S
1778660550.9044979,1918,0,7_S
1778660550.9083688,1947,0,7_S
1778660550.9086819,2081,0,7_S
1778660550.9111948,2349,0,7_S
1778660550.9125671,2286,0,7_S
1778660550.913926,2071,0,7_S
1778660550.92126,1695,0,7_S
1778660550.923111,1823,0,7_S
1778660550.9233768,2043,0,7_S
1778660550.923692,1880,0,7_S
1778660550.925948,1992,0,7_S
1778660550.926132,2086,0,7_S
1778660550.931964,2299,0,7_S
1778660550.9321759,2054,0,7_S
1778660550.932343,1934,0,7_S
1778660550.934918,1562,0,7_S
1778660550.936298,1718,0,7_S
1778660550.937645,2169,0,7_S
1778660550.9402602,2142,0,7_S
1778660550.941642,2418,0,7_S
1778660550.9443252,2334,0,7_S
1778660550.949892,2135,0,7_S
1778660550.9509618,2111,0,7_S
1778660550.953305,2384,0,7_S
1778660550.9539368,2229,0,7_S
1778660550.956267,1932,0,7_S
1778660550.956918,1775,0,7_S
1778660550.960433,1628,0,7_S
1778660550.962962,2085,0,7_S
1778660550.963221,1877,0,7_S
1778660550.965246,2021,0,7_S
1778660550.966615,1894,0,7_S
1778660550.968022,1962,0,7_S
1778660550.975105,1818,0,7_S
1778660550.9761899,1867,0,7_S
1778660550.976741,2222,0,7_S
1778660550.9784691,2336,0,7_S
1778660550.978674,2223,0,7_S
1778660550.982223,1823,0,7_S
1778660550.98276,1845,0,7_S
1778660550.987623,2102,0,7_S
1778660550.987927,2249,0,7_S
1778660550.988606,1973,0,7_S
1778660550.991019,1868,0,7_S
1778660550.99246,1951,0,7_S
1778660550.99382,2042,0,7_S
1778660550.996428,1754,0,7_S
1778660550.997778,1741,0,7_S
1778660551.0004008,1800,0,7_S
1778660551.001975,1816,0,7_S
1778660551.0079548,2132,0,7_S
1778660551.009023,2028,0,7_S
1778660551.009192,1930,0,7_S
1778660551.0125382,2304,0,7_S
1778660551.013134,2297,0,7_S
1778660551.015061,2085,0,7_S
1778660551.017088,1971,0,7_S
1778660551.019823,1954,0,7_S
1778660551.019946,1835,0,7_S
1778660551.022469,1639,0,7_S
1778660551.023811,1757,0,7_S
1778660551.026475,1852,0,7_S
1778660551.032784,1673,0,7_S
1778660551.03338,1950,0,7_S
1778660551.033602,2191,0,7_S
1778660551.035557,2128,0,7_S
1778660551.035915,1881,0,7_S
1778660551.039894,2001,0,7_S
1778660551.040127,2086,0,7_S
1778660551.0452101,2188,0,7_S
1778660551.0454059,2190,0,7_S
1778660551.048042,2232,0,7_S
1778660551.048181,2096,0,7_S
1778660551.050808,1923,0,7_S
1778660551.0521631,1968,0,7_S
1778660551.0547771,1804,0,7_S
1778660551.056149,1706,0,7_S
1778660551.058681,1834,0,7_S
1778660551.064406,1891,0,7_S
1778660551.066033,1638,0,7_S
1778660551.0681422,1700,0,7_S
1778660551.068453,2352,0,7_S
1778660551.071031,2268,0,7_S
1778660551.072117,1952,0,7_S
1778660551.0723698,1541,0,7_S
1778660551.0760078,1860,0,7_S
1778660551.078887,2612,0,7_S
1778660551.079166,2412,0,7_S
1778660551.081464,1753,0,7_S
1778660551.083195,1414,0,7_S
1778660551.084408,2022,0,7_S
1778660551.0857751,2276,0,7_S
1778660551.093257,1935,0,7_S
1778660551.093809,1436,0,7_S
1778660551.094311,2140,0,7_S
1778660551.094809,2826,0,7_S
1778660551.0963452,2170,0,7_S
1778660551.098607,1402,0,7_S
1778660551.100132,1614,0,7_S
1778660551.104956,2429,0,7_S
1778660551.105194,2089,0,7_S
1778660551.10766,1652,0,7_S
1778660551.107868,2011,0,7_S
1778660551.11043,2288,0,7_S
1778660551.111737,1814,0,7_S
1778660551.1143072,1778,0,7_S
1778660551.115607,2346,0,7_S
1778660551.12223,1633,0,7_S
1778660551.122275,1256,0,7_S
1778660551.123165,1173,0,7_S
1778660551.125408,1648,0,7_S
1778660551.1272361,2604,0,7_S
1778660551.129806,2755,0,7_S
1778660551.1319418,1504,0,7_S
1778660551.132168,1780,0,7_S
1778660551.13499,1616,0,7_S
1778660551.137305,1188,0,7_S
1778660551.138696,2759,0,7_S
1778660551.1400409,2661,0,7_S
1778660551.146699,2120,0,7_S
1778660551.147748,2082,0,7_S
1778660551.15013,1501,0,7_S
1778660551.150569,1411,0,7_S
1778660551.15287,2662,0,7_S
1778660551.15523,2730,0,7_S
1778660551.155791,1670,0,7_S
1778660551.157702,1197,0,7_S
1778660551.160226,1934,0,7_S
1778660551.160681,2328,0,7_S
1778660551.1631281,2005,0,7_S
1778660551.164481,2101,0,7_S
1778660551.165823,2098,0,7_S
1778660551.168482,2065,0,7_S
1778660551.1698492,1660,0,7_S
1778660551.17249,1629,0,7_S
1778660551.1787431,841,0,7_S
1778660551.1822798,1071,0,7_S
1778660551.183892,1526,0,7_S
1778660551.1847591,2660,0,7_S
1778660551.1859798,2524,0,7_S
1778660551.187542,1759,0,7_S
1778660551.189701,1643,0,7_S
1778660551.1922948,1791,0,7_S
1778660551.1925771,1037,0,7_S
1778660551.192768,2526,0,7_S
1778660551.195403,3531,0,7_S
1778660551.1955352,2430,0,7_S
1778660551.198169,1149,0,7_S
1778660551.199577,1037,0,7_S
1778660551.205201,2189,0,7_S
1778660551.2067351,2695,0,7_S
1778660551.207464,2144,0,7_S
1778660551.2090461,1286,0,7_S
1778660551.211584,1385,0,7_S
1778660551.2127,1739,0,7_S
1778660551.2160509,1498,0,7_S
1778660551.218954,1276,0,7_S
1778660551.2192588,851,0,7_S
1778660551.222013,1982,0,7_S
1778660551.2221508,2642,0,7_S
1778660551.223536,1156,0,7_S
1778660551.226092,1455,0,7_S
1778660551.227521,1920,0,7_S
1778660551.230113,2322,0,7_S
1778660551.2315211,2282,0,7_S
1778660551.237987,1872,0,7_S
1778660551.238183,1320,0,7_S
1778660551.23927,1468,0,7_S
1778660551.2419891,1753,0,7_S
1778660551.2448719,2260,0,7_S
1778660551.245918,2190,0,7_S
1778660551.246911,1841,0,7_S
1778660551.252029,1682,0,7_S
1778660551.252322,1665,0,7_S
1778660551.252566,1187,0,7_S
1778660551.255232,1577,0,7_S
1778660551.256604,2231,0,7_S
1778660551.2579489,1989,0,7_S
1778660551.2658062,1596,0,7_S
1778660551.266459,1470,0,7_S
1778660551.268812,1976,0,7_S
1778660551.2690098,1917,0,7_S
1778660551.270925,2194,0,7_S
1778660551.272025,2193,0,7_S
1778660551.272578,1728,0,7_S
1778660551.275969,1744,0,7_S
1778660551.2791271,1855,0,7_S
1778660551.2796018,2025,0,7_S
1778660551.2799842,1837,0,7_S
1778660551.282397,1752,0,7_S
1778660551.283765,1573,0,7_S
1778660551.286401,1998,0,7_S
1778660551.2877572,1850,0,7_S
1778660551.290391,1664,0,7_S
1778660551.291759,1624,0,7_S
1778660551.298634,1904,0,7_S
1778660551.299186,2086,0,7_S
1778660551.300268,1921,0,7_S
1778660551.300527,1585,0,7_S
1778660551.302196,1981,0,7_S
1778660551.304181,1748,0,7_S
1778660551.3062289,1688,0,7_S
1778660551.308846,2018,0,7_S
1778660551.3121438,2223,0,7_S
1778660551.312439,2262,0,7_S
1778660551.31478,2007,0,7_S
1778660551.316135,1893,0,7_S
1778660551.317527,2031,0,7_S
1778660551.324248,2026,0,7_S
1778660551.3253682,1679,0,7_S
1778660551.3263428,2127,0,7_S
1778660551.327911,2227,0,7_S
1778660551.3283079,1625,0,7_S
1778660551.330561,2514,0,7_S
1778660551.332486,2496,0,7_S
1778660551.3345659,2099,0,7_S
1778660551.337742,2079,0,7_S
1778660551.337895,2074,0,7_S
1778660551.340656,1788,0,7_S
1778660551.342001,2146,0,7_S
1778660551.344626,2397,0,7_S
1778660551.345959,2153,0,7_S
1778660551.3485801,2001,0,7_S
1778660551.349931,1627,0,7_S
1778660551.357743,2099,0,7_S
1778660551.3583841,2249,0,7_S
1778660551.359931,2180,0,7_S
1778660551.36336,1693,0,7_S
1778660551.3641212,2333,0,7_S
1778660551.3647308,2459,0,7_S
1778660551.365293,2361,0,7_S
1778660551.367179,2057,0,7_S
1778660551.370612,2077,0,7_S
