timestamp,ch1,ch2,label
1778660081.171574,1967,0,ɔ
1778660081.172299,2030,0,ɔ
1778660081.172332,1942,0,ɔ
1778660081.172357,1867,0,ɔ
1778660081.172381,2035,0,ɔ
1778660081.172404,2267,0,ɔ
1778660081.176018,2129,0,ɔ
1778660081.185889,1945,0,ɔ
1778660081.186562,1837,0,ɔ
1778660081.18672,2008,0,ɔ
1778660081.18683,1950,0,ɔ
1778660081.186889,1820,0,ɔ
1778660081.186938,1933,0,ɔ
1778660081.186985,2173,0,ɔ
1778660081.18703,2218,0,ɔ
1778660081.189766,2030,0,ɔ
1778660081.191145,1918,0,ɔ
1778660081.193761,1920,0,ɔ
1778660081.195091,1942,0,ɔ
1778660081.1975732,1814,0,ɔ
1778660081.198874,1848,0,ɔ
1778660081.203999,2138,0,ɔ
1778660081.2048042,2325,0,ɔ
1778660081.206342,2023,0,ɔ
1778660081.2078452,1856,0,ɔ
1778660081.2097018,1932,0,ɔ
1778660081.211618,1980,0,ɔ
1778660081.214015,1835,0,ɔ
1778660081.215328,1823,0,ɔ
1778660081.216733,1947,0,ɔ
1778660081.2192929,2209,0,ɔ
1778660081.221846,2142,0,ɔ
1778660081.223083,1997,0,ɔ
1778660081.227846,1893,0,ɔ
1778660081.2282722,1968,0,ɔ
1778660081.2300212,1933,0,ɔ
1778660081.23155,1780,0,ɔ
1778660081.233407,1908,0,ɔ
1778660081.235775,2060,0,ɔ
1778660081.237359,2186,0,ɔ
1778660081.238994,2018,0,ɔ
1778660081.2415638,1892,0,ɔ
1778660081.242796,1905,0,ɔ
1778660081.2453508,1931,0,ɔ
1778660081.246741,1765,0,ɔ
1778660081.250815,1783,0,ɔ
1778660081.251174,2010,0,ɔ
1778660081.2528262,2201,0,ɔ
1778660081.255806,1976,0,ɔ
1778660081.2573,1844,0,ɔ
1778660081.259543,1816,0,ɔ
1778660081.260843,1944,0,ɔ
1778660081.263392,1819,0,ɔ
1778660081.264766,1693,0,ɔ
1778660081.267309,1837,0,ɔ
1778660081.271894,2090,0,ɔ
1778660081.271971,1971,0,ɔ
1778660081.274008,1839,0,ɔ
1778660081.275838,1735,0,ɔ
1778660081.278808,1806,0,ɔ
1778660081.2789462,1743,0,ɔ
1778660081.281347,1632,0,ɔ
1778660081.2829282,1739,0,ɔ
1778660081.285504,1912,0,ɔ
1778660081.288629,1985,0,ɔ
1778660081.289075,1777,0,ɔ
1778660081.294713,1697,0,ɔ
1778660081.295713,1710,0,ɔ
1778660081.297363,1712,0,ɔ
1778660081.2975008,1554,0,ɔ
1778660081.299408,1600,0,ɔ
1778660081.3009589,1852,0,ɔ
1778660081.304626,2079,0,ɔ
1778660081.306009,1817,0,ɔ
1778660081.3072991,1715,0,ɔ
1778660081.309819,1672,0,ɔ
1778660081.311111,1763,0,ɔ
1778660081.313926,1705,0,ɔ
1778660081.3187242,1634,0,ɔ
1778660081.31919,1756,0,ɔ
1778660081.320266,1979,0,ɔ
1778660081.3223228,1894,0,ɔ
1778660081.326245,1734,0,ɔ
1778660081.326423,1657,0,ɔ
1778660081.3282392,1737,0,ɔ
1778660081.329537,1760,0,ɔ
1778660081.3308318,1631,0,ɔ
1778660081.333339,1605,0,ɔ
1778660081.335864,1913,0,ɔ
1778660081.340849,1995,0,ɔ
1778660081.341215,1782,0,ɔ
1778660081.3419268,1652,0,ɔ
1778660081.3436658,1670,0,ɔ
1778660081.345432,1662,0,ɔ
1778660081.3469949,1465,0,ɔ
1778660081.3512,1556,0,ɔ
1778660081.351299,1723,0,ɔ
1778660081.3538492,1906,0,ɔ
1778660081.3551319,1649,0,ɔ
1778660081.357674,1550,0,ɔ
1778660081.358957,1467,0,ɔ
1778660081.364539,1520,0,ɔ
1778660081.364901,1418,0,ɔ
1778660081.3649879,1360,0,ɔ
1778660081.367889,1519,0,ɔ
1778660081.3708029,1736,0,ɔ
1778660081.370919,1638,0,ɔ
1778660081.373276,1450,0,ɔ
1778660081.375828,1343,0,ɔ
1778660081.377129,1400,0,ɔ
1778660081.379689,1389,0,ɔ
1778660081.380973,1278,0,ɔ
1778660081.3856719,1388,0,ɔ
1778660081.386038,1587,0,ɔ
1778660081.38763,1664,0,ɔ
1778660081.389266,1470,0,ɔ
1778660081.3907719,1329,0,ɔ
1778660081.39463,1338,0,ɔ
1778660081.3949609,1406,0,ɔ
1778660081.397213,1267,0,ɔ
1778660081.399772,1311,0,ɔ
1778660081.4010592,1548,0,ɔ
1778660081.403768,1726,0,ɔ
1778660081.407555,1525,0,ɔ
1778660081.407656,1366,0,ɔ
1778660081.409589,1337,0,ɔ
1778660081.411286,1451,0,ɔ
1778660081.414222,1366,0,ɔ
1778660081.416901,1299,0,ɔ
1778660081.4169679,1490,0,ɔ
1778660081.419519,1716,0,ɔ
1778660081.420803,1526,0,ɔ
1778660081.4232209,1467,0,ɔ
1778660081.4246368,1458,0,ɔ
1778660081.429458,1474,0,ɔ
1778660081.4295418,1445,0,ɔ
1778660081.433084,1295,0,ɔ
1778660081.433447,1431,0,ɔ
1778660081.436523,1720,0,ɔ
1778660081.4376261,1778,0,ɔ
1778660081.43943,1576,0,ɔ
1778660081.440728,1450,0,ɔ
1778660081.443341,1493,0,ɔ
1778660081.444642,1520,0,ɔ
1778660081.447202,1415,0,ɔ
1778660081.45187,1507,0,ɔ
1778660081.451963,1661,0,ɔ
1778660081.4541109,1824,0,ɔ
1778660081.455515,1573,0,ɔ
1778660081.4572911,1492,0,ɔ
1778660081.4587991,1457,0,ɔ
1778660081.461268,1570,0,ɔ
1778660081.462686,1465,0,ɔ
1778660081.465232,1368,0,ɔ
1778660081.467781,1616,0,ɔ
1778660081.469076,1872,0,ɔ
1778660081.4735858,1742,0,ɔ
1778660081.473962,1559,0,ɔ
1778660081.4757912,1516,0,ɔ
1778660081.4774458,1634,0,ɔ
1778660081.47911,1602,0,ɔ
1778660081.481366,1530,0,ɔ
1778660081.483213,1536,0,ɔ
1778660081.4857721,1821,0,ɔ
1778660081.487061,1926,0,ɔ
1778660081.489616,1733,0,ɔ
1778660081.490902,1627,0,ɔ
1778660081.495466,1627,0,ɔ
1778660081.496129,1686,0,ɔ
1778660081.497741,1579,0,ɔ
1778660081.499566,1659,0,ɔ
1778660081.502271,1785,0,ɔ
1778660081.503607,2085,0,ɔ
1778660081.505285,1922,0,ɔ
1778660081.506628,1802,0,ɔ
1778660081.5091782,1734,0,ɔ
1778660081.5117178,1840,0,ɔ
1778660081.513003,1796,0,ɔ
1778660081.517588,1721,0,ɔ
1778660081.5186071,1906,0,ɔ
1778660081.520062,2092,0,ɔ
1778660081.522111,1950,0,ɔ
1778660081.524707,1847,0,ɔ
1778660081.524786,1723,0,ɔ
1778660081.527926,1829,0,ɔ
1778660081.529217,1889,0,ɔ
1778660081.5315561,1712,0,ɔ
1778660081.532853,1718,0,ɔ
1778660081.5354009,1984,0,ɔ
1778660081.5401962,2088,0,ɔ
1778660081.540567,1865,0,ɔ
1778660081.541316,1794,0,ɔ
1778660081.542664,1803,0,ɔ
1778660081.545789,1895,0,ɔ
1778660081.547306,1788,0,ɔ
1778660081.548671,1800,0,ɔ
1778660081.5514581,1963,0,ɔ
1778660081.552744,2147,0,ɔ
1778660081.555298,1997,0,ɔ
1778660081.556556,1874,0,ɔ
1778660081.562273,1829,0,ɔ
1778660081.562623,1905,0,ɔ
1778660081.562678,1837,0,ɔ
1778660081.56592,1793,0,ɔ
1778660081.568769,1975,0,ɔ
1778660081.568897,2207,0,ɔ
1778660081.571906,2076,0,ɔ
1778660081.573195,1885,0,ɔ
1778660081.575756,1812,0,ɔ
1778660081.577043,1916,0,ɔ
1778660081.5794141,1911,0,ɔ
1778660081.580651,1800,0,ɔ
1778660081.584451,1894,0,ɔ
1778660081.5864131,2092,0,ɔ
1778660081.5880451,2200,0,ɔ
1778660081.589477,1963,0,ɔ
1778660081.590954,1842,0,ɔ
1778660081.593892,1875,0,ɔ
1778660081.5951931,1892,0,ɔ
1778660081.597748,1839,0,ɔ
1778660081.599039,1832,0,ɔ
1778660081.6015859,2052,0,ɔ
1778660081.606455,2208,0,ɔ
1778660081.607127,2031,0,ɔ
1778660081.607213,1864,0,ɔ
1778660081.609817,1867,0,ɔ
1778660081.6113632,2024,0,ɔ
1778660081.6136599,1928,0,ɔ
1778660081.615359,1828,0,ɔ
1778660081.616651,1985,0,ɔ
1778660081.6191978,2200,0,ɔ
1778660081.620513,2130,0,ɔ
1778660081.6230552,1974,0,ɔ
1778660081.627444,1908,0,ɔ
1778660081.62873,1987,0,ɔ
1778660081.629055,1904,0,ɔ
1778660081.631907,1774,0,ɔ
1778660081.635658,1925,0,ɔ
1778660081.6357892,2119,0,ɔ
1778660081.6375911,2177,0,ɔ
1778660081.6389298,2014,0,ɔ
1778660081.641477,1931,0,ɔ
1778660081.642761,1936,0,ɔ
1778660081.6453,1963,0,ɔ
1778660081.64909,1873,0,ɔ
1778660081.649459,1920,0,ɔ
1778660081.651328,2108,0,ɔ
1778660081.653148,2226,0,ɔ
1778660081.656951,2013,0,ɔ
1778660081.657069,1921,0,ɔ
1778660081.658825,1939,0,ɔ
1778660081.6613739,2047,0,ɔ
1778660081.6626701,1951,0,ɔ
1778660081.664893,1835,0,ɔ
1778660081.670654,1928,0,ɔ
1778660081.671337,2191,0,ɔ
1778660081.671689,2161,0,ɔ
1778660081.673016,2048,0,ɔ
1778660081.67613,1836,0,ɔ
1778660081.6784499,1974,0,ɔ
1778660081.678766,1946,0,ɔ
1778660081.681319,1838,0,ɔ
1778660081.6826031,1926,0,ɔ
1778660081.6851451,2138,0,ɔ
1778660081.6865191,2224,0,ɔ
1778660081.688989,2015,0,ɔ
1778660081.693136,1903,0,ɔ
1778660081.693805,1957,0,ɔ
1778660081.696361,2000,0,ɔ
1778660081.697963,1826,0,ɔ
1778660081.700395,1887,0,ɔ
1778660081.700684,2098,0,ɔ
1778660081.7034292,2256,0,ɔ
1778660081.704712,2010,0,ɔ
1778660081.707111,1944,0,ɔ
1778660081.70848,1893,0,ɔ
1778660081.713813,2087,0,ɔ
1778660081.713863,1934,0,ɔ
1778660081.715879,1888,0,ɔ
1778660081.717729,2079,0,ɔ
1778660081.720204,2262,0,ɔ
1778660081.721689,2113,0,ɔ
1778660081.722999,1984,0,ɔ
1778660081.725555,1896,0,ɔ
1778660081.726848,1942,0,ɔ
1778660081.7293599,1960,0,ɔ
1778660081.7305448,1849,0,ɔ
1778660081.735787,1952,0,ɔ
1778660081.7363908,2130,0,ɔ
1778660081.7375329,2188,0,ɔ
1778660081.7393842,2034,0,ɔ
1778660081.740777,1935,0,ɔ
1778660081.743221,1973,0,ɔ
1778660081.7446861,2037,0,ɔ
1778660081.747612,1860,0,ɔ
1778660081.7489011,1887,0,ɔ
1778660081.751443,2086,0,ɔ
1778660081.752724,2247,0,ɔ
1778660081.756592,2069,0,ɔ
1778660081.756937,1955,0,ɔ
1778660081.758799,1940,0,ɔ
1778660081.7630348,2051,0,ɔ
1778660081.7645361,1914,0,ɔ
1778660081.7646348,1829,0,ɔ
1778660081.767232,2022,0,ɔ
1778660081.768518,2234,0,ɔ
1778660081.770966,2154,0,ɔ
1778660081.773516,2006,0,ɔ
1778660081.77761,1896,0,ɔ
1778660081.7779682,1933,0,ɔ
1778660081.779714,1959,0,ɔ
1778660081.781591,1846,0,ɔ
1778660081.784083,1938,0,ɔ
1778660081.785568,2136,0,ɔ
1778660081.7873201,2276,0,ɔ
1778660081.78861,2027,0,ɔ
1778660081.7911649,1887,0,ɔ
1778660081.792516,1940,0,ɔ
1778660081.79506,2028,0,ɔ
1778660081.799017,1895,0,ɔ
1778660081.799437,1907,0,ɔ
1778660081.8015099,2083,0,ɔ
1778660081.803065,2262,0,ɔ
1778660081.804611,2015,0,ɔ
1778660081.8070662,1963,0,ɔ
1778660081.808819,1886,0,ɔ
1778660081.8113742,2015,0,ɔ
1778660081.812665,1934,0,ɔ
1778660081.814902,1921,0,ɔ
1778660081.8174841,2052,0,ɔ
1778660081.820972,2217,0,ɔ
1778660081.8216581,2137,0,ɔ
1778660081.8256588,2044,0,ɔ
1778660081.826346,1960,0,ɔ
1778660081.82954,2013,0,ɔ
1778660081.831617,1953,0,ɔ
1778660081.831805,1809,0,ɔ
1778660081.8334022,1955,0,ɔ
1778660081.834699,2199,0,ɔ
1778660081.837683,2178,0,ɔ
1778660081.8389819,1955,0,ɔ
1778660081.840487,1961,0,ɔ
1778660081.853924,1969,0,ɔ
1778660081.8542972,1954,0,ɔ
1778660081.856429,1875,0,ɔ
1778660081.8566241,1923,0,ɔ
1778660081.8568,2072,0,ɔ
1778660081.8569129,2204,0,ɔ
1778660081.857004,2049,0,ɔ
1778660081.857068,1992,0,ɔ
1778660081.8584828,1964,0,ɔ
1778660081.8610702,2011,0,ɔ
1778660081.862427,1941,0,ɔ
1778660081.865074,1853,0,ɔ
1778660081.869743,1985,0,ɔ
1778660081.870178,2176,0,ɔ
1778660081.873755,2092,0,ɔ
1778660081.874418,1986,0,ɔ
1778660081.874828,1880,0,ɔ
1778660081.877711,1984,0,ɔ
1778660081.8793821,1952,0,ɔ
1778660081.8813188,1933,0,ɔ
1778660081.882623,1948,0,ɔ
1778660081.885174,2140,0,ɔ
1778660081.886462,2179,0,ɔ
1778660081.8890061,2084,0,ɔ
1778660081.8943071,1971,0,ɔ
1778660081.894748,1941,0,ɔ
1778660081.894848,2061,0,ɔ
1778660081.8988512,1894,0,ɔ
1778660081.899316,1894,0,ɔ
1778660081.901685,2054,0,ɔ
1778660081.903307,2235,0,ɔ
1778660081.905113,2048,0,ɔ
1778660081.9064121,1928,0,ɔ
1778660081.908969,1914,0,ɔ
1778660081.911525,1973,0,ɔ
1778660081.912813,1951,0,ɔ
1778660081.917535,1909,0,ɔ
1778660081.91793,2021,0,ɔ
1778660081.919513,2303,0,ɔ
1778660081.920861,2220,0,ɔ
1778660081.923867,2017,0,ɔ
1778660081.925503,1885,0,ɔ
1778660081.927356,1994,0,ɔ
1778660081.9287648,1959,0,ɔ
1778660081.93136,1842,0,ɔ
1778660081.93265,1921,0,ɔ
1778660081.9351969,2122,0,ɔ
1778660081.940798,2170,0,ɔ
1778660081.942624,2084,0,ɔ
1778660081.942768,2025,0,ɔ
1778660081.9428291,1990,0,ɔ
1778660081.94634,2066,0,ɔ
1778660081.947708,1932,0,ɔ
1778660081.9493592,1926,0,ɔ
1778660081.951325,2112,0,ɔ
1778660081.952616,2286,0,ɔ
1778660081.955169,2074,0,ɔ
1778660081.956464,1967,0,ɔ
1778660081.959009,1930,0,ɔ
1778660081.963168,2036,0,ɔ
1778660081.9635258,1903,0,ɔ
1778660081.965872,1886,0,ɔ
1778660081.96754,2029,0,ɔ
1778660081.969414,2224,0,ɔ
1778660081.9721978,2105,0,ɔ
1778660081.97396,2001,0,ɔ
1778660081.975256,1966,0,ɔ
1778660081.976546,2008,0,ɔ
1778660081.979232,1979,0,ɔ
1778660081.9805179,1859,0,ɔ
1778660081.986513,1915,0,ɔ
1778660081.986888,2222,0,ɔ
1778660081.9886332,2226,0,ɔ
1778660081.990438,1990,0,ɔ
1778660081.991935,1967,0,ɔ
1778660081.993442,1985,0,ɔ
1778660081.9970958,2026,0,ɔ
1778660081.99717,1905,0,ɔ
1778660081.998899,1900,0,ɔ
1778660082.001547,2118,0,ɔ
1778660082.002837,2311,0,ɔ
1778660082.0055501,2040,0,ɔ
1778660082.0099,1949,0,ɔ
1778660082.0103118,1945,0,ɔ
1778660082.011729,2021,0,ɔ
1778660082.013433,1974,0,ɔ
1778660082.014891,1902,0,ɔ
1778660082.0165,2041,0,ɔ
1778660082.019561,2214,0,ɔ
1778660082.0208619,2140,0,ɔ
1778660082.023415,2005,0,ɔ
1778660082.024705,1946,0,ɔ
1778660082.027255,2005,0,ɔ
1778660082.032359,1940,0,ɔ
1778660082.033033,1816,0,ɔ
1778660082.0340831,1956,0,ɔ
1778660082.035788,2170,0,ɔ
1778660082.037462,2267,0,ɔ
1778660082.040187,2004,0,ɔ
1778660082.042055,1896,0,ɔ
1778660082.04334,1940,0,ɔ
1778660082.0446248,2086,0,ɔ
1778660082.0470688,1869,0,ɔ
1778660082.048383,1952,0,ɔ
1778660082.0541718,2135,0,ɔ
1778660082.055111,2307,0,ɔ
1778660082.0551748,2062,0,ɔ
1778660082.0571551,1992,0,ɔ
1778660082.05873,1971,0,ɔ
1778660082.062023,2096,0,ɔ
1778660082.06383,1958,0,ɔ
1778660082.065126,1922,0,ɔ
1778660082.066421,2064,0,ɔ
1778660082.068969,2213,0,ɔ
1778660082.0715141,2128,0,ɔ
1778660082.076202,2005,0,ɔ
1778660082.077142,1962,0,ɔ
1778660082.0781848,2042,0,ɔ
1778660082.079791,2025,0,ɔ
1778660082.081113,1891,0,ɔ
1778660082.0825222,1991,0,ɔ
1778660082.0856278,2253,0,ɔ
1778660082.0869231,2259,0,ɔ
1778660082.08947,2040,0,ɔ
1778660082.090762,2019,0,ɔ
1778660082.093305,1988,0,ɔ
1778660082.098189,2038,0,ɔ
1778660082.098562,1907,0,ɔ
1778660082.099883,1955,0,ɔ
1778660082.101465,2094,0,ɔ
1778660082.1027892,2282,0,ɔ
1778660082.105875,2086,0,ɔ
1778660082.107738,1944,0,ɔ
1778660082.1090298,1915,0,ɔ
1778660082.110314,2071,0,ɔ
1778660082.11275,1960,0,ɔ
1778660082.114893,1910,0,ɔ
1778660082.119801,2052,0,ɔ
1778660082.120458,2218,0,ɔ
1778660082.120536,2171,0,ɔ
1778660082.123116,2039,0,ɔ
1778660082.124676,1990,0,ɔ
1778660082.1276858,2025,0,ɔ
1778660082.129378,1973,0,ɔ
1778660082.1306748,1888,0,ɔ
1778660082.1332211,1984,0,ɔ
1778660082.134506,2161,0,ɔ
1778660082.1370518,2221,0,ɔ
1778660082.141622,1989,0,ɔ
1778660082.142028,1946,0,ɔ
1778660082.1435862,1975,0,ɔ
1778660082.146024,2073,0,ɔ
1778660082.1480289,1912,0,ɔ
1778660082.149868,1898,0,ɔ
1778660082.151702,2062,0,ɔ
1778660082.152991,2263,0,ɔ
1778660082.154277,2078,0,ɔ
1778660082.1568189,2027,0,ɔ
1778660082.159372,1922,0,ɔ
1778660082.1631749,2023,0,ɔ
1778660082.1635451,1957,0,ɔ
1778660082.165345,1899,0,ɔ
1778660082.166991,2046,0,ɔ
1778660082.168483,2289,0,ɔ
1778660082.17196,2150,0,ɔ
1778660082.17369,2031,0,ɔ
1778660082.1748888,1957,0,ɔ
1778660082.177431,1976,0,ɔ
1778660082.178713,2002,0,ɔ
1778660082.1812649,1937,0,ɔ
1778660082.1852648,1912,0,ɔ
1778660082.1853282,2074,0,ɔ
1778660082.187513,2199,0,ɔ
1778660082.189141,2010,0,ɔ
1778660082.1904929,1926,0,ɔ
1778660082.1936378,1967,0,ɔ
1778660082.1953568,2036,0,ɔ
1778660082.196657,1855,0,ɔ
1778660082.199199,1872,0,ɔ
1778660082.2004852,2100,0,ɔ
1778660082.2030249,2245,0,ɔ
1778660082.2043278,2038,0,ɔ
1778660082.209843,1955,0,ɔ
1778660082.2099142,1912,0,ɔ
1778660082.211393,2044,0,ɔ
1778660082.215986,1967,0,ɔ
1778660082.216107,1905,0,ɔ
1778660082.2179132,2004,0,ɔ
1778660082.2192051,2210,0,ɔ
1778660082.22049,2143,0,ɔ
1778660082.223043,2054,0,ɔ
1778660082.2243252,1884,0,ɔ
1778660082.2298272,2031,0,ɔ
1778660082.231501,1934,0,ɔ
1778660082.231634,1776,0,ɔ
1778660082.233433,1952,0,ɔ
1778660082.235857,2165,0,ɔ
1778660082.237628,2245,0,ɔ
1778660082.239089,2031,0,ɔ
1778660082.240382,1926,0,ɔ
1778660082.242943,1943,0,ɔ
1778660082.244268,2008,0,ɔ
1778660082.246721,1873,0,ɔ
1778660082.250825,1856,0,ɔ
1778660082.252309,2054,0,ɔ
1778660082.253322,2265,0,ɔ
1778660082.2551732,2046,0,ɔ
1778660082.259456,1887,0,ɔ
1778660082.259521,1962,0,ɔ
1778660082.261278,2074,0,ɔ
1778660082.262572,1983,0,ɔ
1778660082.265117,1860,0,ɔ
1778660082.266407,2015,0,ɔ
1778660082.268961,2234,0,ɔ
1778660082.270275,2163,0,ɔ
1778660082.274844,2016,0,ɔ
1778660082.275458,1924,0,ɔ
1778660082.278053,1977,0,ɔ
1778660082.282609,1889,0,ɔ
1778660082.2827241,1795,0,ɔ
1778660082.282902,1876,0,ɔ
1778660082.284658,2147,0,ɔ
1778660082.2872078,2233,0,ɔ
1778660082.2885242,2016,0,ɔ
1778660082.2910678,1947,0,ɔ
1778660082.292352,1946,0,ɔ
1778660082.297761,2021,0,ɔ
1778660082.2989628,1905,0,ɔ
1778660082.3000362,1853,0,ɔ
1778660082.301714,2083,0,ɔ
1778660082.303427,2313,0,ɔ
1778660082.306398,2087,0,ɔ
1778660082.306496,1880,0,ɔ
1778660082.30922,1904,0,ɔ
1778660082.310509,2107,0,ɔ
1778660082.313063,1999,0,ɔ
1778660082.314351,1886,0,ɔ
1778660082.3201432,2074,0,ɔ
1778660082.321122,2199,0,ɔ
1778660082.322502,2143,0,ɔ
1778660082.322634,2034,0,ɔ
1778660082.325402,1899,0,ɔ
1778660082.326796,2001,0,ɔ
1778660082.3286479,1991,0,ɔ
1778660082.331309,1843,0,ɔ
1778660082.3326652,1945,0,ɔ
1778660082.3352342,2140,0,ɔ
1778660082.336521,2183,0,ɔ
1778660082.341347,1979,0,ɔ
1778660082.341731,1952,0,ɔ
1778660082.3439412,1981,0,ɔ
1778660082.34545,2050,0,ɔ
1778660082.347185,1898,0,ɔ
1778660082.349968,1894,0,ɔ
1778660082.351855,2085,0,ɔ
1778660082.353149,2256,0,ɔ
1778660082.354435,2056,0,ɔ
1778660082.356977,1990,0,ɔ
1778660082.358261,1934,0,ɔ
1778660082.360805,2007,0,ɔ
1778660082.374882,1964,0,ɔ
1778660082.374995,1850,0,ɔ
1778660082.3750882,1993,0,ɔ
1778660082.375113,2212,0,ɔ
1778660082.375137,2129,0,ɔ
1778660082.3752892,2027,0,ɔ
1778660082.375436,1938,0,ɔ
1778660082.376756,1942,0,ɔ
1778660082.3786979,1910,0,ɔ
1778660082.382855,1824,0,ɔ
1778660082.383861,1897,0,ɔ
1778660082.436329,2140,0,ɔ
1778660082.438213,2200,0,ɔ
1778660082.443805,1985,0,ɔ
1778660082.443902,1937,0,ɔ
1778660082.443937,1890,0,ɔ
1778660082.443965,1974,0,ɔ
1778660082.443989,1834,0,ɔ
1778660082.444014,1894,0,ɔ
1778660082.4440498,2089,0,ɔ
1778660082.4696572,2259,0,ɔ
1778660082.469707,1878,0,ɔ
1778660082.469734,1854,0,ɔ
1778660082.469759,1882,0,ɔ
1778660082.469783,2047,0,ɔ
1778660082.4698062,2059,0,ɔ
1778660082.469829,1869,0,ɔ
1778660082.469852,1922,0,ɔ
1778660082.4698749,2238,0,ɔ
1778660082.469897,2157,0,ɔ
1778660082.46992,2038,0,ɔ
1778660082.469943,1924,0,ɔ
1778660082.4699662,1786,0,ɔ
1778660082.470004,1835,0,ɔ
1778660082.470026,1911,0,ɔ
1778660082.4700491,2034,0,ɔ
1778660082.470072,2215,0,ɔ
1778660082.470098,2244,0,ɔ
1778660082.47012,2092,0,ɔ
1778660082.470142,2019,0,ɔ
1778660082.470164,2005,0,ɔ
1778660082.470186,1985,0,ɔ
1778660082.470208,1842,0,ɔ
1778660082.470231,1749,0,ɔ
1778660082.470253,1764,0,ɔ
1778660082.4702752,1989,0,ɔ
1778660082.470298,2107,0,ɔ
1778660082.4703202,2144,0,ɔ
1778660082.470342,2135,0,ɔ
1778660082.4703639,2159,0,ɔ
1778660082.472414,2033,0,ɔ
1778660082.472455,1947,0,ɔ
1778660082.473203,2083,0,ɔ
1778660082.4741812,2243,0,ɔ
1778660082.474232,2127,0,ɔ
1778660082.4742558,1947,0,ɔ
1778660082.4743092,1817,0,ɔ
1778660082.480302,1873,0,ɔ
1778660082.480356,1910,0,ɔ
1778660082.480426,1858,0,ɔ
1778660082.5152252,1965,0,ɔ
1778660082.51565,2183,0,ɔ
1778660082.516041,2235,0,ɔ
1778660082.516892,1998,0,ɔ
1778660082.5173252,1870,0,ɔ
1778660082.517597,1890,0,ɔ
1778660082.518473,1971,0,ɔ
1778660082.518682,1854,0,ɔ
1778660082.5187142,1939,0,ɔ
1778660082.518739,2133,0,ɔ
1778660082.518763,2251,0,ɔ
1778660082.518977,1998,0,ɔ
1778660082.519228,1938,0,ɔ
1778660082.519711,1907,0,ɔ
1778660082.520128,1989,0,ɔ
1778660082.52045,1899,0,ɔ
1778660082.5204759,1849,0,ɔ
1778660082.5206652,2026,0,ɔ
1778660082.521012,2238,0,ɔ
1778660082.521037,2168,0,ɔ
1778660082.523959,1985,0,ɔ
1778660082.5294878,1883,0,ɔ
1778660082.5295181,1966,0,ɔ
1778660082.529567,2008,0,ɔ
1778660082.5482602,1871,0,ɔ
1778660082.5530062,1840,0,ɔ
1778660082.5540009,2160,0,ɔ
1778660082.55407,2285,0,ɔ
1778660082.5777018,2099,0,ɔ
1778660082.5779898,1866,0,ɔ
1778660082.5781848,1917,0,ɔ
1778660082.5783172,2100,0,ɔ
1778660082.578484,1939,0,ɔ
1778660082.5791218,1890,0,ɔ
1778660082.579278,2065,0,ɔ
1778660082.5795252,2141,0,ɔ
1778660082.579587,2060,0,ɔ
1778660082.579821,1995,0,ɔ
1778660082.580121,1914,0,ɔ
1778660082.580414,2036,0,ɔ
1778660082.580734,2012,0,ɔ
1778660082.580765,1827,0,ɔ
1778660082.580943,1949,0,ɔ
1778660082.5809731,2199,0,ɔ
1778660082.582242,2193,0,ɔ
1778660082.582695,2026,0,ɔ
1778660082.58273,2000,0,ɔ
1778660082.582756,2082,0,ɔ
1778660082.5827808,1844,0,ɔ
1778660082.582807,1756,0,ɔ
1778660082.5828328,1985,0,ɔ
1778660082.584759,2280,0,ɔ
1778660082.586275,2131,0,ɔ
1778660082.5890281,1931,0,ɔ
1778660082.59678,1886,0,ɔ
1778660082.606215,1920,0,ɔ
1778660082.611779,2041,0,ɔ
1778660082.612086,2112,0,ɔ
1778660082.612227,1977,0,ɔ
1778660082.6122591,1855,0,ɔ
1778660082.612284,2372,0,ɔ
1778660082.6123781,2203,0,ɔ
1778660082.612643,1961,0,ɔ
1778660082.61267,1813,0,ɔ
1778660082.613217,1830,0,ɔ
1778660082.614149,1868,0,ɔ
1778660082.614175,1783,0,ɔ
1778660082.6314712,1989,0,ɔ
1778660082.6318002,2181,0,ɔ
1778660082.631868,2196,0,ɔ
1778660082.6319308,1951,0,ɔ
1778660082.632017,1922,0,ɔ
1778660082.6321018,2049,0,ɔ
1778660082.632187,1907,0,ɔ
1778660082.632239,1979,0,ɔ
1778660082.632288,1994,0,ɔ
1778660082.634196,2075,0,ɔ
1778660082.636873,2079,0,ɔ
1778660082.638269,1943,0,ɔ
1778660082.641261,1932,0,ɔ
1778660082.6487958,1986,0,ɔ
1778660082.65115,2116,0,ɔ
1778660082.652125,1971,0,ɔ
1778660082.6530938,1835,0,ɔ
1778660082.65523,1896,0,ɔ
1778660082.6576362,2297,0,ɔ
1778660082.659668,1940,0,ɔ
1778660082.660335,1850,0,ɔ
1778660082.660396,1950,0,ɔ
1778660082.660446,1901,0,ɔ
1778660082.663799,1745,0,ɔ
1778660082.67047,1884,0,ɔ
1778660082.671016,2051,0,ɔ
1778660082.672351,2198,0,ɔ
1778660082.674948,2199,0,ɔ
1778660082.677189,1966,0,ɔ
1778660082.683242,1910,0,ɔ
1778660082.683381,1905,0,ɔ
1778660082.683444,1852,0,ɔ
1778660082.6835048,1787,0,ɔ
1778660082.683569,1861,0,ɔ
1778660082.684952,2028,0,ɔ
1778660082.686303,2248,0,ɔ
1778660082.688904,1955,0,ɔ
1778660082.690433,1863,0,ɔ
1778660082.693504,1776,0,ɔ
1778660082.701022,1977,0,ɔ
1778660082.7033951,1912,0,ɔ
1778660082.704866,2071,0,ɔ
1778660082.7062552,1943,0,ɔ
1778660082.710269,2106,0,ɔ
1778660082.710666,1833,0,ɔ
1778660082.711074,2016,0,ɔ
1778660082.713296,2022,0,ɔ
1778660082.713332,1900,0,ɔ
1778660082.7133598,1840,0,ɔ
1778660082.714682,1881,0,ɔ
1778660082.7164092,1799,0,ɔ
1778660082.728298,2145,0,ɔ
1778660082.740383,2031,0,ɔ
1778660082.740885,2019,0,ɔ
1778660082.744353,1857,0,ɔ
1778660082.744529,1855,0,ɔ
1778660082.7445812,2110,0,ɔ
1778660082.744672,1752,0,ɔ
1778660082.744718,1756,0,ɔ
1778660082.744748,2076,0,ɔ
1778660082.7447739,2344,0,ɔ
1778660082.7448,1979,0,ɔ
1778660082.7448251,1878,0,ɔ
1778660082.744902,1918,0,ɔ
1778660082.744928,1987,0,ɔ
1778660082.7466109,1817,0,ɔ
1778660082.7480378,1755,0,ɔ
1778660082.750876,2205,0,ɔ
1778660082.752301,2265,0,ɔ
1778660082.7547991,2301,0,ɔ
1778660082.7730129,1702,0,ɔ
1778660082.773099,1614,0,ɔ
1778660082.773154,2174,0,ɔ
1778660082.7732038,2157,0,ɔ
1778660082.7732549,1838,0,ɔ
1778660082.773304,1962,0,ɔ
1778660082.773352,2157,0,ɔ
1778660082.773403,1965,0,ɔ
1778660082.773449,1947,0,ɔ
1778660082.774795,1994,0,ɔ
1778660082.776261,2011,0,ɔ
1778660082.797605,1901,0,ɔ
1778660082.797651,1748,0,ɔ
1778660082.7976801,1794,0,ɔ
1778660082.797706,2034,0,ɔ
1778660082.7977312,2300,0,ɔ
1778660082.797804,2036,0,ɔ
1778660082.797916,1928,0,ɔ
1778660082.7979572,1947,0,ɔ
1778660082.797986,2029,0,ɔ
1778660082.7980108,1973,0,ɔ
1778660082.798035,1986,0,ɔ
1778660082.802028,2031,0,ɔ
1778660082.8314922,2170,0,ɔ
1778660082.836051,2052,0,ɔ
1778660082.836649,1971,0,ɔ
1778660082.836959,1741,0,ɔ
1778660082.839257,2097,0,ɔ
1778660082.839531,2193,0,ɔ
1778660082.839633,1716,0,ɔ
1778660082.839701,1932,0,ɔ
1778660082.839784,2272,0,ɔ
1778660082.8398972,2318,0,ɔ
1778660082.839933,2208,0,ɔ
1778660082.8400059,1827,0,ɔ
1778660082.840105,2165,0,ɔ
1778660082.84016,1736,0,ɔ
1778660082.840245,1767,0,ɔ
1778660082.840333,1981,0,ɔ
1778660082.8403862,2182,0,ɔ
1778660082.840461,2155,0,ɔ
1778660082.84052,2069,0,ɔ
1778660082.8405719,2116,0,ɔ
1778660082.842029,1973,0,ɔ
1778660082.8480651,2035,0,ɔ
1778660082.8491461,1896,0,ɔ
1778660082.849634,1962,0,ɔ
1778660082.8528352,2108,0,ɔ
1778660082.854539,2066,0,ɔ
1778660082.857186,2157,0,ɔ
1778660082.8595572,1820,0,ɔ
1778660082.8598,1930,0,ɔ
1778660082.862499,1930,0,ɔ
1778660082.862605,2002,0,ɔ
1778660082.863987,1790,0,ɔ
1778660082.8667898,2008,0,ɔ
1778660082.868133,2377,0,ɔ
1778660082.870734,2086,0,ɔ
1778660082.872066,2071,0,ɔ
1778660082.8796318,2038,0,ɔ
1778660082.8816829,2033,0,ɔ
1778660082.8820531,1911,0,ɔ
1778660082.8842182,1945,0,ɔ
1778660082.8867898,1872,0,ɔ
1778660082.8886242,2217,0,ɔ
1778660082.8888772,2216,0,ɔ
1778660082.8941052,1881,0,ɔ
1778660082.894155,1943,0,ɔ
1778660082.894185,2047,0,ɔ
1778660082.894214,1894,0,ɔ
1778660082.896886,1897,0,ɔ
1778660082.9027798,1840,0,ɔ
1778660082.903397,2078,0,ɔ
1778660082.9043531,2202,0,ɔ
1778660082.906425,2084,0,ɔ
1778660082.906666,1892,0,ɔ
1778660082.909666,1967,0,ɔ
1778660082.911171,2074,0,ɔ
1778660082.915255,1849,0,ɔ
1778660082.915464,1879,0,ɔ
1778660082.917771,2128,0,ɔ
1778660082.919198,2209,0,ɔ
1778660082.920555,2095,0,ɔ
1778660082.923182,2127,0,ɔ
1778660082.924587,2014,0,ɔ
1778660082.926,2060,0,ɔ
1778660082.933747,2042,0,ɔ
1778660082.934391,1752,0,ɔ
1778660082.936589,1916,0,ɔ
1778660082.936755,2232,0,ɔ
1778660082.9369159,2291,0,ɔ
1778660082.939992,1894,0,ɔ
1778660082.940943,2062,0,ɔ
1778660082.945811,2005,0,ɔ
1778660082.946274,2045,0,ɔ
1778660082.946545,1960,0,ɔ
1778660082.9488819,1812,0,ɔ
1778660082.950274,2125,0,ɔ
1778660082.952893,2472,0,ɔ
1778660082.9585788,2189,0,ɔ
1778660082.9613729,1849,0,ɔ
1778660082.961602,2094,0,ɔ
1778660082.961774,2263,0,ɔ
1778660082.972726,1896,0,ɔ
1778660082.9730592,1789,0,ɔ
1778660082.973143,2006,0,ɔ
1778660082.973194,2397,0,ɔ
1778660082.9732668,2290,0,ɔ
1778660082.9733,1891,0,ɔ
1778660082.974497,1936,0,ɔ
1778660082.975958,1981,0,ɔ
1778660082.978527,1993,0,ɔ
1778660082.980017,1935,0,ɔ
1778660082.9827058,2217,0,ɔ
1778660082.9897542,2259,0,ɔ
1778660082.992316,2173,0,ɔ
1778660082.994657,2113,0,ɔ
1778660082.9957252,1922,0,ɔ
1778660082.9966762,2027,0,ɔ
1778660082.999247,2101,0,ɔ
1778660083.001899,1979,0,ɔ
1778660083.00226,1965,0,ɔ
1778660083.002582,2134,0,ɔ
1778660083.002999,2326,0,ɔ
1778660083.00528,2084,0,ɔ
1778660083.006597,1981,0,ɔ
1778660083.0079749,1847,0,ɔ
1778660083.014847,2123,0,ɔ
1778660083.0175061,2056,0,ɔ
1778660083.0175848,1821,0,ɔ
1778660083.017828,1921,0,ɔ
1778660083.0179682,2158,0,ɔ
1778660083.0209641,2166,0,ɔ
1778660083.0236092,2138,0,ɔ
1778660083.02606,2064,0,ɔ
1778660083.026453,1939,0,ɔ
1778660083.02871,1870,0,ɔ
1778660083.030019,1842,0,ɔ
1778660083.032591,1893,0,ɔ
1778660083.0339031,2133,0,ɔ
1778660083.03646,2383,0,ɔ
1778660083.043755,1982,0,ɔ
1778660083.04548,1891,0,ɔ
1778660083.0470452,1973,0,ɔ
1778660083.0472,2104,0,ɔ
1778660083.047333,1959,0,ɔ
1778660083.0494552,1869,0,ɔ
1778660083.050805,2197,0,ɔ
1778660083.055423,2451,0,ɔ
1778660083.0558238,2030,0,ɔ
1778660083.055872,2002,0,ɔ
1778660083.0589619,2121,0,ɔ
1778660083.060319,1799,0,ɔ
1778660083.0628889,1953,0,ɔ
1778660083.06713,1983,0,ɔ
1778660083.068056,2119,0,ɔ
1778660083.068539,2261,0,ɔ
1778660083.070129,2297,0,ɔ
1778660083.073407,1999,0,ɔ
1778660083.075485,1863,0,ɔ
1778660083.078004,2002,0,ɔ
1778660083.0781682,2286,0,ɔ
1778660083.079956,1776,0,ɔ
1778660083.082528,1754,0,ɔ
1778660083.083827,2130,0,ɔ
1778660083.086396,2308,0,ɔ
1778660083.089219,1972,0,ɔ
1778660083.090521,1948,0,ɔ
1778660083.0955222,1942,0,ɔ
1778660083.095986,2007,0,ɔ
1778660083.096095,1972,0,ɔ
1778660083.0985532,1884,0,ɔ
1778660083.10029,2010,0,ɔ
1778660083.1044018,2153,0,ɔ
1778660083.107,2068,0,ɔ
1778660083.107148,1967,0,ɔ
1778660083.109366,1957,0,ɔ
1778660083.110677,2098,0,ɔ
1778660083.111975,1974,0,ɔ
1778660083.117813,1952,0,ɔ
1778660083.118657,2014,0,ɔ
1778660083.1194391,2170,0,ɔ
1778660083.120863,2181,0,ɔ
1778660083.122947,1959,0,ɔ
1778660083.124458,1875,0,ɔ
1778660083.128829,2065,0,ɔ
1778660083.128962,2041,0,ɔ
1778660083.131242,1803,0,ɔ
1778660083.132549,2022,0,ɔ
1778660083.133842,2169,0,ɔ
1778660083.136406,2135,0,ɔ
1778660083.137748,2060,0,ɔ
1778660083.140308,1939,0,ɔ
1778660083.146256,1954,0,ɔ
1778660083.146322,1963,0,ɔ
1778660083.147198,1863,0,ɔ
1778660083.1491551,2009,0,ɔ
1778660083.15117,2259,0,ɔ
1778660083.1526148,2191,0,ɔ
1778660083.1547341,2071,0,ɔ
1778660083.157196,1971,0,ɔ
1778660083.159416,1891,0,ɔ
1778660083.160715,1994,0,ɔ
1778660083.1620731,1897,0,ɔ
1778660083.16868,1875,0,ɔ
1778660083.169616,2015,0,ɔ
1778660083.171655,2204,0,ɔ
1778660083.171969,2198,0,ɔ
1778660083.173517,2000,0,ɔ
1778660083.1752572,1963,0,ɔ
1778660083.1798599,2005,0,ɔ
1778660083.18017,1951,0,ɔ
1778660083.1803331,1956,0,ɔ
1778660083.182512,1892,0,ɔ
1778660083.1839008,2103,0,ɔ
1778660083.1864781,2172,0,ɔ
1778660083.187788,1987,0,ɔ
1778660083.1903439,2065,0,ɔ
1778660083.193131,2007,0,ɔ
1778660083.1969888,1942,0,ɔ
1778660083.197772,1826,0,ɔ
1778660083.197936,1979,0,ɔ
1778660083.2004008,2114,0,ɔ
1778660083.202385,2266,0,ɔ
1778660083.20425,2227,0,ɔ
1778660083.206212,1920,0,ɔ
1778660083.208596,1904,0,ɔ
1778660083.2109451,2053,0,ɔ
1778660083.212332,2003,0,ɔ
1778660083.2147672,1879,0,ɔ
1778660083.22091,1913,0,ɔ
1778660083.221865,2204,0,ɔ
1778660083.2239501,2293,0,ɔ
1778660083.2240682,1910,0,ɔ
1778660083.224313,1852,0,ɔ
1778660083.2263901,1985,0,ɔ
1778660083.2287118,2033,0,ɔ
1778660083.2303119,1855,0,ɔ
1778660083.232987,1913,0,ɔ
1778660083.235401,2169,0,ɔ
1778660083.2368808,2351,0,ɔ
1778660083.238218,2102,0,ɔ
1778660083.240891,1941,0,ɔ
1778660083.2423308,1976,0,ɔ
1778660083.2446878,2031,0,ɔ
1778660083.249588,1899,0,ɔ
1778660083.250428,2120,0,ɔ
1778660083.251054,1961,0,ɔ
1778660083.252925,2061,0,ɔ
1778660083.255266,2057,0,ɔ
1778660083.2593322,1995,0,ɔ
1778660083.262391,2008,0,ɔ
1778660083.262742,2075,0,ɔ
1778660083.262903,1973,0,ɔ
1778660083.265346,1872,0,ɔ
1778660083.266664,2077,0,ɔ
1778660083.267977,2237,0,ɔ
1778660083.278923,2234,0,ɔ
1778660083.281947,1990,0,ɔ
1778660083.286477,1966,0,ɔ
1778660083.289121,2021,0,ɔ
1778660083.289265,2091,0,ɔ
1778660083.289328,1773,0,ɔ
1778660083.2893848,2001,0,ɔ
1778660083.289435,2227,0,ɔ
1778660083.289485,2313,0,ɔ
1778660083.289546,2086,0,ɔ
1778660083.2906392,2050,0,ɔ
1778660083.292016,2021,0,ɔ
1778660083.294702,2047,0,ɔ
1778660083.295852,1933,0,ɔ
1778660083.298641,1926,0,ɔ
1778660083.30198,2045,0,ɔ
1778660083.30782,2236,0,ɔ
1778660083.3079119,2090,0,ɔ
1778660083.307945,2001,0,ɔ
1778660083.313951,1897,0,ɔ
1778660083.314023,2130,0,ɔ
1778660083.320042,1970,0,ɔ
1778660083.320118,1907,0,ɔ
1778660083.3202162,2065,0,ɔ
1778660083.320281,2275,0,ɔ
1778660083.3203359,2184,0,ɔ
1778660083.3216882,2052,0,ɔ
1778660083.3287628,2011,0,ɔ
1778660083.33073,1995,0,ɔ
1778660083.333111,2045,0,ɔ
1778660083.334204,1934,0,ɔ
1778660083.3344011,1960,0,ɔ
1778660083.336336,2140,0,ɔ
1778660083.3381839,2224,0,ɔ
1778660083.341248,2115,0,ɔ
1778660083.341585,1966,0,ɔ
1778660083.34196,1978,0,ɔ
1778660083.3442419,2091,0,ɔ
1778660083.345651,1920,0,ɔ
1778660083.348319,1899,0,ɔ
1778660083.3497941,2077,0,ɔ
1778660083.3524559,2342,0,ɔ
1778660083.353806,2163,0,ɔ
1778660083.3598568,2018,0,ɔ
1778660083.362324,2001,0,ɔ
1778660083.3627148,2134,0,ɔ
1778660083.3659232,2028,0,ɔ
1778660083.367897,1886,0,ɔ
1778660083.372246,2103,0,ɔ
1778660083.372679,2281,0,ɔ
1778660083.373023,2217,0,ɔ
1778660083.374936,2044,0,ɔ
1778660083.375149,1922,0,ɔ
1778660083.376588,2042,0,ɔ
1778660083.377951,2036,0,ɔ
1778660083.386461,1852,0,ɔ
1778660083.3869472,1990,0,ɔ
1778660083.388351,2183,0,ɔ
1778660083.390259,2340,0,ɔ
1778660083.390711,2135,0,ɔ
1778660083.391296,2006,0,ɔ
1778660083.394686,1997,0,ɔ
1778660083.39477,2097,0,ɔ
1778660083.397658,1937,0,ɔ
1778660083.397909,1959,0,ɔ
1778660083.400779,2146,0,ɔ
1778660083.402146,2333,0,ɔ
1778660083.404626,2105,0,ɔ
1778660083.405977,1988,0,ɔ
1778660083.408622,1991,0,ɔ
1778660083.4158149,2130,0,ɔ
1778660083.4183319,2052,0,ɔ
1778660083.420382,1906,0,ɔ
1778660083.421835,1953,0,ɔ
1778660083.422904,2247,0,ɔ
1778660083.4278662,2249,0,ɔ
1778660083.4281862,2163,0,ɔ
1778660083.4284759,2002,0,ɔ
1778660083.430349,2058,0,ɔ
1778660083.431103,2067,0,ɔ
1778660083.43117,1932,0,ɔ
1778660083.432543,2015,0,ɔ
1778660083.433913,2214,0,ɔ
1778660083.4414248,2299,0,ɔ
1778660083.4445791,2122,0,ɔ
1778660083.446303,2031,0,ɔ
1778660083.4470458,1997,0,ɔ
1778660083.44804,2084,0,ɔ
1778660083.4515011,2013,0,ɔ
1778660083.454247,2031,0,ɔ
1778660083.454548,2148,0,ɔ
1778660083.454998,2400,0,ɔ
1778660083.457349,2171,0,ɔ
1778660083.4574149,2046,0,ɔ
1778660083.458765,2009,0,ɔ
1778660083.460097,2035,0,ɔ
1778660083.462687,2022,0,ɔ
1778660083.46404,1991,0,ɔ
1778660083.466649,2098,0,ɔ
1778660083.473429,2300,0,ɔ
1778660083.47574,2259,0,ɔ
1778660083.477982,2056,0,ɔ
1778660083.4786491,2004,0,ɔ
1778660083.479883,2036,0,ɔ
1778660083.4809432,2055,0,ɔ
1778660083.481462,1921,0,ɔ
1778660083.486269,1955,0,ɔ
1778660083.4866939,2181,0,ɔ
1778660083.487062,2290,0,ɔ
1778660083.48932,2074,0,ɔ
1778660083.49068,1949,0,ɔ
1778660083.4920168,1991,0,ɔ
1778660083.5020611,2135,0,ɔ
1778660083.504139,1992,0,ɔ
1778660083.505163,1879,0,ɔ
1778660083.507469,2097,0,ɔ
1778660083.5116758,2321,0,ɔ
1778660083.5120058,2091,0,ɔ
1778660083.5123358,2014,0,ɔ
1778660083.512821,2005,0,ɔ
1778660083.515191,2045,0,ɔ
1778660083.5153081,1993,0,ɔ
1778660083.515367,1884,0,ɔ
1778660083.516743,2036,0,ɔ
1778660083.518006,2232,0,ɔ
1778660083.5206342,2174,0,ɔ
1778660083.521856,2045,0,ɔ
1778660083.524556,1951,0,ɔ
1778660083.525949,2018,0,ɔ
1778660083.531892,1990,0,ɔ
1778660083.533366,1880,0,ɔ
1778660083.5350962,1948,0,ɔ
1778660083.5353758,2172,0,ɔ
1778660083.538378,2285,0,ɔ
1778660083.5390358,2074,0,ɔ
1778660083.542358,1963,0,ɔ
1778660083.5450659,1985,0,ɔ
1778660083.545513,2076,0,ɔ
1778660083.5473258,1904,0,ɔ
1778660083.548508,1898,0,ɔ
1778660083.549849,2090,0,ɔ
1778660083.5567439,2314,0,ɔ
1778660083.5580668,2162,0,ɔ
1778660083.5594208,1993,0,ɔ
1778660083.560778,1859,0,ɔ
1778660083.5611641,2045,0,ɔ
1778660083.562977,1982,0,ɔ
1778660083.567425,1932,0,ɔ
1778660083.567876,2006,0,ɔ
1778660083.568235,2251,0,ɔ
1778660083.570225,2220,0,ɔ
1778660083.5715258,2050,0,ɔ
1778660083.574083,1996,0,ɔ
1778660083.5766442,2010,0,ɔ
1778660083.578023,1986,0,ɔ
1778660083.5853848,1923,0,ɔ
1778660083.587574,2042,0,ɔ
1778660083.5896919,2184,0,ɔ
1778660083.591226,2174,0,ɔ
1778660083.5920022,2026,0,ɔ
1778660083.5935118,1902,0,ɔ
1778660083.595972,1970,0,ɔ
1778660083.5963058,2045,0,ɔ
1778660083.596509,1976,0,ɔ
1778660083.598658,1879,0,ɔ
1778660083.59996,2071,0,ɔ
1778660083.602519,2310,0,ɔ
1778660083.607095,2214,0,ɔ
1778660083.60752,2034,0,ɔ
1778660083.6082618,1954,0,ɔ
1778660083.609926,2074,0,ɔ
1778660083.6118872,2070,0,ɔ
1778660083.617744,1926,0,ɔ
1778660083.618034,1973,0,ɔ
1778660083.6198149,2160,0,ɔ
1778660083.619933,2344,0,ɔ
1778660083.622551,2004,0,ɔ
1778660083.623797,1858,0,ɔ
1778660083.626403,2038,0,ɔ
1778660083.6276999,2148,0,ɔ
1778660083.63007,2024,0,ɔ
1778660083.6346948,1953,0,ɔ
1778660083.63556,2185,0,ɔ
1778660083.636043,2305,0,ɔ
1778660083.638161,1989,0,ɔ
1778660083.6410291,1948,0,ɔ
1778660083.643841,1920,0,ɔ
1778660083.6441112,1975,0,ɔ
1778660083.648853,1847,0,ɔ
1778660083.648979,1808,0,ɔ
1778660083.6503198,2117,0,ɔ
1778660083.653104,2424,0,ɔ
1778660083.66316,2287,0,ɔ
1778660083.66407,2059,0,ɔ
1778660083.664939,2128,0,ɔ
1778660083.665472,2202,0,ɔ
1778660083.669992,1813,0,ɔ
1778660083.6701288,1988,0,ɔ
1778660083.670464,1999,0,ɔ
1778660083.672354,2226,0,ɔ
1778660083.6729019,2124,0,ɔ
1778660083.673002,2009,0,ɔ
1778660083.6820202,1951,0,ɔ
1778660083.682055,2004,0,ɔ
1778660083.682084,2097,0,ɔ
1778660083.68211,1840,0,ɔ
1778660083.682137,2001,0,ɔ
1778660083.6836941,2149,0,ɔ
1778660083.690182,2355,0,ɔ
1778660083.6906629,2090,0,ɔ
1778660083.6915698,1877,0,ɔ
1778660083.692045,1994,0,ɔ
1778660083.696289,2133,0,ɔ
1778660083.69672,2074,0,ɔ
1778660083.699316,2035,0,ɔ
1778660083.702194,2109,0,ɔ
1778660083.7024052,2365,0,ɔ
1778660083.7040582,2108,0,ɔ
1778660083.706615,1924,0,ɔ
1778660083.707907,2022,0,ɔ
1778660083.713519,2144,0,ɔ
1778660083.713991,1966,0,ɔ
1778660083.714429,1982,0,ɔ
1778660083.716028,2006,0,ɔ
1778660083.719061,2146,0,ɔ
1778660083.721643,2154,0,ɔ
1778660083.724003,2054,0,ɔ
1778660083.726481,2005,0,ɔ
1778660083.726592,2043,0,ɔ
1778660083.728019,2036,0,ɔ
1778660083.730504,1912,0,ɔ
1778660083.731801,1974,0,ɔ
1778660083.7343612,2164,0,ɔ
1778660083.735713,2306,0,ɔ
1778660083.741583,2111,0,ɔ
1778660083.742458,2030,0,ɔ
1778660083.74287,2057,0,ɔ
1778660083.7460868,2113,0,ɔ
1778660083.7468631,1970,0,ɔ
1778660083.7495759,1925,0,ɔ
1778660083.74969,2084,0,ɔ
1778660083.7519848,2337,0,ɔ
1778660083.7539499,2111,0,ɔ
1778660083.756513,1974,0,ɔ
1778660083.757806,1957,0,ɔ
1778660083.762008,2058,0,ɔ
1778660083.762757,1956,0,ɔ
1778660083.7646651,1857,0,ɔ
1778660083.766092,2036,0,ɔ
1778660083.768055,2224,0,ɔ
1778660083.7697458,2204,0,ɔ
1778660083.772127,2086,0,ɔ
1778660083.773785,2034,0,ɔ
1778660083.7763531,2014,0,ɔ
1778660083.777689,2005,0,ɔ
1778660083.780113,1813,0,ɔ
1778660083.781466,1966,0,ɔ
1778660083.7881641,2300,0,ɔ
1778660083.7882612,2292,0,ɔ
1778660083.7890291,1971,0,ɔ
1778660083.791729,1952,0,ɔ
1778660083.7924569,1941,0,ɔ
1778660083.795339,2084,0,ɔ
1778660083.797514,1933,0,ɔ
1778660083.797593,1938,0,ɔ
1778660083.8002958,2078,0,ɔ
1778660083.801589,2193,0,ɔ
1778660083.804139,2151,0,ɔ
1778660083.805439,2083,0,ɔ
1778660083.8079932,1981,0,ɔ
1778660083.813667,2082,0,ɔ
1778660083.814098,2017,0,ɔ
1778660083.814525,1931,0,ɔ
1778660083.8175738,1943,0,ɔ
1778660083.818008,2226,0,ɔ
1778660083.820854,2269,0,ɔ
1778660083.8229902,2045,0,ɔ
1778660083.824903,1960,0,ɔ
1778660083.826206,1991,0,ɔ
1778660083.827497,2019,0,ɔ
1778660083.8300622,1970,0,ɔ
1778660083.8313868,2034,0,ɔ
1778660083.833944,2178,0,ɔ
1778660083.838752,2313,0,ɔ
1778660083.8391411,2099,0,ɔ
1778660083.8409548,2010,0,ɔ
1778660083.842891,1950,0,ɔ
1778660083.844505,2049,0,ɔ
1778660083.846154,1935,0,ɔ
1778660083.8483121,1879,0,ɔ
1778660083.850389,2082,0,ɔ
1778660083.851698,2322,0,ɔ
1778660083.854253,2092,0,ɔ
1778660083.858757,2022,0,ɔ
1778660083.858851,1995,0,ɔ
1778660083.860856,2080,0,ɔ
1778660083.862616,2013,0,ɔ
1778660083.8644228,1939,0,ɔ
1778660083.8676322,2159,0,ɔ
1778660083.8677828,2211,0,ɔ
1778660083.869617,2227,0,ɔ
1778660083.872166,2058,0,ɔ
1778660083.8734632,1969,0,ɔ
1778660083.8760269,2019,0,ɔ
1778660083.87754,2013,0,ɔ
1778660083.8802729,1912,0,ɔ
1778660083.883849,1986,0,ɔ
1778660083.8842938,2175,0,ɔ
1778660083.886235,2274,0,ɔ
1778660083.887964,2051,0,ɔ
1778660083.89117,2007,0,ɔ
1778660083.8932328,1975,0,ɔ
1778660083.895137,2052,0,ɔ
1778660083.8964832,1985,0,ɔ
1778660083.8977761,1956,0,ɔ
1778660083.9003232,2103,0,ɔ
1778660083.901609,2264,0,ɔ
1778660083.907331,2155,0,ɔ
1778660083.907999,2030,0,ɔ
1778660083.908703,1951,0,ɔ
1778660083.910194,2052,0,ɔ
1778660083.911642,2044,0,ɔ
1778660083.9138079,1888,0,ɔ
1778660083.917023,1970,0,ɔ
1778660083.919033,2163,0,ɔ
1778660083.920326,2147,0,ɔ
1778660083.9216158,2080,0,ɔ
1778660083.924172,2020,0,ɔ
1778660083.9255412,1997,0,ɔ
1778660083.92814,2026,0,ɔ
1778660083.932661,1896,0,ɔ
1778660083.932756,1972,0,ɔ
1778660083.9351301,2151,0,ɔ
1778660083.936608,2301,0,ɔ
1778660083.938777,2089,0,ɔ
1778660083.940022,1967,0,ɔ
1778660083.941965,1927,0,ɔ
1778660083.945934,2052,0,ɔ
1778660083.946021,1971,0,ɔ
1778660083.947357,1946,0,ɔ
1778660083.950021,2107,0,ɔ
1778660083.9537401,2287,0,ɔ
1778660083.9538088,2131,0,ɔ
1778660083.95571,1954,0,ɔ
1778660083.9585001,1969,0,ɔ
1778660083.960476,2077,0,ɔ
1778660083.9624162,1969,0,ɔ
1778660083.964354,1825,0,ɔ
1778660083.9656498,2008,0,ɔ
1778660083.9682019,2194,0,ɔ
1778660083.969495,2225,0,ɔ
1778660083.97204,2024,0,ɔ
1778660083.97349,1976,0,ɔ
1778660083.976671,2014,0,ɔ
1778660083.9782069,2048,0,ɔ
1778660083.981129,1917,0,ɔ
1778660083.98294,1947,0,ɔ
1778660083.986149,2097,0,ɔ
1778660083.986254,2275,0,ɔ
1778660083.9878058,2076,0,ɔ
1778660083.99036,1966,0,ɔ
1778660083.9916449,1962,0,ɔ
1778660083.994208,2031,0,ɔ
1778660083.995502,1963,0,ɔ
1778660084.001029,1947,0,ɔ
1778660084.0017018,2082,0,ɔ
1778660084.002132,2296,0,ɔ
1778660084.0035908,2074,0,ɔ
1778660084.0067441,1934,0,ɔ
1778660084.0082638,1961,0,ɔ
1778660084.010266,2127,0,ɔ
1778660084.012099,2010,0,ɔ
1778660084.013448,1897,0,ɔ
1778660084.01601,2057,0,ɔ
1778660084.0185611,2248,0,ɔ
1778660084.019846,2196,0,ɔ
1778660084.024728,2055,0,ɔ
1778660084.025769,2001,0,ɔ
1778660084.026187,2010,0,ɔ
1778660084.028945,2012,0,ɔ
1778660084.030646,1874,0,ɔ
1778660084.033589,1908,0,ɔ
1778660084.033761,2112,0,ɔ
1778660084.035687,2256,0,ɔ
1778660084.038241,2074,0,ɔ
1778660084.039531,1988,0,ɔ
1778660084.042279,1987,0,ɔ
1778660084.0442429,2072,0,ɔ
1778660084.049251,1921,0,ɔ
1778660084.049643,1906,0,ɔ
1778660084.05107,2081,0,ɔ
1778660084.052911,2264,0,ɔ
1778660084.0557408,2135,0,ɔ
1778660084.057743,1971,0,ɔ
1778660084.0579681,1878,0,ɔ
1778660084.059509,1970,0,ɔ
1778660084.062058,1935,0,ɔ
1778660084.063343,1951,0,ɔ
1778660084.065894,1998,0,ɔ
1778660084.067412,2137,0,ɔ
1778660084.074371,2052,0,ɔ
1778660084.074547,1643,0,ɔ
1778660084.0759199,1957,0,ɔ
1778660084.0763662,2148,0,ɔ
1778660084.079333,1636,0,ɔ
1778660084.079372,1603,0,ɔ
1778660084.081462,2096,0,ɔ
1778660084.0840352,2651,0,ɔ
1778660084.085386,2523,0,ɔ
1778660084.087936,2161,0,ɔ
1778660084.08929,1969,0,ɔ
1778660084.091848,2034,0,ɔ
1778660084.0956612,2246,0,ɔ
1778660084.096054,2131,0,ɔ
1778660084.0976121,1941,0,ɔ
1778660084.1022148,1941,0,ɔ
1778660084.102329,2035,0,ɔ
1778660084.10416,1869,0,ɔ
1778660084.106072,1879,0,ɔ
1778660084.107363,1970,0,ɔ
1778660084.1099079,2311,0,ɔ
1778660084.111287,2219,0,ɔ
1778660084.1138382,1939,0,ɔ
1778660084.117959,1889,0,ɔ
1778660084.118314,2262,0,ɔ
1778660084.1202161,2316,0,ɔ
1778660084.121859,2090,0,ɔ
1778660084.12335,2006,0,ɔ
1778660084.126675,1996,0,ɔ
1778660084.1284559,1991,0,ɔ
1778660084.1297421,1801,0,ɔ
1778660084.132287,1842,0,ɔ
1778660084.133586,2104,0,ɔ
1778660084.1361332,2258,0,ɔ
1778660084.13742,2080,0,ɔ
1778660084.141541,1991,0,ɔ
1778660084.141907,1907,0,ɔ
1778660084.143625,1968,0,ɔ
1778660084.146584,1819,0,ɔ
1778660084.148088,1821,0,ɔ
1778660084.1499789,2048,0,ɔ
1778660084.1517272,2297,0,ɔ
1778660084.154398,2075,0,ɔ
1778660084.1556869,1962,0,ɔ
1778660084.158232,1944,0,ɔ
1778660084.1595159,2066,0,ɔ
1778660084.164076,1999,0,ɔ
1778660084.165188,1868,0,ɔ
1778660084.1665401,1970,0,ɔ
1778660084.167922,2197,0,ɔ
1778660084.17001,2158,0,ɔ
1778660084.173106,2002,0,ɔ
1778660084.175043,1914,0,ɔ
1778660084.1763358,1945,0,ɔ
1778660084.17762,1953,0,ɔ
1778660084.180183,1855,0,ɔ
1778660084.1814668,1856,0,ɔ
1778660084.186615,2092,0,ɔ
1778660084.1873229,2231,0,ɔ
1778660084.187416,2080,0,ɔ
1778660084.1893718,1983,0,ɔ
1778660084.1924741,1924,0,ɔ
1778660084.194005,2068,0,ɔ
1778660084.196043,1906,0,ɔ
1778660084.197866,1838,0,ɔ
1778660084.200444,2003,0,ɔ
1778660084.20173,2285,0,ɔ
1778660084.204284,2192,0,ɔ
1778660084.2055721,1967,0,ɔ
1778660084.210557,1935,0,ɔ
1778660084.210909,2021,0,ɔ
1778660084.213333,1941,0,ɔ
1778660084.2134242,1886,0,ɔ
1778660084.216523,1991,0,ɔ
1778660084.218422,2234,0,ɔ
1778660084.2203462,2231,0,ɔ
1778660084.221637,2071,0,ɔ
1778660084.224184,1930,0,ɔ
1778660084.2254689,1987,0,ɔ
1778660084.228014,2049,0,ɔ
1778660084.232073,1895,0,ɔ
1778660084.232437,1880,0,ɔ
1778660084.2343931,2065,0,ɔ
1778660084.236008,2265,0,ɔ
1778660084.237352,2120,0,ɔ
1778660084.2405639,2103,0,ɔ
1778660084.24242,1952,0,ɔ
1778660084.243708,2103,0,ɔ
1778660084.246261,1892,0,ɔ
1778660084.2475479,1995,0,ɔ
1778660084.250092,2083,0,ɔ
1778660084.254498,2268,0,ɔ
1778660084.2552168,2114,0,ɔ
1778660084.255584,1926,0,ɔ
1778660084.2587001,1861,0,ɔ
1778660084.2614698,2008,0,ɔ
1778660084.263289,1927,0,ɔ
1778660084.2633548,1941,0,ɔ
1778660084.266177,2023,0,ɔ
1778660084.267466,2178,0,ɔ
1778660084.2700071,2175,0,ɔ
1778660084.27124,2044,0,ɔ
1778660084.2774432,1928,0,ɔ
1778660084.277538,2010,0,ɔ
1778660084.2779388,2187,0,ɔ
1778660084.279385,2028,0,ɔ
1778660084.282031,1848,0,ɔ
1778660084.28371,2162,0,ɔ
1778660084.285526,2343,0,ɔ
1778660084.288177,2119,0,ɔ
1778660084.289463,1976,0,ɔ
1778660084.292025,1813,0,ɔ
1778660084.293313,1961,0,ɔ
1778660084.29922,1938,0,ɔ
1778660084.2995899,1868,0,ɔ
1778660084.2996821,2018,0,ɔ
1778660084.3032682,2259,0,ɔ
1778660084.303354,2124,0,ɔ
1778660084.305614,2045,0,ɔ
1778660084.307471,2045,0,ɔ
1778660084.310109,2046,0,ɔ
1778660084.311394,1957,0,ɔ
1778660084.313942,1907,0,ɔ
1778660084.315231,2081,0,ɔ
1778660084.317769,2231,0,ɔ
1778660084.321982,2226,0,ɔ
1778660084.3223848,2207,0,ɔ
1778660084.3238761,2078,0,ɔ
1778660084.325186,1866,0,ɔ
1778660084.3283908,2049,0,ɔ
1778660084.332045,1941,0,ɔ
1778660084.332073,1896,0,ɔ
1778660084.3333619,2114,0,ɔ
1778660084.335923,2125,0,ɔ
1778660084.337213,2029,0,ɔ
1778660084.3397708,2018,0,ɔ
1778660084.344222,1886,0,ɔ
1778660084.345238,1967,0,ɔ
1778660084.3463721,2088,0,ɔ
1778660084.348448,2031,0,ɔ
1778660084.3500001,2035,0,ɔ
1778660084.3532832,2205,0,ɔ
1778660084.353416,2111,0,ɔ
1778660084.3561652,2144,0,ɔ
1778660084.357481,2087,0,ɔ
1778660084.36004,2124,0,ɔ
1778660084.361481,2051,0,ɔ
1778660084.36424,1780,0,ɔ
1778660084.368057,2022,0,ɔ
1778660084.368481,2242,0,ɔ
1778660084.370602,2146,0,ɔ
1778660084.3725069,1905,0,ɔ
1778660084.375214,1841,0,ɔ
1778660084.375314,1974,0,ɔ
1778660084.377206,2071,0,ɔ
1778660084.379831,1863,0,ɔ
1778660084.3811562,2010,0,ɔ
1778660084.383727,2184,0,ɔ
1778660084.386334,2200,0,ɔ
1778660084.390831,2107,0,ɔ
1778660084.3909,1977,0,ɔ
1778660084.3929942,1993,0,ɔ
1778660084.3931231,1984,0,ɔ
1778660084.3972769,1800,0,ɔ
1778660084.3973691,1833,0,ɔ
1778660084.400901,2048,0,ɔ
1778660084.402198,2385,0,ɔ
1778660084.403509,2203,0,ɔ
1778660084.406074,2106,0,ɔ
1778660084.407365,2175,0,ɔ
1778660084.4129548,1950,0,ɔ
1778660084.413286,1799,0,ɔ
1778660084.413352,1858,0,ɔ
1778660084.41631,2043,0,ɔ
1778660084.417889,2291,0,ɔ
1778660084.420883,2064,0,ɔ
1778660084.4228082,1922,0,ɔ
1778660084.424098,1926,0,ɔ
1778660084.4253938,2054,0,ɔ
1778660084.4279392,1939,0,ɔ
1778660084.4292228,1937,0,ɔ
1778660084.434127,2126,0,ɔ
1778660084.4342232,2041,0,ɔ
1778660084.436424,2342,0,ɔ
1778660084.437877,1994,0,ɔ
1778660084.439541,1874,0,ɔ
1778660084.442854,1960,0,ɔ
1778660084.444712,1861,0,ɔ
1778660084.4460092,1642,0,ɔ
1778660084.4474828,2057,0,ɔ
1778660084.450117,2075,0,ɔ
1778660084.4514072,2310,0,ɔ
1778660084.453804,2096,0,ɔ
1778660084.458828,2071,0,ɔ
1778660084.459435,2053,0,ɔ
1778660084.460896,1847,0,ɔ
1778660084.463243,1896,0,ɔ
1778660084.4633448,1950,0,ɔ
1778660084.4655669,1976,0,ɔ
1778660084.467422,2149,0,ɔ
1778660084.4700851,2067,0,ɔ
1778660084.471375,1848,0,ɔ
1778660084.473917,2075,0,ɔ
1778660084.475199,2139,0,ɔ
1778660084.480588,2066,0,ɔ
1778660084.4812229,1850,0,ɔ
1778660084.481303,1790,0,ɔ
1778660084.484284,2103,0,ɔ
1778660084.4857721,2315,0,ɔ
1778660084.487212,2109,0,ɔ
1778660084.490873,2081,0,ɔ
1778660084.4921658,1881,0,ɔ
1778660084.493451,1877,0,ɔ
1778660084.495997,1919,0,ɔ
1778660084.4972959,2144,0,ɔ
1778660084.503,2110,0,ɔ
1778660084.503659,2151,0,ɔ
1778660084.503716,1982,0,ɔ
1778660084.505287,1920,0,ɔ
1778660084.5093749,1864,0,ɔ
1778660084.5114172,1883,0,ɔ
1778660084.5115142,2025,0,ɔ
1778660084.514177,1921,0,ɔ
1778660084.5154638,1873,0,ɔ
1778660084.518008,2112,0,ɔ
1778660084.5192902,2174,0,ɔ
1778660084.52525,1953,0,ɔ
1778660084.525593,1862,0,ɔ
1778660084.5259452,1994,0,ɔ
1778660084.528512,1901,0,ɔ
1778660084.529706,2003,0,ɔ
1778660084.533268,1860,0,ɔ
1778660084.533462,2088,0,ɔ
1778660084.53522,2283,0,ɔ
1778660084.537769,2109,0,ɔ
1778660084.539052,1752,0,ɔ
1778660084.541594,1857,0,ɔ
1778660084.5472262,2148,0,ɔ
1778660084.547297,2096,0,ɔ
1778660084.547696,1936,0,ɔ
1778660084.5505018,2087,0,ɔ
1778660084.553196,2288,0,ɔ
1778660084.5533,2026,0,ɔ
1778660084.555113,1931,0,ɔ
1778660084.5577972,2015,0,ɔ
1778660084.55908,2023,0,ɔ
1778660084.561526,2004,0,ɔ
1778660084.564066,1844,0,ɔ
1778660084.569243,1798,0,ɔ
1778660084.569958,2074,0,ɔ
1778660084.571149,2124,0,ɔ
1778660084.571274,2125,0,ɔ
1778660084.574104,1955,0,ɔ
1778660084.57552,2212,0,ɔ
1778660084.577423,1957,0,ɔ
1778660084.57922,1622,0,ɔ
1778660084.581696,2073,0,ɔ
1778660084.584254,2206,0,ɔ
1778660084.585537,2233,0,ɔ
1778660084.59059,2046,0,ɔ
1778660084.590976,2089,0,ɔ
1778660084.592769,1901,0,ɔ
1778660084.5942998,1941,0,ɔ
1778660084.597122,1785,0,ɔ
1778660084.59725,1844,0,ɔ
1778660084.5991979,2038,0,ɔ
1778660084.602187,2198,0,ɔ
1778660084.60348,2281,0,ɔ
1778660084.6060271,1932,0,ɔ
1778660084.607129,1906,0,ɔ
1778660084.609256,2030,0,ɔ
1778660084.612905,2036,0,ɔ
1778660084.6132421,1983,0,ɔ
1778660084.615133,1710,0,ɔ
1778660084.618172,2050,0,ɔ
1778660084.621217,2158,0,ɔ
1778660084.621365,1881,0,ɔ
1778660084.623946,1913,0,ɔ
1778660084.625232,2097,0,ɔ
1778660084.627788,1974,0,ɔ
1778660084.6290739,1874,0,ɔ
1778660084.634434,1875,0,ɔ
1778660084.6351302,2059,0,ɔ
1778660084.635763,2438,0,ɔ
1778660084.6383018,2138,0,ɔ
1778660084.639648,1985,0,ɔ
1778660084.641145,2009,0,ɔ
1778660084.643111,2083,0,ɔ
1778660084.6457448,1647,0,ɔ
1778660084.6470442,2070,0,ɔ
1778660084.650872,2321,0,ɔ
1778660084.6521971,2202,0,ɔ
1778660084.656984,2012,0,ɔ
1778660084.6570728,1984,0,ɔ
1778660084.6580539,1890,0,ɔ
1778660084.660356,1978,0,ɔ
1778660084.6616802,1997,0,ɔ
1778660084.6634629,1836,0,ɔ
1778660084.66551,1970,0,ɔ
1778660084.6680691,2261,0,ɔ
1778660084.669357,2255,0,ɔ
1778660084.6717818,2119,0,ɔ
1778660084.67302,1923,0,ɔ
1778660084.6788638,1857,0,ɔ
1778660084.6798358,2250,0,ɔ
1778660084.680804,1827,0,ɔ
1778660084.6822028,1908,0,ɔ
1778660084.685376,2189,0,ɔ
1778660084.687335,2174,0,ɔ
1778660084.6876469,2030,0,ɔ
1778660084.6892931,1975,0,ɔ
1778660084.691838,1917,0,ɔ
1778660084.693135,1940,0,ɔ
1778660084.695682,1987,0,ɔ
1778660084.700823,1890,0,ɔ
1778660084.701252,2037,0,ɔ
1778660084.701878,2376,0,ɔ
1778660084.703237,2154,0,ɔ
1778660084.707327,1919,0,ɔ
1778660084.7074509,2068,0,ɔ
1778660084.709381,2011,0,ɔ
1778660084.7120059,2068,0,ɔ
1778660084.7133498,1857,0,ɔ
1778660084.715965,2089,0,ɔ
1778660084.717319,2189,0,ɔ
1778660084.722923,2183,0,ɔ
1778660084.7236302,2092,0,ɔ
1778660084.723719,1964,0,ɔ
1778660084.725472,2053,0,ɔ
1778660084.729839,1952,0,ɔ
1778660084.73182,1925,0,ɔ
1778660084.7320461,1868,0,ɔ
1778660084.7337978,2161,0,ɔ
1778660084.7350972,2327,0,ɔ
1778660084.737642,1912,0,ɔ
1778660084.739073,1995,0,ɔ
1778660084.74151,1951,0,ɔ
1778660084.745864,1978,0,ɔ
1778660084.7463522,1848,0,ɔ
1778660084.748127,1994,0,ɔ
1778660084.7498481,2078,0,ɔ
1778660084.752774,2226,0,ɔ
1778660084.754785,2365,0,ɔ
1778660084.7565708,1886,0,ɔ
1778660084.757879,1885,0,ɔ
1778660084.7591748,1949,0,ɔ
1778660084.761604,1974,0,ɔ
1778660084.76416,1905,0,ɔ
1778660084.7654479,2039,0,ɔ
1778660084.769276,2141,0,ɔ
1778660084.7706208,2079,0,ɔ
1778660084.772104,2063,0,ɔ
1778660084.77483,2031,0,ɔ
1778660084.776672,2117,0,ɔ
1778660084.778841,2154,0,ɔ
1778660084.7805371,1849,0,ɔ
1778660084.781874,2095,0,ɔ
1778660084.783076,2107,0,ɔ
1778660084.7853818,2247,0,ɔ
1778660084.787906,2031,0,ɔ
1778660084.789193,2060,0,ɔ
1778660084.79366,2039,0,ɔ
1778660084.794424,2045,0,ɔ
1778660084.7964978,1977,0,ɔ
1778660084.7985659,1793,0,ɔ
1778660084.8014,2049,0,ɔ
1778660084.801601,2385,0,ɔ
1778660084.8054569,2188,0,ɔ
1778660084.805485,2029,0,ɔ
1778660084.8080409,1985,0,ɔ
1778660084.809331,2118,0,ɔ
1778660084.811828,1819,0,ɔ
1778660084.814168,1788,0,ɔ
1778660084.8153741,2353,0,ɔ
1778660084.8197188,2191,0,ɔ
1778660084.821389,2059,0,ɔ
1778660084.821574,1923,0,ɔ
1778660084.823942,1879,0,ɔ
1778660084.826387,2102,0,ɔ
1778660084.828341,2014,0,ɔ
1778660084.830328,1751,0,ɔ
1778660084.8316329,2094,0,ɔ
1778660084.832923,2234,0,ɔ
1778660084.835277,2237,0,ɔ
1778660084.837836,2057,0,ɔ
1778660084.839238,2080,0,ɔ
1778660084.8438442,2156,0,ɔ
1778660084.845228,2093,0,ɔ
1778660084.8453681,1764,0,ɔ
1778660084.8477771,1937,0,ɔ
1778660084.852104,2104,0,ɔ
1778660084.852243,2353,0,ɔ
1778660084.854205,2107,0,ɔ
1778660084.8555121,2124,0,ɔ
1778660084.858069,2016,0,ɔ
1778660084.85936,1892,0,ɔ
1778660084.861902,1873,0,ɔ
1778660084.863189,1794,0,ɔ
1778660084.8677099,2048,0,ɔ
1778660084.868547,2243,0,ɔ
1778660084.8731892,2234,0,ɔ
1778660084.8739278,2137,0,ɔ
1778660084.874002,2070,0,ɔ
1778660084.875628,1987,0,ɔ
1778660084.8777978,2144,0,ɔ
1778660084.879657,2003,0,ɔ
1778660084.880953,1952,0,ɔ
1778660084.8835,2058,0,ɔ
1778660084.886042,2218,0,ɔ
1778660084.887327,1999,0,ɔ
1778660084.891957,1854,0,ɔ
1778660084.89202,1837,0,ɔ
1778660084.894363,2057,0,ɔ
1778660084.896377,2041,0,ɔ
1778660084.898933,1889,0,ɔ
1778660084.89902,2256,0,ɔ
1778660084.902861,2142,0,ɔ
1778660084.9041548,2164,0,ɔ
1778660084.90544,1920,0,ɔ
1778660084.908001,1995,0,ɔ
1778660084.909291,1906,0,ɔ
1778660084.915892,2080,0,ɔ
1778660084.917239,2002,0,ɔ
1778660084.917315,2021,0,ɔ
1778660084.917381,2122,0,ɔ
1778660084.920535,2150,0,ɔ
1778660084.922039,2195,0,ɔ
1778660084.9240499,1988,0,ɔ
1778660084.925947,2200,0,ɔ
1778660084.927233,1892,0,ɔ
1778660084.92978,1611,0,ɔ
1778660084.931067,1970,0,ɔ
1778660084.933609,2114,0,ɔ
1778660084.937325,2185,0,ɔ
1778660084.937738,2076,0,ɔ
1778660084.940019,1926,0,ɔ
1778660084.94167,2025,0,ɔ
1778660084.943101,2096,0,ɔ
1778660084.946541,1886,0,ɔ
1778660084.948528,2005,0,ɔ
1778660084.9498188,2172,0,ɔ
1778660084.951105,2283,0,ɔ
1778660084.953658,2314,0,ɔ
1778660084.954946,2095,0,ɔ
1778660084.9615371,1931,0,ɔ
1778660084.961914,2012,0,ɔ
1778660084.9632819,2039,0,ɔ
1778660084.963474,1768,0,ɔ
1778660084.966594,2077,0,ɔ
1778660084.968082,2303,0,ɔ
1778660084.970073,2211,0,ɔ
1778660084.9718962,2013,0,ɔ
1778660084.9731982,2017,0,ɔ
1778660084.975749,1819,0,ɔ
1778660084.977034,1932,0,ɔ
1778660084.9795651,1973,0,ɔ
1778660084.984142,1918,0,ɔ
1778660084.9842088,2151,0,ɔ
1778660084.986013,2264,0,ɔ
1778660084.987675,2019,0,ɔ
1778660084.989467,2030,0,ɔ
1778660084.992747,2028,0,ɔ
1778660084.993056,2128,0,ɔ
1778660084.995594,2008,0,ɔ
1778660084.996928,1907,0,ɔ
1778660084.9995131,2143,0,ɔ
1778660085.000923,2309,0,ɔ
1778660085.003573,2095,0,ɔ
1778660085.009384,1987,0,ɔ
1778660085.010603,1948,0,ɔ
1778660085.011957,2084,0,ɔ
1778660085.013685,1974,0,ɔ
1778660085.014264,1897,0,ɔ
1778660085.017638,1956,0,ɔ
1778660085.0198731,2230,0,ɔ
1778660085.020493,2157,0,ɔ
1778660085.0223758,2011,0,ɔ
1778660085.023885,2013,0,ɔ
1778660085.025304,2282,0,ɔ
1778660085.030594,2138,0,ɔ
1778660085.031838,1902,0,ɔ
1778660085.033531,1930,0,ɔ
1778660085.033726,2139,0,ɔ
1778660085.035465,2287,0,ɔ
1778660085.040708,2108,0,ɔ
1778660085.0409741,1906,0,ɔ
1778660085.041197,1955,0,ɔ
1778660085.044081,2008,0,ɔ
1778660085.0454578,1936,0,ɔ
1778660085.046898,1941,0,ɔ
1778660085.049608,2108,0,ɔ
1778660085.0510669,2304,0,ɔ
1778660085.057899,2169,0,ɔ
1778660085.0599859,2019,0,ɔ
1778660085.060269,1972,0,ɔ
1778660085.060478,2083,0,ɔ
1778660085.062729,2001,0,ɔ
1778660085.066132,1887,0,ɔ
1778660085.0705762,2006,0,ɔ
1778660085.070729,2222,0,ɔ
1778660085.0709271,2303,0,ɔ
1778660085.0710201,2118,0,ɔ
1778660085.0737128,1983,0,ɔ
1778660085.0788832,1997,0,ɔ
1778660085.080399,2022,0,ɔ
1778660085.081664,1930,0,ɔ
1778660085.081892,2003,0,ɔ
1778660085.084524,2202,0,ɔ
1778660085.0893161,2317,0,ɔ
1778660085.089587,2094,0,ɔ
1778660085.08994,2016,0,ɔ
1778660085.092011,1985,0,ɔ
1778660085.093218,2098,0,ɔ
1778660085.0958872,1857,0,ɔ
1778660085.097208,1959,0,ɔ
1778660085.099894,2189,0,ɔ
1778660085.101232,2350,0,ɔ
1778660085.1063411,2161,0,ɔ
1778660085.109935,2051,0,ɔ
1778660085.110089,2035,0,ɔ
1778660085.110924,2098,0,ɔ
1778660085.1124039,2017,0,ɔ
1778660085.115825,1948,0,ɔ
1778660085.1162891,2088,0,ɔ
1778660085.1183228,2324,0,ɔ
1778660085.1196969,2150,0,ɔ
1778660085.1210408,2034,0,ɔ
1778660085.127315,2038,0,ɔ
1778660085.127819,2090,0,ɔ
1778660085.129066,2096,0,ɔ
1778660085.12926,1917,0,ɔ
1778660085.13132,1990,0,ɔ
1778660085.1334121,2161,0,ɔ
1778660085.134977,2379,0,ɔ
1778660085.1373792,2115,0,ɔ
1778660085.1395688,1939,0,ɔ
1778660085.140935,1904,0,ɔ
1778660085.143717,2094,0,ɔ
1778660085.145074,2039,0,ɔ
1778660085.147916,1930,0,ɔ
1778660085.1493802,2037,0,ɔ
1778660085.153672,2254,0,ɔ
1778660085.1542761,2134,0,ɔ
1778660085.156749,2117,0,ɔ
1778660085.156908,1970,0,ɔ
1778660085.162095,2127,0,ɔ
1778660085.162217,2082,0,ɔ
1778660085.1648178,1910,0,ɔ
1778660085.164903,2015,0,ɔ
1778660085.168254,2300,0,ɔ
1778660085.169636,2300,0,ɔ
1778660085.17109,2091,0,ɔ
1778660085.176598,1914,0,ɔ
1778660085.1781352,1988,0,ɔ
1778660085.179761,2020,0,ɔ
1778660085.180885,1855,0,ɔ
1778660085.181779,1962,0,ɔ
1778660085.184244,2138,0,ɔ
1778660085.186893,2264,0,ɔ
1778660085.187125,2048,0,ɔ
1778660085.189316,1981,0,ɔ
1778660085.191248,1972,0,ɔ
1778660085.193918,2060,0,ɔ
1778660085.1952798,1981,0,ɔ
1778660085.1978061,1896,0,ɔ
1778660085.2050061,2124,0,ɔ
1778660085.205143,2260,0,ɔ
1778660085.205638,2193,0,ɔ
1778660085.2069519,2065,0,ɔ
1778660085.207341,1997,0,ɔ
1778660085.209595,2053,0,ɔ
1778660085.2126698,2072,0,ɔ
1778660085.215138,1871,0,ɔ
1778660085.215348,1969,0,ɔ
1778660085.217184,2192,0,ɔ
1778660085.219858,2262,0,ɔ
1778660085.2211862,2125,0,ɔ
1778660085.227993,2037,0,ɔ
1778660085.228725,2007,0,ɔ
1778660085.230119,2019,0,ɔ
1778660085.2318258,1903,0,ɔ
1778660085.233938,1939,0,ɔ
1778660085.2344441,2153,0,ɔ
1778660085.236386,2297,0,ɔ
1778660085.240878,2071,0,ɔ
1778660085.2412832,1982,0,ɔ
1778660085.241444,1957,0,ɔ
1778660085.243744,2022,0,ɔ
1778660085.245147,1937,0,ɔ
1778660085.2475798,2009,0,ɔ
1778660085.248986,2137,0,ɔ
1778660085.251679,2302,0,ɔ
1778660085.253224,2092,0,ɔ
1778660085.261329,2004,0,ɔ
1778660085.2638888,1866,0,ɔ
1778660085.264498,2091,0,ɔ
1778660085.2658482,2071,0,ɔ
1778660085.266168,1977,0,ɔ
1778660085.2672079,2000,0,ɔ
1778660085.268822,2256,0,ɔ
1778660085.2713358,2268,0,ɔ
1778660085.271591,2085,0,ɔ
1778660085.2740638,1929,0,ɔ
1778660085.2754939,2021,0,ɔ
1778660085.276903,2071,0,ɔ
1778660085.2841458,1894,0,ɔ
1778660085.2847092,1921,0,ɔ
1778660085.285253,2062,0,ɔ
1778660085.285784,2276,0,ɔ
1778660085.289629,2109,0,ɔ
1778660085.290622,1938,0,ɔ
1778660085.291459,1969,0,ɔ
1778660085.295925,2039,0,ɔ
1778660085.296235,1909,0,ɔ
1778660085.2985,1904,0,ɔ
1778660085.299871,2116,0,ɔ
1778660085.301218,2334,0,ɔ
1778660085.303822,2143,0,ɔ
1778660085.3051689,2020,0,ɔ
1778660085.307811,1974,0,ɔ
1778660085.3135412,2124,0,ɔ
1778660085.314927,2044,0,ɔ
1778660085.315823,1824,0,ɔ
1778660085.31729,1948,0,ɔ
1778660085.3202329,2133,0,ɔ
1778660085.321242,2277,0,ɔ
1778660085.3218172,2161,0,ɔ
1778660085.326704,2020,0,ɔ
1778660085.32691,2040,0,ɔ
1778660085.32714,2049,0,ɔ
1778660085.32948,1927,0,ɔ
1778660085.330867,2087,0,ɔ
1778660085.3337479,2196,0,ɔ
1778660085.339374,2289,0,ɔ
1778660085.341759,2161,0,ɔ
1778660085.3442292,2062,0,ɔ
1778660085.3455942,2008,0,ɔ
1778660085.348573,2122,0,ɔ
1778660085.3516228,1805,0,ɔ
1778660085.3521001,1809,0,ɔ
1778660085.3541188,2093,0,ɔ
1778660085.3548212,2271,0,ɔ
1778660085.354969,2191,0,ɔ
1778660085.355084,1929,0,ɔ
1778660085.358128,1920,0,ɔ
1778660085.3595479,2159,0,ɔ
1778660085.3607738,2056,0,ɔ
1778660085.363443,1923,0,ɔ
1778660085.3648121,1992,0,ɔ
1778660085.3719912,2314,0,ɔ
1778660085.3765912,2233,0,ɔ
1778660085.3774369,2007,0,ɔ
1778660085.3782861,1885,0,ɔ
1778660085.379541,2080,0,ɔ
1778660085.38027,1972,0,ɔ
1778660085.3820028,1777,0,ɔ
1778660085.385209,1950,0,ɔ
1778660085.385788,2161,0,ɔ
1778660085.388447,2375,0,ɔ
1778660085.388611,2016,0,ɔ
1778660085.390026,1918,0,ɔ
1778660085.391346,2044,0,ɔ
1778660085.399091,2035,0,ɔ
1778660085.401535,1941,0,ɔ
1778660085.401876,1981,0,ɔ
1778660085.404043,2164,0,ɔ
1778660085.405088,2357,0,ɔ
1778660085.406036,2048,0,ɔ
1778660085.406178,2037,0,ɔ
1778660085.4085178,1926,0,ɔ
1778660085.411237,1952,0,ɔ
1778660085.4114392,1933,0,ɔ
1778660085.413732,1895,0,ɔ
1778660085.4149382,1977,0,ɔ
1778660085.417514,2272,0,ɔ
1778660085.418816,2186,0,ɔ
1778660085.4213948,2071,0,ɔ
1778660085.422699,2013,0,ɔ
1778660085.429815,2072,0,ɔ
1778660085.429976,2067,0,ɔ
1778660085.430986,1898,0,ɔ
1778660085.4315038,1926,0,ɔ
1778660085.433208,2178,0,ɔ
1778660085.4353971,2282,0,ɔ
1778660085.437414,2091,0,ɔ
1778660085.439262,2028,0,ɔ
1778660085.441901,1977,0,ɔ
1778660085.447157,2088,0,ɔ
1778660085.447259,1986,0,ɔ
1778660085.4472919,1957,0,ɔ
1778660085.454131,2207,0,ɔ
1778660085.4546912,2289,0,ɔ
1778660085.4552672,2076,0,ɔ
1778660085.456654,2021,0,ɔ
1778660085.456845,1963,0,ɔ
1778660085.460062,2158,0,ɔ
1778660085.462937,2023,0,ɔ
1778660085.463077,1864,0,ɔ
1778660085.465632,1974,0,ɔ
1778660085.467952,2182,0,ɔ
1778660085.4694662,2217,0,ɔ
1778660085.470828,2057,0,ɔ
1778660085.473345,2010,0,ɔ
1778660085.4759831,2025,0,ɔ
1778660085.477397,2084,0,ɔ
1778660085.483333,1847,0,ɔ
1778660085.485165,1977,0,ɔ
1778660085.489001,2222,0,ɔ
1778660085.489621,2252,0,ɔ
1778660085.4897652,2095,0,ɔ
1778660085.491623,2000,0,ɔ
1778660085.493259,1949,0,ɔ
1778660085.493418,2053,0,ɔ
1778660085.4961128,1975,0,ɔ
1778660085.498646,1982,0,ɔ
1778660085.4987571,2121,0,ɔ
1778660085.5013618,2305,0,ɔ
1778660085.502723,2187,0,ɔ
1778660085.507908,2067,0,ɔ
1778660085.5088158,1939,0,ɔ
1778660085.509425,2014,0,ɔ
1778660085.5129468,2063,0,ɔ
1778660085.513528,1941,0,ɔ
1778660085.515677,2054,0,ɔ
1778660085.520565,2219,0,ɔ
1778660085.520808,2248,0,ɔ
1778660085.5211499,2102,0,ɔ
1778660085.523138,1985,0,ɔ
1778660085.52588,2044,0,ɔ
1778660085.5272331,2026,0,ɔ
1778660085.529968,1881,0,ɔ
1778660085.531432,1987,0,ɔ
1778660085.5326562,2174,0,ɔ
1778660085.5393121,2289,0,ɔ
1778660085.539902,2120,0,ɔ
1778660085.5409431,2004,0,ɔ
1778660085.541373,1942,0,ɔ
1778660085.542819,2072,0,ɔ
1778660085.545103,1979,0,ɔ
1778660085.5467541,1898,0,ɔ
1778660085.549021,2131,0,ɔ
1778660085.5515351,2347,0,ɔ
1778660085.5539021,2140,0,ɔ
1778660085.5552099,2068,0,ɔ
1778660085.557784,2010,0,ɔ
1778660085.563841,2092,0,ɔ
1778660085.564376,2016,0,ɔ
1778660085.564916,1898,0,ɔ
1778660085.565418,2036,0,ɔ
1778660085.566911,2259,0,ɔ
1778660085.5699,2257,0,ɔ
1778660085.57142,2055,0,ɔ
1778660085.575284,2004,0,ɔ
1778660085.575638,2008,0,ɔ
1778660085.577556,2032,0,ɔ
1778660085.5788748,1889,0,ɔ
1778660085.581575,1977,0,ɔ
1778660085.5829172,2199,0,ɔ
1778660085.585587,2308,0,ɔ
1778660085.5870872,2041,0,ɔ
1778660085.595566,1973,0,ɔ
1778660085.5978072,2028,0,ɔ
1778660085.6009998,1997,0,ɔ
1778660085.602463,1997,0,ɔ
1778660085.6052139,1886,0,ɔ
1778660085.607948,2050,0,ɔ
1778660085.6081731,2407,0,ɔ
1778660085.6085188,2267,0,ɔ
1778660085.608674,2000,0,ɔ
1778660085.609146,1973,0,ɔ
1778660085.6094332,2048,0,ɔ
1778660085.612546,2017,0,ɔ
1778660085.612658,1934,0,ɔ
1778660085.615328,2041,0,ɔ
1778660085.621324,2215,0,ɔ
1778660085.6218581,2165,0,ɔ
1778660085.624204,2009,0,ɔ
1778660085.624607,1988,0,ɔ
1778660085.626962,2012,0,ɔ
1778660085.62756,2051,0,ɔ
1778660085.629617,1920,0,ɔ
1778660085.6314461,1944,0,ɔ
1778660085.634253,2211,0,ɔ
1778660085.6366038,2241,0,ɔ
1778660085.636909,2049,0,ɔ
1778660085.639652,2026,0,ɔ
1778660085.6410182,1979,0,ɔ
1778660085.643729,2088,0,ɔ
1778660085.6454191,1963,0,ɔ
1778660085.646879,1963,0,ɔ
1778660085.653491,2098,0,ɔ
1778660085.65439,2288,0,ɔ
1778660085.656092,2107,0,ɔ
1778660085.656416,1961,0,ɔ
1778660085.658785,2022,0,ɔ
1778660085.659754,2092,0,ɔ
1778660085.663101,2076,0,ɔ
1778660085.665849,1915,0,ɔ
1778660085.666541,2000,0,ɔ
1778660085.666774,2222,0,ɔ
1778660085.669857,2200,0,ɔ
1778660085.671455,2071,0,ɔ
1778660085.672822,1985,0,ɔ
1778660085.679796,1994,0,ɔ
1778660085.6802502,2001,0,ɔ
1778660085.681757,1930,0,ɔ
1778660085.684216,1945,0,ɔ
1778660085.685017,2139,0,ɔ
1778660085.685666,2292,0,ɔ
1778660085.6880682,2115,0,ɔ
1778660085.690399,2030,0,ɔ
1778660085.6927109,1960,0,ɔ
1778660085.69287,2056,0,ɔ
1778660085.6954272,1953,0,ɔ
1778660085.696756,1932,0,ɔ
1778660085.699313,2128,0,ɔ
1778660085.700608,2306,0,ɔ
1778660085.7063239,2132,0,ɔ
1778660085.706783,2042,0,ɔ
1778660085.7072132,1990,0,ɔ
1778660085.709352,2064,0,ɔ
1778660085.71103,1956,0,ɔ
1778660085.714966,1873,0,ɔ
1778660085.715082,1975,0,ɔ
1778660085.7173078,2239,0,ɔ
1778660085.719415,2279,0,ɔ
1778660085.720858,2057,0,ɔ
1778660085.723478,2002,0,ɔ
1778660085.7275221,2013,0,ɔ
1778660085.729068,2044,0,ɔ
1778660085.730716,1903,0,ɔ
1778660085.730939,1950,0,ɔ
1778660085.734231,2196,0,ɔ
1778660085.736428,2318,0,ɔ
1778660085.7388082,2073,0,ɔ
1778660085.7389371,1998,0,ɔ
1778660085.7410681,1986,0,ɔ
1778660085.7436259,2126,0,ɔ
1778660085.744916,1951,0,ɔ
1778660085.7474718,1959,0,ɔ
1778660085.748768,2125,0,ɔ
1778660085.7556212,2282,0,ɔ
1778660085.756043,2095,0,ɔ
1778660085.756541,1976,0,ɔ
1778660085.758237,1991,0,ɔ
1778660085.760211,2071,0,ɔ
1778660085.7617311,2044,0,ɔ
1778660085.7638779,1918,0,ɔ
1778660085.766124,2053,0,ɔ
1778660085.768228,2262,0,ɔ
1778660085.7695339,2246,0,ɔ
1778660085.770826,1973,0,ɔ
1778660085.7770839,1920,0,ɔ
1778660085.777513,2096,0,ɔ
1778660085.7782972,2109,0,ɔ
1778660085.779716,1940,0,ɔ
1778660085.781914,1964,0,ɔ
1778660085.7833228,2141,0,ɔ
1778660085.7851079,2305,0,ɔ
1778660085.7873778,2110,0,ɔ
1778660085.789151,2001,0,ɔ
1778660085.7907488,1941,0,ɔ
1778660085.793302,2023,0,ɔ
1778660085.794595,1952,0,ɔ
1778660085.7971358,1926,0,ɔ
1778660085.803353,2084,0,ɔ
1778660085.803752,2364,0,ɔ
1778660085.8038652,2163,0,ɔ
1778660085.80593,2047,0,ɔ
1778660085.8078039,2041,0,ɔ
1778660085.809694,2099,0,ɔ
1778660085.8110862,2004,0,ɔ
1778660085.813192,1906,0,ɔ
1778660085.815337,2019,0,ɔ
1778660085.816687,2115,0,ɔ
1778660085.819246,2122,0,ɔ
1778660085.820548,2012,0,ɔ
1778660085.823096,2082,0,ɔ
1778660085.828743,1994,0,ɔ
1778660085.8288288,2028,0,ɔ
1778660085.829222,1924,0,ɔ
1778660085.8311439,1999,0,ɔ
1778660085.832603,2182,0,ɔ
1778660085.836086,2314,0,ɔ
1778660085.83829,2125,0,ɔ
1778660085.839967,2026,0,ɔ
1778660085.84152,1950,0,ɔ
1778660085.842908,2071,0,ɔ
1778660085.851527,1962,0,ɔ
1778660085.85159,1874,0,ɔ
1778660085.8516831,2030,0,ɔ
1778660085.851815,2340,0,ɔ
1778660085.854033,2190,0,ɔ
1778660085.855655,2100,0,ɔ
1778660085.859066,1978,0,ɔ
1778660085.859191,2026,0,ɔ
1778660085.86129,1977,0,ɔ
1778660085.862588,1873,0,ɔ
1778660085.865209,2004,0,ɔ
1778660085.866551,2215,0,ɔ
1778660085.869101,2204,0,ɔ
1778660085.875807,2096,0,ɔ
1778660085.876704,1974,0,ɔ
1778660085.877565,1960,0,ɔ
1778660085.8787699,2001,0,ɔ
1778660085.878929,1920,0,ɔ
1778660085.880833,2026,0,ɔ
1778660085.884313,2188,0,ɔ
1778660085.886571,2299,0,ɔ
1778660085.886763,2067,0,ɔ
1778660085.8889012,1980,0,ɔ
1778660085.8914618,1972,0,ɔ
1778660085.892755,2069,0,ɔ
1778660085.900058,1914,0,ɔ
1778660085.9003232,1886,0,ɔ
1778660085.9015281,2083,0,ɔ
1778660085.901885,2252,0,ɔ
1778660085.9037912,2094,0,ɔ
1778660085.905678,1996,0,ɔ
1778660085.9078028,1984,0,ɔ
1778660085.909915,2134,0,ɔ
1778660085.91122,2036,0,ɔ
1778660085.9125152,1863,0,ɔ
1778660085.9154391,2066,0,ɔ
1778660085.9167428,2290,0,ɔ
1778660085.919295,2229,0,ɔ
1778660085.924363,2013,0,ɔ
1778660085.9248462,1931,0,ɔ
1778660085.925775,1964,0,ɔ
1778660085.9273012,2023,0,ɔ
1778660085.929404,1876,0,ɔ
1778660085.931062,1920,0,ɔ
1778660085.934752,2155,0,ɔ
1778660085.9348931,2301,0,ɔ
1778660085.9370089,2076,0,ɔ
1778660085.939619,2020,0,ɔ
1778660085.940921,1971,0,ɔ
1778660085.945769,2037,0,ɔ
1778660085.9458618,1971,0,ɔ
1778660085.949357,1937,0,ɔ
1778660085.949784,2133,0,ɔ
1778660085.952971,2256,0,ɔ
1778660085.955039,2117,0,ɔ
1778660085.955132,2009,0,ɔ
1778660085.957288,1977,0,ɔ
1778660085.9585862,2054,0,ɔ
1778660085.961314,1942,0,ɔ
1778660085.9626439,1869,0,ɔ
1778660085.965439,2069,0,ɔ
1778660085.9669042,2194,0,ɔ
1778660085.970919,2263,0,ɔ
1778660085.971352,2018,0,ɔ
1778660085.973483,1948,0,ɔ
1778660085.975414,1985,0,ɔ
1778660085.977366,1987,0,ɔ
1778660085.980636,1947,0,ɔ
1778660085.980795,1907,0,ɔ
1778660085.983635,2153,0,ɔ
1778660085.984938,2331,0,ɔ
1778660085.987495,2076,0,ɔ
1778660085.9922729,2007,0,ɔ
1778660085.992704,1995,0,ɔ
1778660085.993105,2125,0,ɔ
1778660085.994824,1950,0,ɔ
1778660085.9982588,1903,0,ɔ
1778660085.999895,2058,0,ɔ
1778660086.001853,2314,0,ɔ
1778660086.003787,2143,0,ɔ
1778660086.005114,2002,0,ɔ
1778660086.007671,2016,0,ɔ
1778660086.008959,2080,0,ɔ
1778660086.0115032,1996,0,ɔ
1778660086.012825,1905,0,ɔ
1778660086.016999,2033,0,ɔ
1778660086.017076,2217,0,ɔ
1778660086.019286,2226,0,ɔ
1778660086.0206459,2065,0,ɔ
1778660086.024128,1976,0,ɔ
1778660086.026091,2009,0,ɔ
1778660086.02801,2031,0,ɔ
1778660086.029313,1934,0,ɔ
1778660086.0306041,1968,0,ɔ
1778660086.033149,2157,0,ɔ
1778660086.034434,2271,0,ɔ
1778660086.03705,2068,0,ɔ
1778660086.0412931,1968,0,ɔ
1778660086.0417001,1977,0,ɔ
1778660086.0430982,2082,0,ɔ
1778660086.045203,1957,0,ɔ
1778660086.047858,1928,0,ɔ
1778660086.0498729,2100,0,ɔ
1778660086.051775,2267,0,ɔ
1778660086.0531101,2108,0,ɔ
1778660086.055882,2021,0,ɔ
1778660086.0571609,1966,0,ɔ
1778660086.058452,2076,0,ɔ
1778660086.064513,1985,0,ɔ
1778660086.064884,1892,0,ɔ
1778660086.065296,1939,0,ɔ
1778660086.067374,2153,0,ɔ
1778660086.0691671,2178,0,ɔ
1778660086.070981,1978,0,ɔ
1778660086.074157,1885,0,ɔ
1778660086.076092,1965,0,ɔ
1778660086.0773802,1929,0,ɔ
1778660086.078667,1816,0,ɔ
1778660086.081227,2047,0,ɔ
1778660086.082518,2349,0,ɔ
1778660086.085047,2370,0,ɔ
1778660086.088959,2167,0,ɔ
1778660086.08908,1809,0,ɔ
1778660086.091135,1856,0,ɔ
1778660086.0931818,1870,0,ɔ
1778660086.094634,2052,0,ɔ
1778660086.0977762,2079,0,ɔ
1778660086.099654,1815,0,ɔ
1778660086.100957,2163,0,ɔ
1778660086.103528,2334,0,ɔ
1778660086.104866,2286,0,ɔ
1778660086.1074219,2089,0,ɔ
1778660086.112603,2041,0,ɔ
1778660086.11304,1878,0,ɔ
1778660086.113765,1739,0,ɔ
1778660086.116194,2139,0,ɔ
1778660086.118297,2361,0,ɔ
1778660086.1215098,2208,0,ɔ
1778660086.1215758,2043,0,ɔ
1778660086.123148,1969,0,ɔ
1778660086.1257,2006,0,ɔ
1778660086.126986,1932,0,ɔ
1778660086.1295528,1803,0,ɔ
1778660086.130841,1978,0,ɔ
1778660086.13634,1974,0,ɔ
1778660086.136715,2216,0,ɔ
1778660086.136811,2160,0,ɔ
1778660086.1388931,2179,0,ɔ
1778660086.14121,2046,0,ɔ
1778660086.1434639,2106,0,ɔ
1778660086.145427,2015,0,ɔ
1778660086.1472661,2006,0,ɔ
1778660086.1485922,1773,0,ɔ
1778660086.1511402,1833,0,ɔ
1778660086.152426,1940,0,ɔ
1778660086.154966,2242,0,ɔ
1778660086.16008,2129,0,ɔ
1778660086.160491,2130,0,ɔ
1778660086.161212,2119,0,ɔ
1778660086.162596,2075,0,ɔ
1778660086.166968,2206,0,ɔ
1778660086.167084,2325,0,ɔ
1778660086.169405,2200,0,ɔ
1778660086.171165,1959,0,ɔ
1778660086.17246,1819,0,ɔ
1778660086.175006,1862,0,ɔ
1778660086.176394,1936,0,ɔ
1778660086.178951,1845,0,ɔ
1778660086.185164,1949,0,ɔ
1778660086.187029,2176,0,ɔ
1778660086.1871989,2195,0,ɔ
1778660086.189039,1927,0,ɔ
1778660086.189467,1878,0,ɔ
1778660086.1910038,1853,0,ɔ
1778660086.194197,1908,0,ɔ
1778660086.19446,1880,0,ɔ
1778660086.1973372,1960,0,ɔ
1778660086.198776,2196,0,ɔ
1778660086.201422,2355,0,ɔ
1778660086.202715,2171,0,ɔ
1778660086.209646,2008,0,ɔ
1778660086.2100842,1935,0,ɔ
1778660086.210476,2020,0,ɔ
1778660086.21054,1972,0,ɔ
1778660086.2130198,1857,0,ɔ
1778660086.214439,2008,0,ɔ
1778660086.2182899,2208,0,ɔ
1778660086.218579,2196,0,ɔ
1778660086.221237,2034,0,ɔ
1778660086.222527,1933,0,ɔ
1778660086.225158,1970,0,ɔ
1778660086.226445,2021,0,ɔ
1778660086.228986,1864,0,ɔ
1778660086.234593,1919,0,ɔ
1778660086.235024,2154,0,ɔ
1778660086.236156,2266,0,ɔ
1778660086.237847,2034,0,ɔ
1778660086.240721,1933,0,ɔ
1778660086.243118,2001,0,ɔ
1778660086.243244,2079,0,ɔ
1778660086.2448032,1952,0,ɔ
1778660086.247413,1933,0,ɔ
1778660086.2489111,2082,0,ɔ
1778660086.250484,2300,0,ɔ
1778660086.253919,2134,0,ɔ
1778660086.256547,2033,0,ɔ
1778660086.256743,1953,0,ɔ
1778660086.260244,2076,0,ɔ
1778660086.261566,1981,0,ɔ
1778660086.2634492,1855,0,ɔ
1778660086.265744,1967,0,ɔ
1778660086.267036,2261,0,ɔ
1778660086.268416,2323,0,ɔ
1778660086.270956,2057,0,ɔ
1778660086.2735019,1891,0,ɔ
1778660086.278966,1908,0,ɔ
1778660086.279375,2058,0,ɔ
1778660086.279475,1962,0,ɔ
1778660086.28083,1884,0,ɔ
1778660086.284151,2052,0,ɔ
1778660086.2873259,2373,0,ɔ
1778660086.287442,2214,0,ɔ
1778660086.289217,1841,0,ɔ
1778660086.29052,1813,0,ɔ
1778660086.293195,1991,0,ɔ
1778660086.294486,2074,0,ɔ
1778660086.2970428,1933,0,ɔ
1778660086.298522,2001,0,ɔ
1778660086.3031528,2265,0,ɔ
1778660086.303245,1899,0,ɔ
1778660086.307062,1824,0,ɔ
1778660086.307727,2027,0,ɔ
1778660086.3105202,2116,0,ɔ
1778660086.3106182,1922,0,ɔ
1778660086.31256,1897,0,ɔ
1778660086.3153238,2069,0,ɔ
1778660086.3166149,2185,0,ɔ
1778660086.318999,2189,0,ɔ
1778660086.321785,1977,0,ɔ
1778660086.323075,2013,0,ɔ
1778660086.3279529,2052,0,ɔ
1778660086.328701,2116,0,ɔ
1778660086.328784,1885,0,ɔ
1778660086.3328042,1860,0,ɔ
1778660086.333633,2016,0,ɔ
1778660086.335226,2137,0,ɔ
1778660086.3374028,2014,0,ɔ
1778660086.340218,1913,0,ɔ
1778660086.342628,2192,0,ɔ
1778660086.343787,2080,0,ɔ
1778660086.352203,1800,0,ɔ
1778660086.352603,1730,0,ɔ
1778660086.35308,2150,0,ɔ
1778660086.353855,2440,0,ɔ
1778660086.353984,2132,0,ɔ
1778660086.3580532,1969,0,ɔ
1778660086.3582458,1902,0,ɔ
1778660086.358432,2072,0,ɔ
1778660086.361064,1876,0,ɔ
1778660086.362605,1870,0,ɔ
1778660086.3657558,2094,0,ɔ
1778660086.367584,2380,0,ɔ
1778660086.368912,2050,0,ɔ
1778660086.375255,1932,0,ɔ
1778660086.37646,2080,0,ɔ
1778660086.377569,1909,0,ɔ
1778660086.377732,1959,0,ɔ
1778660086.3807528,1609,0,ɔ
1778660086.381213,1911,0,ɔ
1778660086.3846662,2242,0,ɔ
1778660086.3847628,2148,0,ɔ
1778660086.3868842,1953,0,ɔ
1778660086.3894389,1942,0,ɔ
1778660086.390738,2043,0,ɔ
1778660086.393286,2127,0,ɔ
1778660086.3945742,1861,0,ɔ
1778660086.3992808,1804,0,ɔ
1778660086.399745,2012,0,ɔ
1778660086.401825,2294,0,ɔ
1778660086.404841,2196,0,ɔ
1778660086.406322,2022,0,ɔ
1778660086.408444,1906,0,ɔ
1778660086.408591,2074,0,ɔ
1778660086.410487,2067,0,ɔ
1778660086.41292,1891,0,ɔ
1778660086.414284,1850,0,ɔ
1778660086.416877,2180,0,ɔ
1778660086.418271,2097,0,ɔ
1778660086.423769,2059,0,ɔ
1778660086.4245172,1804,0,ɔ
1778660086.4246342,2056,0,ɔ
1778660086.4278028,2159,0,ɔ
1778660086.430762,1770,0,ɔ
1778660086.430816,1738,0,ɔ
1778660086.4327621,1972,0,ɔ
1778660086.434724,2166,0,ɔ
1778660086.437284,2050,0,ɔ
1778660086.438574,1895,0,ɔ
1778660086.444493,1837,0,ɔ
1778660086.4448981,1911,0,ɔ
1778660086.445339,1757,0,ɔ
1778660086.446678,1938,0,ɔ
1778660086.450301,1961,0,ɔ
1778660086.450392,2548,0,ɔ
1778660086.4535658,2307,0,ɔ
1778660086.455482,1803,0,ɔ
1778660086.4567711,1851,0,ɔ
1778660086.459522,1938,0,ɔ
1778660086.460814,1897,0,ɔ
1778660086.463358,1876,0,ɔ
1778660086.472605,1846,0,ɔ
1778660086.472808,2123,0,ɔ
1778660086.475986,2187,0,ɔ
1778660086.4767702,1983,0,ɔ
1778660086.48068,2192,0,ɔ
1778660086.480743,2000,0,ɔ
1778660086.480973,1828,0,ɔ
1778660086.481104,1837,0,ɔ
1778660086.481181,2148,0,ɔ
1778660086.48288,2095,0,ɔ
1778660086.485465,2234,0,ɔ
1778660086.4903748,1897,0,ɔ
1778660086.4908302,1879,0,ɔ
1778660086.49117,1860,0,ɔ
1778660086.4929101,2142,0,ɔ
1778660086.495268,1851,0,ɔ
1778660086.4976819,1631,0,ɔ
1778660086.4996321,2080,0,ɔ
1778660086.501164,2148,0,ɔ
1778660086.502465,1938,0,ɔ
1778660086.5050108,1994,0,ɔ
1778660086.506295,2085,0,ɔ
1778660086.508839,1847,0,ɔ
1778660086.5103512,1947,0,ɔ
1778660086.513827,1750,0,ɔ
1778660086.515945,1925,0,ɔ
1778660086.5175219,2213,0,ɔ
1778660086.519082,2263,0,ɔ
1778660086.520598,1892,0,ɔ
1778660086.5225222,1993,0,ɔ
1778660086.524443,1942,0,ɔ
1778660086.526987,1978,0,ɔ
1778660086.5282922,2042,0,ɔ
1778660086.530845,1920,0,ɔ
1778660086.536403,2110,0,ɔ
1778660086.5367901,2591,0,ɔ
1778660086.537142,1981,0,ɔ
1778660086.5387871,1897,0,ɔ
1778660086.540493,1731,0,ɔ
1778660086.543388,2003,0,ɔ
1778660086.545394,2051,0,ɔ
1778660086.547232,1641,0,ɔ
1778660086.548539,1800,0,ɔ
1778660086.551085,2287,0,ɔ
1778660086.552373,2117,0,ɔ
1778660086.5549161,1786,0,ɔ
1778660086.5597079,1796,0,ɔ
1778660086.560417,1985,0,ɔ
1778660086.560761,2012,0,ɔ
1778660086.5634701,1896,0,ɔ
1778660086.5652092,2079,0,ɔ
1778660086.5683148,2226,0,ɔ
1778660086.568379,2233,0,ɔ
1778660086.571351,2090,0,ɔ
1778660086.572644,1898,0,ɔ
1778660086.575192,1843,0,ɔ
1778660086.576478,1824,0,ɔ
1778660086.582618,1862,0,ɔ
1778660086.582676,1738,0,ɔ
1778660086.583036,2117,0,ɔ
1778660086.584712,2383,0,ɔ
1778660086.5869188,1963,0,ɔ
1778660086.5891929,1830,0,ɔ
1778660086.59114,1787,0,ɔ
1778660086.5929651,2199,0,ɔ
1778660086.594281,1991,0,ɔ
1778660086.596833,1835,0,ɔ
1778660086.5993862,1990,0,ɔ
1778660086.600677,2340,0,ɔ
1778660086.605493,2124,0,ɔ
1778660086.6055198,1870,0,ɔ
1778660086.606915,1840,0,ɔ
1778660086.608296,2202,0,ɔ
1778660086.611563,2175,0,ɔ
1778660086.614742,1880,0,ɔ
1778660086.614872,1982,0,ɔ
1778660086.6169012,2189,0,ɔ
1778660086.6181939,2078,0,ɔ
1778660086.6207411,2046,0,ɔ
1778660086.6232908,1929,0,ɔ
1778660086.624583,1921,0,ɔ
1778660086.627133,1965,0,ɔ
1778660086.628424,1919,0,ɔ
1778660086.632221,1812,0,ɔ
1778660086.6329548,1958,0,ɔ
1778660086.63466,2287,0,ɔ
1778660086.637888,2331,0,ɔ
1778660086.640993,2017,0,ɔ
1778660086.641263,1800,0,ɔ
1778660086.642692,2133,0,ɔ
1778660086.645252,1943,0,ɔ
1778660086.646542,1870,0,ɔ
1778660086.6491048,2175,0,ɔ
1778660086.650392,2249,0,ɔ
1778660086.6552398,2173,0,ɔ
1778660086.655307,2013,0,ɔ
1778660086.657435,2019,0,ɔ
1778660086.659073,1832,0,ɔ
1778660086.661887,1857,0,ɔ
1778660086.663968,1903,0,ɔ
1778660086.665498,2005,0,ɔ
1778660086.666786,2156,0,ɔ
1778660086.669327,2218,0,ɔ
1778660086.670615,1800,0,ɔ
1778660086.6731641,1878,0,ɔ
1778660086.6744478,2239,0,ɔ
1778660086.678463,2070,0,ɔ
1778660086.678533,1834,0,ɔ
1778660086.6804218,1948,0,ɔ
1778660086.683485,2163,0,ɔ
1778660086.68653,2260,0,ɔ
1778660086.6866822,1935,0,ɔ
1778660086.689266,1858,0,ɔ
1778660086.6905532,2001,0,ɔ
1778660086.6931,2084,0,ɔ
1778660086.6943831,1788,0,ɔ
1778660086.696842,1933,0,ɔ
1778660086.700608,2097,0,ɔ
1778660086.700672,2472,0,ɔ
1778660086.702692,2241,0,ɔ
1778660086.704242,1948,0,ɔ
1778660086.707059,2036,0,ɔ
1778660086.709024,2097,0,ɔ
1778660086.710874,2027,0,ɔ
1778660086.7135592,1728,0,ɔ
1778660086.714847,2098,0,ɔ
1778660086.717387,2315,0,ɔ
1778660086.7186701,2106,0,ɔ
1778660086.7227252,1681,0,ɔ
1778660086.7239501,1922,0,ɔ
1778660086.727322,2081,0,ɔ
1778660086.727974,2047,0,ɔ
1778660086.7321641,1888,0,ɔ
1778660086.7322628,1806,0,ɔ
1778660086.7323892,1927,0,ɔ
1778660086.735008,2373,0,ɔ
1778660086.736305,1892,0,ɔ
1778660086.738697,2040,0,ɔ
1778660086.741187,1929,0,ɔ
1778660086.746541,2005,0,ɔ
1778660086.746594,1995,0,ɔ
1778660086.747329,1965,0,ɔ
1778660086.7499578,1702,0,ɔ
1778660086.751643,2195,0,ɔ
1778660086.754616,2336,0,ɔ
1778660086.754797,2104,0,ɔ
1778660086.756531,1926,0,ɔ
1778660086.759077,2127,0,ɔ
1778660086.760371,2089,0,ɔ
1778660086.762912,1890,0,ɔ
1778660086.7642639,2127,0,ɔ
1778660086.769096,2220,0,ɔ
1778660086.769744,2200,0,ɔ
1778660086.772344,1959,0,ɔ
1778660086.7727098,1933,0,ɔ
1778660086.774457,1998,0,ɔ
1778660086.777759,1831,0,ɔ
1778660086.779171,1784,0,ɔ
1778660086.780494,1954,0,ɔ
1778660086.783041,2161,0,ɔ
1778660086.784328,2280,0,ɔ
1778660086.786866,2111,0,ɔ
1778660086.791189,1952,0,ɔ
1778660086.792465,2063,0,ɔ
1778660086.79347,2184,0,ɔ
1778660086.795004,2007,0,ɔ
1778660086.79667,1914,0,ɔ
1778660086.799693,2306,0,ɔ
1778660086.8015602,2311,0,ɔ
1778660086.802853,1956,0,ɔ
1778660086.8041542,2005,0,ɔ
1778660086.806603,1938,0,ɔ
1778660086.809002,1597,0,ɔ
1778660086.8137379,2064,0,ɔ
1778660086.814104,1782,0,ɔ
1778660086.814496,1959,0,ɔ
1778660086.817583,2272,0,ɔ
1778660086.8201878,2266,0,ɔ
1778660086.8221052,2249,0,ɔ
1778660086.8222451,1918,0,ɔ
1778660086.824928,1954,0,ɔ
1778660086.826216,2014,0,ɔ
1778660086.8287601,1964,0,ɔ
1778660086.83134,1901,0,ɔ
1778660086.836326,2186,0,ɔ
1778660086.836687,2059,0,ɔ
1778660086.837888,1796,0,ɔ
1778660086.839395,2216,0,ɔ
1778660086.8407092,2217,0,ɔ
1778660086.844192,1976,0,ɔ
1778660086.844316,1863,0,ɔ
1778660086.846952,1890,0,ɔ
1778660086.848256,2066,0,ɔ
1778660086.850595,2271,0,ɔ
1778660086.85315,2015,0,ɔ
1778660086.854611,2103,0,ɔ
1778660086.858231,2148,0,ɔ
1778660086.8586082,2086,0,ɔ
1778660086.8606238,1838,0,ɔ
1778660086.863713,1882,0,ɔ
1778660086.865232,2050,0,ɔ
1778660086.86733,2219,0,ɔ
1778660086.869149,2242,0,ɔ
1778660086.870441,2054,0,ɔ
1778660086.872991,1863,0,ɔ
1778660086.8742762,1916,0,ɔ
1778660086.876819,2005,0,ɔ
1778660086.8810759,1958,0,ɔ
1778660086.881442,2105,0,ɔ
1778660086.8830621,2039,0,ɔ
1778660086.8849258,2180,0,ɔ
1778660086.886288,2033,0,ɔ
1778660086.8893461,2082,0,ɔ
1778660086.891084,2000,0,ɔ
1778660086.892381,2207,0,ɔ
1778660086.894937,1777,0,ɔ
1778660086.8962429,1929,0,ɔ
1778660086.898787,2077,0,ɔ
1778660086.9033191,2329,0,ɔ
1778660086.903947,2294,0,ɔ
1778660086.905569,1921,0,ɔ
1778660086.907389,1861,0,ɔ
1778660086.9098601,2124,0,ɔ
1778660086.911942,2035,0,ɔ
1778660086.913752,2018,0,ɔ
1778660086.9150379,2080,0,ɔ
1778660086.9163241,2306,0,ɔ
1778660086.918876,2224,0,ɔ
1778660086.920193,2453,0,ɔ
1778660086.926095,2096,0,ɔ
1778660086.9267159,1849,0,ɔ
1778660086.926791,1898,0,ɔ
1778660086.928258,1718,0,ɔ
1778660086.931136,2024,0,ɔ
1778660086.932642,2148,0,ɔ
1778660086.934718,2342,0,ɔ
1778660086.9362218,1979,0,ɔ
1778660086.9387789,1998,0,ɔ
1778660086.940166,1909,0,ɔ
1778660086.94272,1879,0,ɔ
1778660086.9482481,2108,0,ɔ
1778660086.948564,2065,0,ɔ
1778660086.9490209,2142,0,ɔ
1778660086.951006,2303,0,ɔ
1778660086.9528031,2163,0,ɔ
1778660086.9553332,2048,0,ɔ
1778660086.9573839,2040,0,ɔ
1778660086.9591491,2029,0,ɔ
1778660086.960437,2006,0,ɔ
1778660086.962979,1936,0,ɔ
1778660086.964282,2000,0,ɔ
1778660086.966824,2216,0,ɔ
1778660086.97197,2217,0,ɔ
1778660086.972053,2066,0,ɔ
1778660086.973911,1804,0,ɔ
1778660086.975611,2084,0,ɔ
1778660086.9783978,2131,0,ɔ
1778660086.9785001,1930,0,ɔ
1778660086.9805608,1943,0,ɔ
1778660086.983258,2101,0,ɔ
1778660086.984546,2252,0,ɔ
1778660086.987089,2148,0,ɔ
1778660086.988373,1897,0,ɔ
1778660086.99437,2017,0,ɔ
1778660086.994733,2176,0,ɔ
1778660086.9951308,1918,0,ɔ
1778660086.996781,1921,0,ɔ
1778660086.998359,2242,0,ɔ
1778660087.001146,2279,0,ɔ
1778660087.003406,2078,0,ɔ
1778660087.005099,2028,0,ɔ
1778660087.006596,1951,0,ɔ
1778660087.009124,2045,0,ɔ
1778660087.012311,1972,0,ɔ
1778660087.0123699,1918,0,ɔ
1778660087.015459,2105,0,ɔ
1778660087.02054,2227,0,ɔ
1778660087.0215192,2175,0,ɔ
1778660087.025138,2055,0,ɔ
1778660087.0255911,2015,0,ɔ
1778660087.034869,2045,0,ɔ
1778660087.064757,2026,0,ɔ
1778660087.066758,1912,0,ɔ
1778660087.067364,2017,0,ɔ
1778660087.0692139,2193,0,ɔ
1778660087.104308,2292,0,ɔ
1778660087.123508,2046,0,ɔ
1778660087.2449238,2005,0,ɔ
1778660087.244975,1959,0,ɔ
1778660087.245002,2161,0,ɔ
1778660087.245027,1998,0,ɔ
1778660087.2450502,1926,0,ɔ
1778660087.2450728,2086,0,ɔ
1778660087.245096,2290,0,ɔ
1778660087.245119,2184,0,ɔ
1778660087.245142,2113,0,ɔ
1778660087.245164,2006,0,ɔ
1778660087.245187,1953,0,ɔ
1778660087.2452102,2044,0,ɔ
1778660087.2452328,1896,0,ɔ
1778660087.245255,2129,0,ɔ
1778660087.245278,2299,0,ɔ
1778660087.2453,2242,0,ɔ
1778660087.245322,2075,0,ɔ
1778660087.245344,2029,0,ɔ
1778660087.245366,2082,0,ɔ
1778660087.245389,2029,0,ɔ
1778660087.2454112,1902,0,ɔ
1778660087.245434,1945,0,ɔ
1778660087.245456,2162,0,ɔ
1778660087.2454789,2305,0,ɔ
1778660087.2454998,2125,0,ɔ
1778660087.245913,2065,0,ɔ
1778660087.2460349,2011,0,ɔ
1778660087.2460601,2093,0,ɔ
1778660087.246083,1993,0,ɔ
1778660087.2461052,1978,0,ɔ
1778660087.246252,2112,0,ɔ
1778660087.246345,2322,0,ɔ
1778660087.246429,2139,0,ɔ
1778660087.246484,2047,0,ɔ
1778660087.246637,2004,0,ɔ
1778660087.246722,2111,0,ɔ
1778660087.2467468,2041,0,ɔ
1778660087.246769,1949,0,ɔ
1778660087.246895,2141,0,ɔ
1778660087.246919,2275,0,ɔ
1778660087.2469409,2238,0,ɔ
1778660087.247057,2102,0,ɔ
1778660087.2471209,2020,0,ɔ
1778660087.247172,2043,0,ɔ
1778660087.247221,2059,0,ɔ
1778660087.2472692,1860,0,ɔ
1778660087.247446,1980,0,ɔ
1778660087.247515,2196,0,ɔ
1778660087.2476292,2318,0,ɔ
1778660087.247693,2115,0,ɔ
1778660087.24772,2005,0,ɔ
1778660087.247743,1996,0,ɔ
1778660087.247767,2172,0,ɔ
1778660087.247848,1997,0,ɔ
1778660087.247873,1950,0,ɔ
1778660087.248086,2128,0,ɔ
1778660087.2481122,2357,0,ɔ
1778660087.248134,2183,0,ɔ
1778660087.248176,2069,0,ɔ
1778660087.2482078,1982,0,ɔ
1778660087.248231,2109,0,ɔ
1778660087.2483299,2014,0,ɔ
1778660087.248354,1908,0,ɔ
1778660087.248391,2039,0,ɔ
1778660087.248415,2295,0,ɔ
1778660087.248437,2272,0,ɔ
1778660087.24846,2021,0,ɔ
1778660087.2484832,2018,0,ɔ
1778660087.248519,1978,0,ɔ
1778660087.248542,2041,0,ɔ
1778660087.2485728,1937,0,ɔ
1778660087.248596,1959,0,ɔ
1778660087.248766,2202,0,ɔ
1778660087.2488241,2272,0,ɔ
1778660087.2488818,2089,0,ɔ
1778660087.248907,2001,0,ɔ
1778660087.248945,1994,0,ɔ
1778660087.248978,2133,0,ɔ
1778660087.2490098,1984,0,ɔ
1778660087.249033,1931,0,ɔ
1778660087.2491689,2068,0,ɔ
1778660087.249272,2327,0,ɔ
1778660087.2493298,2128,0,ɔ
1778660087.249381,1998,0,ɔ
1778660087.249436,1902,0,ɔ
1778660087.249486,2068,0,ɔ
1778660087.249534,1997,0,ɔ
1778660087.2495859,1841,0,ɔ
1778660087.2496388,1948,0,ɔ
1778660087.249692,2241,0,ɔ
1778660087.249745,2230,0,ɔ
1778660087.249799,2029,0,ɔ
1778660087.249852,1924,0,ɔ
1778660087.2499042,1982,0,ɔ
1778660087.25002,2059,0,ɔ
1778660087.250103,2008,0,ɔ
1778660087.250162,2029,0,ɔ
1778660087.250219,2201,0,ɔ
1778660087.25027,2323,0,ɔ
1778660087.25032,2108,0,ɔ
1778660087.250369,2050,0,ɔ
1778660087.250418,2001,0,ɔ
1778660087.250466,2052,0,ɔ
1778660087.2505322,1926,0,ɔ
1778660087.2508538,1903,0,ɔ
1778660087.250897,2131,0,ɔ
1778660087.250921,2389,0,ɔ
1778660087.252212,2098,0,ɔ
1778660087.254297,1985,0,ɔ
1778660087.256688,1939,0,ɔ
1778660087.2580962,2116,0,ɔ
1778660087.260225,2009,0,ɔ
1778660087.266551,1841,0,ɔ
1778660087.267241,2019,0,ɔ
1778660087.268416,2201,0,ɔ
1778660087.268523,2257,0,ɔ
1778660087.270725,1984,0,ɔ
1778660087.273602,1999,0,ɔ
1778660087.276693,2045,0,ɔ
1778660087.2788548,2033,0,ɔ
1778660087.278971,1962,0,ɔ
1778660087.280235,1999,0,ɔ
1778660087.287669,2120,0,ɔ
1778660087.2887528,2273,0,ɔ
1778660087.288953,2061,0,ɔ
1778660087.291064,1989,0,ɔ
1778660087.291785,1956,0,ɔ
1778660087.296122,2032,0,ɔ
1778660087.296287,1951,0,ɔ
1778660087.296598,1984,0,ɔ
1778660087.298269,2157,0,ɔ
1778660087.301018,2279,0,ɔ
1778660087.302308,2124,0,ɔ
1778660087.305068,2078,0,ɔ
1778660087.306305,2019,0,ɔ
1778660087.312785,2124,0,ɔ
1778660087.3147478,1912,0,ɔ
1778660087.3216882,1807,0,ɔ
1778660087.321874,1976,0,ɔ
1778660087.322123,2217,0,ɔ
1778660087.323671,2253,0,ɔ
1778660087.32405,2024,0,ɔ
1778660087.324217,2018,0,ɔ
1778660087.324245,2015,0,ɔ
1778660087.327125,1986,0,ɔ
1778660087.328662,1920,0,ɔ
1778660087.331234,2099,0,ɔ
1778660087.332685,2103,0,ɔ
1778660087.338335,2244,0,ɔ
1778660087.338783,2208,0,ɔ
1778660087.3435571,2009,0,ɔ
1778660087.345776,1952,0,ɔ
1778660087.3479419,2074,0,ɔ
1778660087.3480692,1921,0,ɔ
1778660087.348347,1925,0,ɔ
1778660087.3484218,2104,0,ɔ
1778660087.3507168,2278,0,ɔ
1778660087.3522382,2168,0,ɔ
1778660087.3550239,2106,0,ɔ
1778660087.3589098,1980,0,ɔ
1778660087.359605,2049,0,ɔ
1778660087.361325,2038,0,ɔ
1778660087.363232,1900,0,ɔ
1778660087.368373,2045,0,ɔ
1778660087.3685062,2258,0,ɔ
1778660087.36879,2227,0,ɔ
1778660087.370604,2054,0,ɔ
1778660087.373067,1922,0,ɔ
1778660087.374194,1958,0,ɔ
1778660087.376718,2199,0,ɔ
1778660087.378001,1982,0,ɔ
1778660087.3846169,1817,0,ɔ
1778660087.386069,2204,0,ɔ
1778660087.387583,2330,0,ɔ
1778660087.387647,2057,0,ɔ
1778660087.389761,2042,0,ɔ
1778660087.393107,2128,0,ɔ
1778660087.393218,2045,0,ɔ
1778660087.395075,1950,0,ɔ
1778660087.3965251,1983,0,ɔ
1778660087.3990421,2062,0,ɔ
1778660087.404139,2315,0,ɔ
1778660087.4059079,2030,0,ɔ
1778660087.40726,2011,0,ɔ
1778660087.4079518,2019,0,ɔ
1778660087.4080682,2060,0,ɔ
1778660087.41085,2085,0,ɔ
1778660087.4131389,2010,0,ɔ
1778660087.415137,1898,0,ɔ
1778660087.416435,2391,0,ɔ
1778660087.418991,2411,0,ɔ
1778660087.420279,2086,0,ɔ
1778660087.422862,2041,0,ɔ
1778660087.428983,1938,0,ɔ
1778660087.430175,2000,0,ɔ
1778660087.43135,1808,0,ɔ
1778660087.432024,1947,0,ɔ
1778660087.433898,2152,0,ɔ
1778660087.437378,2293,0,ɔ
1778660087.4396071,2110,0,ɔ
1778660087.439883,2033,0,ɔ
1778660087.440023,1926,0,ɔ
1778660087.4430451,2001,0,ɔ
1778660087.4446578,1886,0,ɔ
1778660087.4461372,2226,0,ɔ
1778660087.448964,2143,0,ɔ
1778660087.450358,2296,0,ɔ
1778660087.456917,2022,0,ɔ
1778660087.458673,1953,0,ɔ
1778660087.458894,2035,0,ɔ
1778660087.460243,2137,0,ɔ
1778660087.461036,1980,0,ɔ
1778660087.466132,1975,0,ɔ
1778660087.46649,2121,0,ɔ
1778660087.468298,2294,0,ɔ
1778660087.468502,2193,0,ɔ
1778660087.4699771,2134,0,ɔ
1778660087.4725928,1966,0,ɔ
1778660087.4844558,2018,0,ɔ
1778660087.488234,2023,0,ɔ
1778660087.4884338,1902,0,ɔ
1778660087.4887161,1947,0,ɔ
1778660087.490758,2201,0,ɔ
1778660087.490793,2240,0,ɔ
1778660087.4908211,2088,0,ɔ
1778660087.4908469,2056,0,ɔ
1778660087.490871,2061,0,ɔ
1778660087.4921741,2060,0,ɔ
1778660087.494773,1880,0,ɔ
1778660087.496172,1974,0,ɔ
1778660087.498851,2175,0,ɔ
1778660087.500361,2331,0,ɔ
1778660087.51557,2158,0,ɔ
1778660087.51615,2080,0,ɔ
1778660087.5183191,2011,0,ɔ
1778660087.518642,2114,0,ɔ
1778660087.518759,2050,0,ɔ
1778660087.518813,1912,0,ɔ
1778660087.5189,2083,0,ɔ
1778660087.518964,2258,0,ɔ
1778660087.519016,2250,0,ɔ
1778660087.520724,2145,0,ɔ
1778660087.5221,1952,0,ɔ
1778660087.5299141,2060,0,ɔ
1778660087.530213,2062,0,ɔ
1778660087.533194,1965,0,ɔ
1778660087.534341,2038,0,ɔ
1778660087.536757,2223,0,ɔ
1778660087.539202,2318,0,ɔ
1778660087.539758,2086,0,ɔ
1778660087.54195,1990,0,ɔ
1778660087.542084,2053,0,ɔ
1778660087.542142,2171,0,ɔ
1778660087.544832,1984,0,ɔ
1778660087.546144,1859,0,ɔ
1778660087.548809,2169,0,ɔ
1778660087.5500522,2287,0,ɔ
1778660087.5591838,2121,0,ɔ
1778660087.56111,2103,0,ɔ
1778660087.562388,2079,0,ɔ
1778660087.565328,2123,0,ɔ
1778660087.567852,2052,0,ɔ
1778660087.5696871,1974,0,ɔ
1778660087.5705652,2043,0,ɔ
1778660087.570635,2292,0,ɔ
1778660087.570689,2256,0,ɔ
1778660087.570831,2012,0,ɔ
1778660087.5722082,1948,0,ɔ
1778660087.575117,1980,0,ɔ
1778660087.57976,2018,0,ɔ
1778660087.581206,1905,0,ɔ
1778660087.581425,2025,0,ɔ
1778660087.5846028,2258,0,ɔ
1778660087.5859609,2384,0,ɔ
1778660087.586976,2162,0,ɔ
1778660087.589111,1996,0,ɔ
1778660087.591933,1999,0,ɔ
1778660087.592114,2130,0,ɔ
1778660087.595098,1962,0,ɔ
1778660087.5964851,1951,0,ɔ
1778660087.597945,2178,0,ɔ
1778660087.6006029,2382,0,ɔ
1778660087.601995,2173,0,ɔ
1778660087.611538,2041,0,ɔ
1778660087.613898,1969,0,ɔ
1778660087.6152918,2130,0,ɔ
1778660087.615853,2049,0,ɔ
1778660087.616075,1903,0,ɔ
1778660087.617105,1995,0,ɔ
1778660087.621158,2294,0,ɔ
1778660087.621618,2216,0,ɔ
1778660087.623575,2127,0,ɔ
1778660087.623678,1974,0,ɔ
1778660087.624928,2067,0,ɔ
1778660087.6261702,2033,0,ɔ
1778660087.632637,1931,0,ɔ
1778660087.636307,2045,0,ɔ
1778660087.637075,2215,0,ɔ
1778660087.637557,2317,0,ɔ
1778660087.6395268,2114,0,ɔ
1778660087.641171,1995,0,ɔ
1778660087.643575,2032,0,ɔ
1778660087.643975,2105,0,ɔ
1778660087.644235,2010,0,ɔ
1778660087.647022,1933,0,ɔ
1778660087.6484008,2005,0,ɔ
1778660087.65111,2372,0,ɔ
1778660087.652528,2155,0,ɔ
1778660087.654023,2071,0,ɔ
1778660087.660409,2033,0,ɔ
1778660087.661003,2059,0,ɔ
1778660087.661139,1999,0,ɔ
1778660087.663122,1967,0,ɔ
1778660087.6651,2119,0,ɔ
1778660087.666809,2276,0,ɔ
1778660087.668641,2166,0,ɔ
1778660087.6711628,2038,0,ɔ
1778660087.6733491,2070,0,ɔ
1778660087.674772,2021,0,ɔ
1778660087.676168,1982,0,ɔ
1778660087.6830232,1872,0,ɔ
1778660087.6846452,2034,0,ɔ
1778660087.686719,2192,0,ɔ
1778660087.687223,2289,0,ɔ
1778660087.687399,2068,0,ɔ
1778660087.6925912,1956,0,ɔ
1778660087.692779,1985,0,ɔ
1778660087.69296,2137,0,ɔ
1778660087.695049,1938,0,ɔ
1778660087.6964219,1989,0,ɔ
1778660087.69907,2171,0,ɔ
1778660087.700459,2373,0,ɔ
1778660087.7031648,2210,0,ɔ
1778660087.704541,2090,0,ɔ
1778660087.713401,2006,0,ɔ
1778660087.7152388,2055,0,ɔ
1778660087.716946,2035,0,ɔ
1778660087.717162,1910,0,ɔ
1778660087.71979,2060,0,ɔ
1778660087.720015,2270,0,ɔ
1778660087.722815,2194,0,ɔ
1778660087.723171,2062,0,ɔ
1778660087.723576,1986,0,ɔ
1778660087.726054,2026,0,ɔ
1778660087.7261372,2050,0,ɔ
1778660087.728807,1886,0,ɔ
1778660087.73004,2010,0,ɔ
1778660087.735518,2242,0,ɔ
1778660087.7361019,2287,0,ɔ
1778660087.737781,2083,0,ɔ
1778660087.7402308,1949,0,ɔ
1778660087.7411551,2006,0,ɔ
1778660087.7442272,2114,0,ɔ
1778660087.744569,1961,0,ɔ
1778660087.747406,1977,0,ɔ
1778660087.74969,2115,0,ɔ
1778660087.749829,2312,0,ɔ
1778660087.752484,2048,0,ɔ
1778660087.753836,1925,0,ɔ
1778660087.7564979,2038,0,ɔ
1778660087.758239,2138,0,ɔ
1778660087.76657,2004,0,ɔ
1778660087.769033,1906,0,ɔ
1778660087.769442,2012,0,ɔ
1778660087.772732,2270,0,ɔ
1778660087.776041,2251,0,ɔ
1778660087.776274,2111,0,ɔ
1778660087.778689,1995,0,ɔ
1778660087.7793531,2086,0,ɔ
1778660087.779613,2039,0,ɔ
1778660087.781854,1915,0,ɔ
1778660087.781895,1978,0,ɔ
1778660087.7819421,2159,0,ɔ
1778660087.784739,2288,0,ɔ
1778660087.786149,2105,0,ɔ
1778660087.791918,1996,0,ɔ
1778660087.793033,1971,0,ɔ
1778660087.794498,2081,0,ɔ
1778660087.794637,1922,0,ɔ
1778660087.797677,1939,0,ɔ
1778660087.7986188,2158,0,ɔ
1778660087.800946,2286,0,ɔ
1778660087.8034801,2104,0,ɔ
1778660087.805963,2049,0,ɔ
1778660087.806081,2016,0,ɔ
1778660087.808789,2094,0,ɔ
1778660087.810177,1997,0,ɔ
1778660087.812906,1926,0,ɔ
1778660087.814273,2024,0,ɔ
1778660087.8216078,2248,0,ɔ
1778660087.822274,2229,0,ɔ
1778660087.8230028,2027,0,ɔ
1778660087.825443,1991,0,ɔ
1778660087.8274229,2036,0,ɔ
1778660087.828394,1995,0,ɔ
1778660087.829271,1835,0,ɔ
1778660087.834254,1975,0,ɔ
1778660087.8344378,2243,0,ɔ
1778660087.8350039,2322,0,ɔ
1778660087.837467,2081,0,ɔ
1778660087.838667,1970,0,ɔ
1778660087.8401349,1994,0,ɔ
1778660087.848028,2091,0,ɔ
1778660087.848154,1956,0,ɔ
1778660087.850135,1952,0,ɔ
1778660087.850385,2097,0,ɔ
1778660087.853067,2284,0,ɔ
1778660087.856374,2115,0,ɔ
1778660087.8589308,1991,0,ɔ
1778660087.859264,1938,0,ɔ
1778660087.859391,2104,0,ɔ
1778660087.86169,2013,0,ɔ
1778660087.8618429,1854,0,ɔ
1778660087.864278,2041,0,ɔ
1778660087.866896,2279,0,ɔ
1778660087.868236,2165,0,ɔ
1778660087.87062,2079,0,ɔ
1778660087.871944,1969,0,ɔ
1778660087.879023,2041,0,ɔ
1778660087.882026,2009,0,ɔ
1778660087.8824608,1933,0,ɔ
1778660087.884013,2026,0,ɔ
1778660087.8873851,2196,0,ɔ
1778660087.889907,2263,0,ɔ
1778660087.890309,2082,0,ɔ
1778660087.890497,2005,0,ɔ
1778660087.890697,1993,0,ɔ
1778660087.8930528,2085,0,ɔ
1778660087.8944268,1945,0,ɔ
1778660087.8957682,1934,0,ɔ
1778660087.9041011,2101,0,ɔ
1778660087.9052749,2285,0,ɔ
1778660087.906842,2132,0,ɔ
1778660087.907234,2046,0,ɔ
1778660087.9095821,1979,0,ɔ
1778660087.910601,2090,0,ɔ
1778660087.9116008,2011,0,ɔ
1778660087.9164171,1900,0,ɔ
1778660087.916645,2033,0,ɔ
1778660087.9167738,2233,0,ɔ
1778660087.919026,2213,0,ɔ
1778660087.920437,2077,0,ɔ
1778660087.921818,1940,0,ɔ
1778660087.9244318,1988,0,ɔ
1778660087.9258308,2014,0,ɔ
1778660087.9282508,1914,0,ɔ
1778660087.930869,1981,0,ɔ
1778660087.936873,2197,0,ɔ
1778660087.938922,2342,0,ɔ
1778660087.940763,2140,0,ɔ
1778660087.943087,1997,0,ɔ
1778660087.943666,1994,0,ɔ
1778660087.944216,2078,0,ɔ
1778660087.945517,1921,0,ɔ
1778660087.9498959,1862,0,ɔ
1778660087.950041,2075,0,ɔ
1778660087.950282,2124,0,ɔ
1778660087.952673,1924,0,ɔ
1778660087.953977,1832,0,ɔ
1778660087.9565408,2022,0,ɔ
1778660087.962223,2212,0,ɔ
1778660087.962799,2119,0,ɔ
1778660087.963656,1937,0,ɔ
1778660087.964965,2067,0,ɔ
1778660087.967368,1912,0,ɔ
1778660087.969203,2140,0,ɔ
1778660087.971041,2151,0,ɔ
1778660087.973291,2070,0,ɔ
1778660087.975691,1983,0,ɔ
1778660087.975778,1738,0,ɔ
1778660087.978339,1785,0,ɔ
1778660087.979705,2163,0,ɔ
1778660087.9822578,2530,0,ɔ
1778660087.984877,2598,0,ɔ
1778660087.986274,2305,0,ɔ
1778660087.990999,2099,0,ɔ
1778660087.993597,1999,0,ɔ
1778660088.030587,2087,0,ɔ
1778660088.030679,1900,0,ɔ
1778660088.031096,1979,0,ɔ
1778660088.0312629,2096,0,ɔ
1778660088.031295,2146,0,ɔ
1778660088.031359,2013,0,ɔ
1778660088.031455,1994,0,ɔ
1778660088.031484,2088,0,ɔ
1778660088.031511,2119,0,ɔ
1778660088.031538,2032,0,ɔ
1778660088.0316532,1847,0,ɔ
1778660088.031849,1994,0,ɔ
1778660088.0318809,2282,0,ɔ
1778660088.0319092,2261,0,ɔ
1778660088.032002,2036,0,ɔ
1778660088.032178,1966,0,ɔ
1778660088.032208,2000,0,ɔ
1778660088.032235,2012,0,ɔ
1778660088.0322618,1864,0,ɔ
1778660088.032289,1960,0,ɔ
1778660088.0323148,2169,0,ɔ
1778660088.037358,2250,0,ɔ
1778660088.043307,2052,0,ɔ
1778660088.0438988,1962,0,ɔ
1778660088.045782,1953,0,ɔ
1778660088.045998,2064,0,ɔ
1778660088.046113,1914,0,ɔ
1778660088.0463822,1901,0,ɔ
1778660088.056766,2106,0,ɔ
1778660088.056855,2278,0,ɔ
1778660088.056951,2100,0,ɔ
1778660088.05699,1997,0,ɔ
1778660088.05702,1912,0,ɔ
1778660088.058379,2032,0,ɔ
1778660088.0597692,1950,0,ɔ
1778660088.065931,1867,0,ɔ
1778660088.0665002,2024,0,ɔ
1778660088.066955,2243,0,ɔ
1778660088.068396,2171,0,ɔ
1778660088.0697658,1999,0,ɔ
1778660088.072823,1934,0,ɔ
1778660088.0744262,1990,0,ɔ
1778660088.07696,2010,0,ɔ
1778660088.079117,1951,0,ɔ
1778660088.080426,2020,0,ɔ
1778660088.081735,2196,0,ɔ
1778660088.084314,2275,0,ɔ
1778660088.085678,2087,0,ɔ
1778660088.0882292,1987,0,ɔ
1778660088.094947,1991,0,ɔ
1778660088.0954602,2047,0,ɔ
1778660088.095943,1902,0,ɔ
1778660088.096412,1941,0,ɔ
1778660088.102315,2146,0,ɔ
1778660088.1065118,2294,0,ɔ
1778660088.106904,2119,0,ɔ
1778660088.107129,2026,0,ɔ
1778660088.1075132,1997,0,ɔ
1778660088.107872,2085,0,ɔ
1778660088.110243,2002,0,ɔ
1778660088.1128771,1871,0,ɔ
1778660088.114219,1985,0,ɔ
1778660088.1208389,2207,0,ɔ
1778660088.122865,2196,0,ɔ
1778660088.123026,2051,0,ɔ
1778660088.123154,1958,0,ɔ
1778660088.126963,1970,0,ɔ
1778660088.1278489,2109,0,ɔ
1778660088.1317708,1946,0,ɔ
1778660088.132236,1924,0,ɔ
1778660088.132412,2183,0,ɔ
1778660088.134413,2256,0,ɔ
1778660088.135811,2103,0,ɔ
1778660088.138425,1992,0,ɔ
1778660088.1409469,1929,0,ɔ
1778660088.142282,2017,0,ɔ
1778660088.143583,1919,0,ɔ
1778660088.152694,1936,0,ɔ
1778660088.154188,2081,0,ɔ
1778660088.154484,2235,0,ɔ
1778660088.157668,2142,0,ɔ
1778660088.15834,2037,0,ɔ
1778660088.15928,2049,0,ɔ
1778660088.161382,2020,0,ɔ
1778660088.164027,1885,0,ɔ
1778660088.164347,1892,0,ɔ
1778660088.164581,2089,0,ɔ
1778660088.167051,2269,0,ɔ
1778660088.1683998,2249,0,ɔ
1778660088.1697412,2038,0,ɔ
1778660088.172433,1934,0,ɔ
1778660088.1788,2031,0,ɔ
1778660088.180691,2056,0,ɔ
1778660088.181111,1863,0,ɔ
1778660088.183685,1911,0,ɔ
1778660088.184982,2111,0,ɔ
1778660088.1904051,2247,0,ɔ
1778660088.190856,2054,0,ɔ
1778660088.191295,1950,0,ɔ
1778660088.191473,1941,0,ɔ
1778660088.19171,2093,0,ɔ
1778660088.194628,2001,0,ɔ
1778660088.195929,1876,0,ɔ
1778660088.198536,2168,0,ɔ
1778660088.199855,2308,0,ɔ
1778660088.20245,2027,0,ɔ
1778660088.203773,2020,0,ɔ
1778660088.2131572,1923,0,ɔ
1778660088.216251,2095,0,ɔ
1778660088.21737,2063,0,ɔ
1778660088.222508,1981,0,ɔ
1778660088.222944,2057,0,ɔ
1778660088.2254028,2177,0,ɔ
1778660088.225656,2151,0,ɔ
1778660088.225695,2049,0,ɔ
1778660088.225749,1910,0,ɔ
1778660088.225781,1968,0,ɔ
1778660088.225863,1957,0,ɔ
1778660088.2286541,1842,0,ɔ
1778660088.230106,1933,0,ɔ
1778660088.235712,2109,0,ɔ
1778660088.2388039,2378,0,ɔ
1778660088.2431161,2259,0,ɔ
1778660088.2455838,1874,0,ɔ
1778660088.245759,1882,0,ɔ
1778660088.248406,2065,0,ɔ
1778660088.24912,2128,0,ɔ
1778660088.2492821,1693,0,ɔ
1778660088.249662,1948,0,ɔ
1778660088.252251,2566,0,ɔ
1778660088.252328,2121,0,ɔ
1778660088.253752,1940,0,ɔ
1778660088.256323,2028,0,ɔ
1778660088.257718,2103,0,ɔ
1778660088.2603798,1990,0,ɔ
1778660088.2619112,1911,0,ɔ
1778660088.2713559,2168,0,ɔ
1778660088.271724,2269,0,ɔ
1778660088.274851,2146,0,ɔ
1778660088.2781482,1930,0,ɔ
1778660088.2813172,1916,0,ɔ
1778660088.281666,2057,0,ɔ
1778660088.281914,1923,0,ɔ
1778660088.282125,1958,0,ɔ
1778660088.284571,2106,0,ɔ
1778660088.284713,2023,0,ɔ
1778660088.284779,2155,0,ɔ
1778660088.28614,2233,0,ɔ
1778660088.287509,2046,0,ɔ
1778660088.3000598,2096,0,ɔ
1778660088.3010712,2119,0,ɔ
1778660088.301611,1944,0,ɔ
1778660088.305961,1884,0,ɔ
1778660088.3062909,1927,0,ɔ
1778660088.306417,2376,0,ɔ
1778660088.3067489,1962,0,ɔ
1778660088.30708,2019,0,ɔ
1778660088.3092852,2099,0,ɔ
1778660088.3095832,2058,0,ɔ
1778660088.30964,1933,0,ɔ
1778660088.312269,2046,0,ɔ
1778660088.3136141,2170,0,ɔ
1778660088.3162901,2182,0,ɔ
1778660088.317664,2103,0,ɔ
1778660088.3206558,1924,0,ɔ
1778660088.3261771,2038,0,ɔ
1778660088.328599,1885,0,ɔ
1778660088.329022,1968,0,ɔ
1778660088.330862,1908,0,ɔ
1778660088.333208,2084,0,ɔ
1778660088.3334122,2132,0,ɔ
1778660088.334381,2457,0,ɔ
1778660088.338685,2114,0,ɔ
1778660088.341344,2080,0,ɔ
1778660088.341494,2038,0,ɔ
1778660088.341569,2037,0,ɔ
1778660088.344089,1844,0,ɔ
1778660088.353823,1782,0,ɔ
1778660088.354229,2033,0,ɔ
1778660088.35439,2184,0,ɔ
1778660088.35593,2304,0,ɔ
1778660088.356842,2163,0,ɔ
1778660088.356925,2054,0,ɔ
1778660088.361003,1836,0,ɔ
1778660088.3635662,2001,0,ɔ
1778660088.363709,2041,0,ɔ
1778660088.364189,2350,0,ɔ
1778660088.366688,2438,0,ɔ
1778660088.368086,2086,0,ɔ
1778660088.369457,1658,0,ɔ
1778660088.372045,1931,0,ɔ
1778660088.3734558,2217,0,ɔ
1778660088.376089,1963,0,ɔ
1778660088.384017,1586,0,ɔ
1778660088.384269,1673,0,ɔ
1778660088.386073,2051,0,ɔ
1778660088.387033,2222,0,ɔ
1778660088.387562,2008,0,ɔ
1778660088.388061,1991,0,ɔ
1778660088.393109,2053,0,ɔ
1778660088.3936589,2158,0,ɔ
1778660088.393997,1930,0,ɔ
1778660088.3960419,1628,0,ɔ
1778660088.398539,1997,0,ɔ
1778660088.4002602,2404,0,ɔ
1778660088.40491,1952,0,ɔ
1778660088.406492,1870,0,ɔ
1778660088.407996,1889,0,ɔ
1778660088.4083982,2082,0,ɔ
1778660088.410861,2138,0,ɔ
1778660088.412738,1776,0,ɔ
1778660088.414204,1889,0,ɔ
1778660088.4165728,2160,0,ɔ
1778660088.418957,2145,0,ɔ
1778660088.420392,1947,0,ɔ
1778660088.421779,2028,0,ɔ
1778660088.424427,2038,0,ɔ
1778660088.425761,1708,0,ɔ
1778660088.428443,1860,0,ɔ
1778660088.433345,1938,0,ɔ
1778660088.43392,2309,0,ɔ
1778660088.4344351,2379,0,ɔ
1778660088.437941,1911,0,ɔ
1778660088.440395,1743,0,ɔ
1778660088.4409301,1801,0,ɔ
1778660088.447534,2075,0,ɔ
1778660088.447604,1807,0,ɔ
1778660088.447673,1671,0,ɔ
1778660088.447766,1986,0,ɔ
1778660088.4509408,2306,0,ɔ
1778660088.4569302,2126,0,ɔ
1778660088.457506,1956,0,ɔ
1778660088.4580522,2029,0,ɔ
1778660088.460165,2318,0,ɔ
1778660088.460377,2097,0,ɔ
1778660088.462782,1624,0,ɔ
1778660088.463986,1870,0,ɔ
1778660088.466395,2271,0,ɔ
1778660088.468768,2185,0,ɔ
1778660088.470597,1880,0,ɔ
1778660088.471901,1742,0,ɔ
1778660088.474454,1933,0,ɔ
1778660088.4757602,1899,0,ɔ
1778660088.4783201,1647,0,ɔ
1778660088.479611,1837,0,ɔ
1778660088.4859571,2286,0,ɔ
1778660088.486809,2549,0,ɔ
1778660088.487242,1936,0,ɔ
1778660088.4889789,1850,0,ɔ
1778660088.491054,2100,0,ɔ
1778660088.492809,2110,0,ɔ
1778660088.494602,1706,0,ɔ
1778660088.4969332,1764,0,ɔ
1778660088.4991481,2152,0,ɔ
1778660088.500455,2160,0,ɔ
1778660088.501749,2022,0,ɔ
1778660088.50784,2085,0,ɔ
1778660088.5083342,1808,0,ɔ
1778660088.508748,2063,0,ɔ
1778660088.5108202,2091,0,ɔ
1778660088.5126898,1854,0,ɔ
1778660088.514721,1938,0,ɔ
1778660088.516237,2146,0,ɔ
1778660088.5185761,2498,0,ɔ
1778660088.5203671,1862,0,ɔ
1778660088.521673,1605,0,ɔ
1778660088.524239,1801,0,ɔ
1778660088.52553,2070,0,ɔ
1778660088.528079,1866,0,ɔ
1778660088.5293682,1776,0,ɔ
1778660088.534993,2223,0,ɔ
1778660088.535393,2216,0,ɔ
1778660088.5362282,1896,0,ɔ
1778660088.5379488,1901,0,ɔ
1778660088.5398982,2075,0,ɔ
1778660088.5419798,2319,0,ɔ
1778660088.545908,1903,0,ɔ
1778660088.5460851,1567,0,ɔ
1778660088.5482821,1985,0,ɔ
1778660088.549578,2395,0,ɔ
1778660088.55215,2066,0,ɔ
1778660088.556305,1779,0,ɔ
1778660088.557087,2260,0,ɔ
1778660088.558945,2082,0,ɔ
1778660088.560525,1875,0,ɔ
1778660088.562489,1833,0,ɔ
1778660088.564129,2140,0,ɔ
1778660088.566304,2430,0,ɔ
1778660088.56799,2136,0,ɔ
1778660088.569341,1917,0,ɔ
1778660088.5718951,1939,0,ɔ
1778660088.5744572,1918,0,ɔ
1778660088.5757499,1885,0,ɔ
1778660088.582081,1982,0,ɔ
1778660088.5827808,1998,0,ɔ
1778660088.5836082,2078,0,ɔ
1778660088.584815,2111,0,ɔ
1778660088.58626,2297,0,ɔ
1778660088.587849,2039,0,ɔ
1778660088.590018,1936,0,ɔ
1778660088.592204,2015,0,ɔ
1778660088.5942001,1991,0,ɔ
1778660088.595497,1854,0,ɔ
1778660088.598044,2083,0,ɔ
1778660088.601907,2279,0,ɔ
1778660088.602676,2200,0,ɔ
1778660088.6048372,2023,0,ɔ
1778660088.6069791,1754,0,ɔ
1778660088.608552,1998,0,ɔ
1778660088.61203,2050,0,ɔ
1778660088.6123579,1896,0,ɔ
1778660088.614294,2257,0,ɔ
1778660088.615584,2124,0,ɔ
1778660088.6181371,2129,0,ɔ
1778660088.619426,2147,0,ɔ
1778660088.621972,2066,0,ɔ
1778660088.623374,1976,0,ɔ
1778660088.628831,1882,0,ɔ
1778660088.629357,1789,0,ɔ
1778660088.630141,2034,0,ɔ
1778660088.632874,2159,0,ɔ
1778660088.635239,2274,0,ɔ
1778660088.639445,2069,0,ɔ
1778660088.6417978,2060,0,ɔ
1778660088.641859,1958,0,ɔ
1778660088.6419451,2040,0,ɔ
1778660088.643337,1975,0,ɔ
1778660088.650091,2015,0,ɔ
1778660088.6512918,2108,0,ɔ
1778660088.651364,2281,0,ɔ
1778660088.6517818,2031,0,ɔ
1778660088.654452,2069,0,ɔ
1778660088.656335,2016,0,ɔ
1778660088.658002,2049,0,ɔ
1778660088.6602619,1826,0,ɔ
1778660088.6619148,1732,0,ɔ
1778660088.663315,1989,0,ɔ
1778660088.665865,2284,0,ɔ
1778660088.66842,2380,0,ɔ
1778660088.669707,2020,0,ɔ
1778660088.675725,1828,0,ɔ
1778660088.6761441,1959,0,ɔ
1778660088.676586,2208,0,ɔ
1778660088.678022,1917,0,ɔ
1778660088.6798432,1890,0,ɔ
1778660088.681681,2101,0,ɔ
1778660088.684948,2368,0,ɔ
1778660088.686847,2310,0,ɔ
1778660088.6881459,1865,0,ɔ
1778660088.689434,1671,0,ɔ
1778660088.691979,1932,0,ɔ
1778660088.6933272,2081,0,ɔ
1778660088.695922,2021,0,ɔ
1778660088.6995552,1894,0,ɔ
1778660088.699876,2250,0,ɔ
1778660088.7020102,2041,0,ɔ
1778660088.703709,1838,0,ɔ
1778660088.705456,1912,0,ɔ
1778660088.708833,2098,0,ɔ
1778660088.710886,2033,0,ɔ
1778660088.7121851,1906,0,ɔ
1778660088.713471,2014,0,ɔ
1778660088.716029,2265,0,ɔ
1778660088.717321,2216,0,ɔ
1778660088.723574,2062,0,ɔ
1778660088.724267,1948,0,ɔ
1778660088.7258391,2081,0,ɔ
1778660088.727477,2023,0,ɔ
1778660088.728141,1758,0,ɔ
1778660088.7327192,1855,0,ɔ
1778660088.732898,2147,0,ɔ
1778660088.7348611,2389,0,ɔ
1778660088.736154,2081,0,ɔ
1778660088.737443,2108,0,ɔ
1778660088.739944,1991,0,ɔ
1778660088.74239,2098,0,ɔ
1778660088.743616,1932,0,ɔ
1778660088.7473018,1916,0,ɔ
1778660088.7476768,2089,0,ɔ
1778660088.749632,2255,0,ɔ
1778660088.752485,2049,0,ɔ
1778660088.754247,2058,0,ɔ
1778660088.756491,1952,0,ɔ
1778660088.758524,1975,0,ɔ
1778660088.759816,2160,0,ɔ
1778660088.762382,1870,0,ɔ
1778660088.763669,1987,0,ɔ
1778660088.766211,2169,0,ɔ
1778660088.767497,2212,0,ɔ
1778660088.771714,2129,0,ɔ
1778660088.772822,1884,0,ɔ
1778660088.774173,1944,0,ɔ
1778660088.776,2192,0,ɔ
1778660088.777735,1900,0,ɔ
1778660088.781114,1997,0,ɔ
1778660088.783094,2384,0,ɔ
1778660088.78439,2392,0,ɔ
1778660088.785677,1874,0,ɔ
1778660088.788238,1969,0,ɔ
1778660088.78954,2009,0,ɔ
1778660088.7951932,2168,0,ɔ
1778660088.7956638,1933,0,ɔ
1778660088.79575,1647,0,ɔ
1778660088.797706,2124,0,ɔ
1778660088.801118,2455,0,ɔ
1778660088.802434,2168,0,ɔ
1778660088.8046021,1982,0,ɔ
1778660088.806706,1913,0,ɔ
1778660088.807997,2057,0,ɔ
1778660088.809296,2045,0,ɔ
1778660088.8118389,1957,0,ɔ
1778660088.81321,2063,0,ɔ
1778660088.8186722,2340,0,ɔ
1778660088.8194602,2146,0,ɔ
1778660088.819541,2292,0,ɔ
1778660088.8215811,2186,0,ɔ
1778660088.8246999,1883,0,ɔ
1778660088.826318,1911,0,ɔ
1778660088.8286378,1790,0,ɔ
1778660088.830143,2028,0,ɔ
1778660088.831434,2246,0,ɔ
1778660088.8339798,2402,0,ɔ
1778660088.835271,1872,0,ɔ
1778660088.837821,1835,0,ɔ
1778660088.839208,1988,0,ɔ
1778660088.8437,2157,0,ɔ
1778660088.8437781,1973,0,ɔ
1778660088.845598,1916,0,ɔ
1778660088.847457,2152,0,ɔ
1778660088.851945,2382,0,ɔ
1778660088.852035,2229,0,ɔ
1778660088.853547,1946,0,ɔ
1778660088.8560991,1828,0,ɔ
1778660088.857389,2137,0,ɔ
1778660088.859894,1975,0,ɔ
1778660088.861184,1903,0,ɔ
1778660088.866264,2049,0,ɔ
1778660088.866621,2335,0,ɔ
1778660088.8685372,2162,0,ɔ
1778660088.87058,1921,0,ɔ
1778660088.873172,2029,0,ɔ
1778660088.8752341,2189,0,ɔ
1778660088.875305,1994,0,ɔ
1778660088.878083,1907,0,ɔ
1778660088.879379,2000,0,ɔ
1778660088.8817742,2112,0,ɔ
1778660088.883248,2223,0,ɔ
1778660088.885729,2091,0,ɔ
1778660088.890058,2067,0,ɔ
1778660088.8904908,1961,0,ɔ
1778660088.892236,2098,0,ɔ
1778660088.893981,1958,0,ɔ
1778660088.895652,1935,0,ɔ
1778660088.898957,2171,0,ɔ
1778660088.900741,2275,0,ɔ
1778660088.90206,2146,0,ɔ
1778660088.9033768,2107,0,ɔ
1778660088.90594,1982,0,ɔ
1778660088.907243,1904,0,ɔ
1778660088.913258,2018,0,ɔ
1778660088.9140558,1950,0,ɔ
1778660088.914426,2102,0,ɔ
1778660088.9159522,2116,0,ɔ
1778660088.918014,2133,0,ɔ
1778660088.920664,2156,0,ɔ
1778660088.923095,1833,0,ɔ
1778660088.923339,2062,0,ɔ
1778660088.926004,2077,0,ɔ
1778660088.927299,1810,0,ɔ
1778660088.934106,2001,0,ɔ
1778660088.93594,2188,0,ɔ
1778660088.936165,2324,0,ɔ
1778660088.936291,2158,0,ɔ
1778660088.938421,1995,0,ɔ
1778660088.941131,1962,0,ɔ
1778660088.941329,2082,0,ɔ
1778660088.943506,2082,0,ɔ
1778660088.946313,1945,0,ɔ
1778660088.9476008,2056,0,ɔ
1778660088.950145,2332,0,ɔ
1778660088.9514291,2100,0,ɔ
1778660088.954141,1994,0,ɔ
1778660088.958935,1943,0,ɔ
1778660088.960163,2058,0,ɔ
1778660088.962353,1964,0,ɔ
1778660088.9627688,1895,0,ɔ
1778660088.965269,2066,0,ɔ
1778660088.967516,2359,0,ɔ
1778660088.967675,2288,0,ɔ
1778660088.96962,1985,0,ɔ
1778660088.9721842,1839,0,ɔ
1778660088.973473,2089,0,ɔ
1778660088.9760551,2054,0,ɔ
1778660088.977397,1989,0,ɔ
1778660088.983354,1923,0,ɔ
1778660088.983788,2093,0,ɔ
1778660088.984204,2252,0,ɔ
1778660088.985703,2023,0,ɔ
1778660088.987154,1977,0,ɔ
1778660088.990377,2001,0,ɔ
1778660088.9924722,2080,0,ɔ
1778660088.994634,1908,0,ɔ
1778660088.9959302,1863,0,ɔ
1778660088.99726,2109,0,ɔ
1778660088.9997702,2349,0,ɔ
1778660089.002338,2164,0,ɔ
1778660089.007371,2023,0,ɔ
1778660089.007436,1934,0,ɔ
1778660089.0097191,2040,0,ɔ
1778660089.0115771,2031,0,ɔ
1778660089.011675,1912,0,ɔ
1778660089.014978,2037,0,ɔ
1778660089.017407,2251,0,ɔ
1778660089.017708,2226,0,ɔ
1778660089.019407,2075,0,ɔ
1778660089.021972,2013,0,ɔ
1778660089.023267,2020,0,ɔ
1778660089.027348,2069,0,ɔ
1778660089.0300171,1922,0,ɔ
1778660089.0301828,1955,0,ɔ
1778660089.032085,2185,0,ɔ
1778660089.035369,2262,0,ɔ
1778660089.035577,2029,0,ɔ
1778660089.037895,2067,0,ɔ
1778660089.039537,2046,0,ɔ
1778660089.042101,1968,0,ɔ
1778660089.043404,1986,0,ɔ
1778660089.0459561,1989,0,ɔ
1778660089.047242,2099,0,ɔ
1778660089.05273,2337,0,ɔ
1778660089.053117,2106,0,ɔ
1778660089.053211,2069,0,ɔ
1778660089.056415,2032,0,ɔ
1778660089.058079,2035,0,ɔ
1778660089.061548,1992,0,ɔ
1778660089.061645,1828,0,ɔ
1778660089.063495,2022,0,ɔ
1778660089.0660439,2359,0,ɔ
1778660089.0673358,2269,0,ɔ
1778660089.0698822,1983,0,ɔ
1778660089.071167,1976,0,ɔ
1778660089.075794,2059,0,ɔ
1778660089.0761511,2081,0,ɔ
1778660089.077924,1957,0,ɔ
1778660089.079364,1980,0,ɔ
1778660089.0813692,2196,0,ɔ
1778660089.0846982,2320,0,ɔ
1778660089.0866141,2109,0,ɔ
1778660089.087904,1959,0,ɔ
1778660089.089188,1953,0,ɔ
1778660089.091743,2150,0,ɔ
1778660089.093032,2005,0,ɔ
1778660089.098907,1969,0,ɔ
1778660089.099277,2129,0,ɔ
1778660089.0995939,2336,0,ɔ
1778660089.1012108,2079,0,ɔ
1778660089.103849,2008,0,ɔ
1778660089.10568,2031,0,ɔ
1778660089.107886,2061,0,ɔ
1778660089.109429,2000,0,ɔ
1778660089.111983,1890,0,ɔ
1778660089.113282,2038,0,ɔ
1778660089.1158762,2311,0,ɔ
1778660089.117207,2228,0,ɔ
1778660089.122901,2045,0,ɔ
1778660089.1236439,1984,0,ɔ
1778660089.1237419,2130,0,ɔ
1778660089.125325,2051,0,ɔ
1778660089.128442,1840,0,ɔ
1778660089.129983,1989,0,ɔ
1778660089.132115,2171,0,ɔ
1778660089.133913,2270,0,ɔ
1778660089.135394,2150,0,ɔ
1778660089.137909,2004,0,ɔ
1778660089.139206,2001,0,ɔ
1778660089.142335,2083,0,ɔ
1778660089.143724,1906,0,ɔ
1778660089.147676,1922,0,ɔ
1778660089.14875,2189,0,ɔ
1778660089.151638,2315,0,ɔ
1778660089.152265,2122,0,ɔ
1778660089.157045,2083,0,ɔ
1778660089.157223,2013,0,ɔ
1778660089.157365,2082,0,ɔ
1778660089.16011,1995,0,ɔ
1778660089.1613991,1910,0,ɔ
1778660089.163952,2020,0,ɔ
1778660089.1652539,2248,0,ɔ
1778660089.171093,2178,0,ɔ
1778660089.171537,2009,0,ɔ
1778660089.1718888,1901,0,ɔ
1778660089.1735501,2067,0,ɔ
1778660089.175197,2055,0,ɔ
1778660089.177981,1925,0,ɔ
1778660089.180174,2004,0,ɔ
1778660089.1816618,2301,0,ɔ
1778660089.183166,2337,0,ɔ
1778660089.185728,2110,0,ɔ
1778660089.187028,1988,0,ɔ
1778660089.189572,1989,0,ɔ
1778660089.1952178,2106,0,ɔ
1778660089.196639,1915,0,ɔ
1778660089.196793,1898,0,ɔ
1778660089.198483,2068,0,ɔ
1778660089.200162,2243,0,ɔ
1778660089.2014039,2177,0,ɔ
1778660089.203508,1995,0,ɔ
1778660089.205343,1928,0,ɔ
1778660089.207802,2053,0,ɔ
1778660089.20909,1959,0,ɔ
1778660089.211639,1860,0,ɔ
1778660089.216993,2022,0,ɔ
1778660089.217411,2251,0,ɔ
1778660089.217752,2161,0,ɔ
1778660089.219595,2050,0,ɔ
1778660089.22261,2019,0,ɔ
1778660089.226178,2084,0,ɔ
1778660089.226282,2049,0,ɔ
1778660089.228062,1910,0,ɔ
1778660089.2293508,2003,0,ɔ
1778660089.231894,2210,0,ɔ
1778660089.233184,2338,0,ɔ
1778660089.235726,2086,0,ɔ
1778660089.237011,1969,0,ɔ
1778660089.24372,2004,0,ɔ
1778660089.2485042,2064,0,ɔ
1778660089.250828,1938,0,ɔ
1778660089.25113,1927,0,ɔ
1778660089.251287,2032,0,ɔ
1778660089.25141,2275,0,ɔ
1778660089.251513,2239,0,ɔ
1778660089.254122,1952,0,ɔ
1778660089.2554119,1928,0,ɔ
1778660089.257869,2067,0,ɔ
1778660089.2591538,2004,0,ɔ
1778660089.261717,1972,0,ɔ
1778660089.265124,2235,0,ɔ
1778660089.2655082,2370,0,ɔ
1778660089.267643,2218,0,ɔ
1778660089.2694452,1962,0,ɔ
1778660089.272254,1893,0,ɔ
1778660089.274457,2040,0,ɔ
1778660089.276331,2030,0,ɔ
1778660089.277618,1939,0,ɔ
1778660089.280166,1904,0,ɔ
1778660089.28146,2114,0,ɔ
1778660089.284008,2350,0,ɔ
1778660089.289005,2086,0,ɔ
1778660089.289115,2010,0,ɔ
1778660089.289494,1934,0,ɔ
1778660089.29206,2031,0,ɔ
1778660089.294116,1836,0,ɔ
1778660089.297482,2029,0,ɔ
1778660089.297643,2172,0,ɔ
1778660089.299422,2244,0,ɔ
1778660089.301777,1935,0,ɔ
1778660089.303066,2039,0,ɔ
1778660089.305609,2009,0,ɔ
1778660089.31118,2178,0,ɔ
1778660089.31163,2173,0,ɔ
1778660089.312021,1933,0,ɔ
1778660089.313584,1989,0,ɔ
1778660089.315727,2330,0,ɔ
1778660089.317951,2291,0,ɔ
1778660089.32005,2118,0,ɔ
1778660089.321861,2018,0,ɔ
1778660089.323127,1871,0,ɔ
1778660089.325672,1987,0,ɔ
1778660089.326956,1909,0,ɔ
1778660089.329489,2019,0,ɔ
1778660089.333814,2095,0,ɔ
1778660089.3345122,2266,0,ɔ
1778660089.3361092,2152,0,ɔ
1778660089.3380191,2006,0,ɔ
1778660089.3405561,1949,0,ɔ
1778660089.342552,2115,0,ɔ
1778660089.344275,1973,0,ɔ
1778660089.345567,1879,0,ɔ
1778660089.346953,2050,0,ɔ
1778660089.349514,2351,0,ɔ
1778660089.352095,2201,0,ɔ
1778660089.356034,2075,0,ɔ
1778660089.356458,2045,0,ɔ
1778660089.3581529,2076,0,ɔ
1778660089.359818,2076,0,ɔ
1778660089.361443,1901,0,ɔ
1778660089.364696,2049,0,ɔ
1778660089.366512,2299,0,ɔ
1778660089.3678029,2229,0,ɔ
1778660089.369088,2003,0,ɔ
1778660089.371645,2070,0,ɔ
1778660089.372936,2076,0,ɔ
1778660089.378707,1976,0,ɔ
1778660089.379374,1995,0,ɔ
1778660089.3797572,2111,0,ɔ
1778660089.382667,2227,0,ɔ
1778660089.385194,2282,0,ɔ
1778660089.387212,2053,0,ɔ
1778660089.3873448,1992,0,ɔ
1778660089.390006,2064,0,ɔ
1778660089.3913012,2096,0,ɔ
1778660089.393845,1946,0,ɔ
1778660089.395127,1950,0,ɔ
1778660089.4004962,2167,0,ɔ
1778660089.40112,2399,0,ɔ
1778660089.402656,2199,0,ɔ
1778660089.404516,2151,0,ɔ
1778660089.407008,1970,0,ɔ
1778660089.4071,1968,0,ɔ
1778660089.409054,1962,0,ɔ
1778660089.411732,1940,0,ɔ
1778660089.413019,2099,0,ɔ
1778660089.41556,2305,0,ɔ
1778660089.4169369,2231,0,ɔ
1778660089.4223711,2013,0,ɔ
1778660089.423312,1952,0,ɔ
1778660089.4243488,2138,0,ɔ
1778660089.426239,2147,0,ɔ
1778660089.4287791,1967,0,ɔ
1778660089.4308631,1963,0,ɔ
1778660089.430948,2277,0,ɔ
1778660089.433551,2407,0,ɔ
1778660089.434912,2094,0,ɔ
1778660089.4374669,1983,0,ɔ
1778660089.440011,2052,0,ɔ
1778660089.444433,2109,0,ɔ
1778660089.44509,1960,0,ɔ
1778660089.4454432,1997,0,ɔ
1778660089.448583,2170,0,ɔ
1778660089.450134,2287,0,ɔ
1778660089.453212,2170,0,ɔ
1778660089.4533608,2094,0,ɔ
1778660089.455915,2032,0,ɔ
1778660089.4572,2144,0,ɔ
1778660089.4597409,2087,0,ɔ
1778660089.461023,2017,0,ɔ
1778660089.463746,2001,0,ɔ
1778660089.467181,2241,0,ɔ
1778660089.4681442,2205,0,ɔ
1778660089.4706151,2068,0,ɔ
1778660089.472436,1938,0,ɔ
1778660089.475567,2022,0,ɔ
1778660089.475738,1960,0,ɔ
1778660089.4774091,1931,0,ɔ
1778660089.480015,2029,0,ɔ
1778660089.481298,2277,0,ɔ
1778660089.483856,2274,0,ɔ
1778660089.48514,2063,0,ɔ
1778660089.490279,2002,0,ɔ
1778660089.4905999,2050,0,ɔ
1778660089.493181,2088,0,ɔ
1778660089.493595,1945,0,ɔ
1778660089.496473,1927,0,ɔ
1778660089.498552,2113,0,ɔ
1778660089.500291,2304,0,ɔ
1778660089.5015302,2138,0,ɔ
1778660089.502818,2031,0,ɔ
1778660089.505365,1938,0,ɔ
1778660089.507908,2115,0,ɔ
1778660089.512596,2025,0,ɔ
1778660089.513303,2083,0,ɔ
1778660089.5146308,2066,0,ɔ
1778660089.516317,2197,0,ɔ
1778660089.518998,2147,0,ɔ
1778660089.519125,2075,0,ɔ
1778660089.521135,2006,0,ɔ
1778660089.524029,2022,0,ɔ
1778660089.525315,1997,0,ɔ
1778660089.527856,1915,0,ɔ
1778660089.529137,1995,0,ɔ
1778660089.5346298,2194,0,ɔ
1778660089.534674,2276,0,ɔ
1778660089.536737,2053,0,ɔ
1778660089.5383098,1960,0,ɔ
1778660089.5399559,2020,0,ɔ
1778660089.543296,2069,0,ɔ
1778660089.5450392,1934,0,ɔ
1778660089.5451672,1889,0,ɔ
1778660089.547725,2078,0,ɔ
1778660089.549022,2362,0,ɔ
1778660089.551577,2201,0,ɔ
1778660089.552862,2044,0,ɔ
1778660089.557931,2002,0,ɔ
1778660089.558657,2138,0,ɔ
1778660089.561549,2110,0,ɔ
1778660089.561891,1909,0,ɔ
1778660089.5641851,2000,0,ɔ
1778660089.566234,2254,0,ɔ
1778660089.568005,2215,0,ɔ
1778660089.569325,2024,0,ɔ
1778660089.570805,1965,0,ɔ
1778660089.573281,2027,0,ɔ
1778660089.575828,1982,0,ɔ
1778660089.580192,1896,0,ɔ
1778660089.581038,2011,0,ɔ
1778660089.58222,2191,0,ɔ
1778660089.583644,2273,0,ɔ
1778660089.585189,2092,0,ɔ
1778660089.588147,2006,0,ɔ
1778660089.589959,1958,0,ɔ
1778660089.591242,2091,0,ɔ
1778660089.593906,1939,0,ɔ
1778660089.595197,1972,0,ɔ
1778660089.597735,2152,0,ɔ
1778660089.602311,2359,0,ɔ
1778660089.602398,2115,0,ɔ
1778660089.6045928,2049,0,ɔ
1778660089.606449,1979,0,ɔ
1778660089.607938,2051,0,ɔ
1778660089.609826,2038,0,ɔ
1778660089.611567,1926,0,ɔ
1778660089.6128771,2062,0,ɔ
1778660089.6154299,2247,0,ɔ
1778660089.616899,2215,0,ɔ
1778660089.619454,2085,0,ɔ
1778660089.622943,1982,0,ɔ
1778660089.623306,2062,0,ɔ
1778660089.62548,2072,0,ɔ
1778660089.627072,1885,0,ɔ
1778660089.6297832,1937,0,ɔ
1778660089.631684,2176,0,ɔ
1778660089.6331148,2292,0,ɔ
1778660089.635664,2066,0,ɔ
1778660089.6369479,1999,0,ɔ
1778660089.639489,2042,0,ɔ
1778660089.640813,2076,0,ɔ
1778660089.645816,1976,0,ɔ
1778660089.647131,1967,0,ɔ
1778660089.647259,2133,0,ɔ
1778660089.6493561,2347,0,ɔ
1778660089.651561,2121,0,ɔ
1778660089.653397,2025,0,ɔ
1778660089.6551502,2046,0,ɔ
1778660089.65771,2099,0,ɔ
1778660089.6589959,1930,0,ɔ
1778660089.661537,1896,0,ɔ
