timestamp,ch1,ch2,label
1774424839.3398778,1941,0,ɔ_s
1774424839.343358,2067,0,ɔ_s
1774424839.3465102,2076,0,ɔ_s
1774424839.349599,1962,0,ɔ_s
1774424839.352129,1944,0,ɔ_s
1774424839.354702,1930,0,ɔ_s
1774424839.357671,1989,0,ɔ_s
1774424839.360682,2048,0,ɔ_s
1774424839.36543,2070,0,ɔ_s
1774424839.366921,1938,0,ɔ_s
1774424839.369837,1928,0,ɔ_s
1774424839.374084,1960,0,ɔ_s
1774424839.376537,2066,0,ɔ_s
1774424839.3791091,2049,0,ɔ_s
1774424839.381715,1965,0,ɔ_s
1774424839.3846881,1945,0,ɔ_s
1774424839.390708,1921,0,ɔ_s
1774424839.3910668,1988,0,ɔ_s
1774424839.394593,2050,0,ɔ_s
1774424839.3982239,2064,0,ɔ_s
1774424839.39998,1950,0,ɔ_s
1774424839.4027,1958,0,ɔ_s
1774424839.40567,1933,0,ɔ_s
1774424839.411716,2011,0,ɔ_s
1774424839.412394,2049,0,ɔ_s
1774424839.415105,2014,0,ɔ_s
1774424839.417922,1936,0,ɔ_s
1774424839.421004,1915,0,ɔ_s
1774424839.423577,1964,0,ɔ_s
1774424839.426564,2086,0,ɔ_s
1774424839.432847,2077,0,ɔ_s
1774424839.4332721,1929,0,ɔ_s
1774424839.4362361,1918,0,ɔ_s
1774424839.4385788,1917,0,ɔ_s
1774424839.441602,2030,0,ɔ_s
1774424839.4446132,2054,0,ɔ_s
1774424839.447587,2047,0,ɔ_s
1774424839.452349,2044,0,ɔ_s
1774424839.4539258,1967,0,ɔ_s
1774424839.458661,1880,0,ɔ_s
1774424839.460219,2033,0,ɔ_s
1774424839.4627998,2027,0,ɔ_s
1774424839.465596,1995,0,ɔ_s
1774424839.4685519,2042,0,ɔ_s
1774424839.472509,1851,0,ɔ_s
1774424839.474617,1985,0,ɔ_s
1774424839.478622,2077,0,ɔ_s
1774424839.480685,2023,0,ɔ_s
1774424839.483623,1887,0,ɔ_s
1774424839.4866,1989,0,ɔ_s
1774424839.4925382,2004,0,ɔ_s
1774424839.493215,2046,0,ɔ_s
1774424839.496202,1982,0,ɔ_s
1774424839.498795,1953,0,ɔ_s
1774424839.501791,1982,0,ɔ_s
1774424839.504606,1910,0,ɔ_s
1774424839.5075788,1967,0,ɔ_s
1774424839.512984,2101,0,ɔ_s
1774424839.513922,2036,0,ɔ_s
1774424839.5167491,1903,0,ɔ_s
1774424839.520941,1924,0,ɔ_s
1774424839.522588,2032,0,ɔ_s
1774424839.525634,2040,0,ɔ_s
1774424839.528555,2000,0,ɔ_s
1774424839.533412,1978,0,ɔ_s
1774424839.5353448,1989,0,ɔ_s
1774424839.5381188,1896,0,ɔ_s
1774424839.541064,1946,0,ɔ_s
1774424839.543628,2058,0,ɔ_s
1774424839.5465999,2117,0,ɔ_s
1774424839.549587,1911,0,ɔ_s
1774424839.554445,1945,0,ɔ_s
1774424839.5560472,1978,0,ɔ_s
1774424839.5601301,2075,0,ɔ_s
1774424839.56227,1996,0,ɔ_s
1774424839.564815,2006,0,ɔ_s
1774424839.5675619,1975,0,ɔ_s
1774424839.570602,1996,0,ɔ_s
1774424839.5747619,1918,0,ɔ_s
1774424839.5778718,2020,0,ɔ_s
1774424839.5805,2018,0,ɔ_s
1774424839.5826292,1919,0,ɔ_s
1774424839.585592,1942,0,ɔ_s
1774424839.5885901,1955,0,ɔ_s
1774424839.594891,2031,0,ɔ_s
1774424839.5950022,2079,0,ɔ_s
1774424839.5985222,2056,0,ɔ_s
1774424839.600872,1966,0,ɔ_s
1774424839.603864,1927,0,ɔ_s
1774424839.606564,1932,0,ɔ_s
1774424839.609577,2049,0,ɔ_s
1774424839.615371,2075,0,ɔ_s
1774424839.616019,1957,0,ɔ_s
1774424839.619148,1935,0,ɔ_s
1774424839.622127,1910,0,ɔ_s
1774424839.624754,2029,0,ɔ_s
1774424839.62755,2095,0,ɔ_s
1774424839.630605,2048,0,ɔ_s
1774424839.636384,1907,0,ɔ_s
1774424839.637011,1919,0,ɔ_s
1774424839.639669,1930,0,ɔ_s
1774424839.64269,2031,0,ɔ_s
1774424839.6456058,2052,0,ɔ_s
1774424839.6485891,1974,0,ɔ_s
1774424839.651554,1997,0,ɔ_s
1774424839.6567192,1958,0,ɔ_s
1774424839.658335,1983,0,ɔ_s
1774424839.6621828,2056,0,ɔ_s
1774424839.6643012,2045,0,ɔ_s
1774424839.6668532,1932,0,ɔ_s
1774424839.669591,1930,0,ɔ_s
1774424839.6725729,1935,0,ɔ_s
1774424839.677357,2050,0,ɔ_s
1774424839.679001,2074,0,ɔ_s
1774424839.681751,2022,0,ɔ_s
1774424839.68483,1948,0,ɔ_s
1774424839.6875892,1900,0,ɔ_s
1774424839.6906,1975,0,ɔ_s
1774424839.6935968,2061,0,ɔ_s
1774424839.696827,2050,0,ɔ_s
1774424839.700566,1928,0,ɔ_s
1774424839.7028239,1952,0,ɔ_s
1774424839.705865,1979,0,ɔ_s
1774424839.7085938,2054,0,ɔ_s
1774424839.7116008,2062,0,ɔ_s
1774424839.715391,2011,0,ɔ_s
1774424839.718409,1935,0,ɔ_s
1774424839.721257,1890,0,ɔ_s
1774424839.724042,1954,0,ɔ_s
1774424839.72667,2069,0,ɔ_s
1774424839.729554,2078,0,ɔ_s
1774424839.732607,1957,0,ɔ_s
1774424839.7391071,1950,0,ɔ_s
1774424839.739501,1938,0,ɔ_s
1774424839.742068,2021,0,ɔ_s
1774424839.744997,2060,0,ɔ_s
1774424839.747673,2015,0,ɔ_s
1774424839.750582,1916,0,ɔ_s
1774424839.753432,1930,0,ɔ_s
1774424839.758623,1972,0,ɔ_s
1774424839.7604392,2086,0,ɔ_s
1774424839.762507,2071,0,ɔ_s
1774424839.766667,1935,0,ɔ_s
1774424839.7692108,1953,0,ɔ_s
1774424839.7717671,1948,0,ɔ_s
1774424839.7744231,1989,0,ɔ_s
1774424839.779186,2035,0,ɔ_s
1774424839.780812,2048,0,ɔ_s
1774424839.783506,1931,0,ɔ_s
1774424839.786557,1933,0,ɔ_s
1774424839.7894568,1952,0,ɔ_s
1774424839.7932649,2084,0,ɔ_s
1774424839.795902,2123,0,ɔ_s
1774424839.7999291,1925,0,ɔ_s
1774424839.802798,1931,0,ɔ_s
1774424839.8054998,1938,0,ɔ_s
1774424839.8077922,2093,0,ɔ_s
1774424839.8104892,1995,0,ɔ_s
1774424839.813462,2025,0,ɔ_s
1774424839.816501,1945,0,ɔ_s
1774424839.8195882,1884,0,ɔ_s
1774424839.822936,1931,0,ɔ_s
1774424839.8259032,2052,0,ɔ_s
1774424839.828547,2102,0,ɔ_s
1774424839.8314629,1986,0,ɔ_s
1774424839.8344362,1908,0,ɔ_s
1774424839.840375,1915,0,ɔ_s
1774424839.841266,1997,0,ɔ_s
1774424839.843992,2021,0,ɔ_s
1774424839.84725,2052,0,ɔ_s
1774424839.8498921,1952,0,ɔ_s
1774424839.852444,1980,0,ɔ_s
1774424839.855453,1924,0,ɔ_s
1774424839.860667,2015,0,ɔ_s
1774424839.8625011,2103,0,ɔ_s
1774424839.8644989,2051,0,ɔ_s
1774424839.8685482,1883,0,ɔ_s
1774424839.8711061,1972,0,ɔ_s
1774424839.873644,1949,0,ɔ_s
1774424839.8764749,2039,0,ɔ_s
1774424839.880909,2023,0,ɔ_s
1774424839.882806,2005,0,ɔ_s
1774424839.885602,2025,0,ɔ_s
1774424839.888818,1872,0,ɔ_s
1774424839.891453,1963,0,ɔ_s
1774424839.894443,2092,0,ɔ_s
1774424839.897463,2050,0,ɔ_s
1774424839.9014342,1893,0,ɔ_s
1774424839.904276,1888,0,ɔ_s
1774424839.90722,2017,0,ɔ_s
1774424839.9094589,2082,0,ɔ_s
1774424839.912446,1993,0,ɔ_s
1774424839.9154298,1929,0,ɔ_s
1774424839.921839,1923,0,ɔ_s
1774424839.922199,1914,0,ɔ_s
1774424839.9250538,1994,0,ɔ_s
1774424839.9282932,2074,0,ɔ_s
1774424839.930871,2064,0,ɔ_s
1774424839.9334579,1949,0,ɔ_s
1774424839.936456,1935,0,ɔ_s
1774424839.942394,1956,0,ɔ_s
1774424839.943302,2076,0,ɔ_s
1774424839.9458492,2065,0,ɔ_s
1774424839.9490392,1969,0,ɔ_s
1774424839.951675,1962,0,ɔ_s
1774424839.954426,1936,0,ɔ_s
1774424839.9574652,1982,0,ɔ_s
1774424839.962569,2038,0,ɔ_s
1774424839.9644392,2068,0,ɔ_s
1774424839.9683251,1922,0,ɔ_s
1774424839.970479,1941,0,ɔ_s
1774424839.973027,1957,0,ɔ_s
1774424839.975581,2047,0,ɔ_s
1774424839.978443,2066,0,ɔ_s
1774424839.98295,1991,0,ɔ_s
1774424839.984874,1940,0,ɔ_s
1774424839.989621,1918,0,ɔ_s
1774424839.991128,1993,0,ɔ_s
1774424839.993671,2046,0,ɔ_s
1774424839.9964359,2060,0,ɔ_s
1774424839.9994571,1947,0,ɔ_s
1774424840.0032718,1925,0,ɔ_s
1774424840.0064158,1954,0,ɔ_s
1774424840.008703,2019,0,ɔ_s
1774424840.012136,2077,0,ɔ_s
1774424840.014684,2027,0,ɔ_s
1774424840.0174642,1977,0,ɔ_s
1774424840.0225549,1904,0,ɔ_s
1774424840.0241542,1931,0,ɔ_s
1774424840.027135,2073,0,ɔ_s
1774424840.0295308,2077,0,ɔ_s
1774424840.0326788,1925,0,ɔ_s
1774424840.035437,1936,0,ɔ_s
1774424840.0384681,1944,0,ɔ_s
1774424840.044307,2018,0,ɔ_s
1774424840.0449338,2064,0,ɔ_s
1774424840.047958,2031,0,ɔ_s
1774424840.0510132,1944,0,ɔ_s
1774424840.0536928,1952,0,ɔ_s
1774424840.056461,1942,0,ɔ_s
1774424840.0594728,2054,0,ɔ_s
1774424840.064964,2059,0,ɔ_s
1774424840.0655591,1954,0,ɔ_s
1774424840.0690088,1945,0,ɔ_s
1774424840.07241,1919,0,ɔ_s
1774424840.074958,2001,0,ɔ_s
1774424840.077513,2049,0,ɔ_s
1774424840.0804632,2048,0,ɔ_s
1774424840.0852711,1940,0,ɔ_s
1774424840.086968,1902,0,ɔ_s
1774424840.090679,1931,0,ɔ_s
1774424840.092622,2042,0,ɔ_s
1774424840.09538,2073,0,ɔ_s
1774424840.0983071,1968,0,ɔ_s
1774424840.101322,1958,0,ɔ_s
1774424840.10496,1941,0,ɔ_s
1774424840.108495,2032,0,ɔ_s
1774424840.111818,2084,0,ɔ_s
1774424840.113429,2029,0,ɔ_s
1774424840.116318,1951,0,ɔ_s
1774424840.120141,1913,0,ɔ_s
1774424840.125726,1946,0,ɔ_s
1774424840.126712,2087,0,ɔ_s
1774424840.129601,2105,0,ɔ_s
1774424840.131806,1969,0,ɔ_s
1774424840.134339,1942,0,ɔ_s
1774424840.1373382,1983,0,ɔ_s
1774424840.141155,2002,0,ɔ_s
1774424840.146295,2029,0,ɔ_s
1774424840.146396,2026,0,ɔ_s
1774424840.149677,1968,0,ɔ_s
1774424840.152938,1933,0,ɔ_s
1774424840.1557078,1922,0,ɔ_s
1774424840.158327,2030,0,ɔ_s
1774424840.1613498,2144,0,ɔ_s
1774424840.16634,1962,0,ɔ_s
1774424840.1681721,1923,0,ɔ_s
1774424840.170856,1927,0,ɔ_s
1774424840.174145,2030,0,ɔ_s
1774424840.176685,2019,0,ɔ_s
1774424840.179334,2032,0,ɔ_s
1774424840.182348,1933,0,ɔ_s
1774424840.186729,1967,0,ɔ_s
1774424840.188586,1902,0,ɔ_s
1774424840.19253,2067,0,ɔ_s
1774424840.1949172,2087,0,ɔ_s
1774424840.197463,2064,0,ɔ_s
1774424840.2003388,1855,0,ɔ_s
1774424840.2033331,1942,0,ɔ_s
1774424840.2065659,1936,0,ɔ_s
1774424840.209933,2074,0,ɔ_s
1774424840.2132092,1999,0,ɔ_s
1774424840.21581,2033,0,ɔ_s
1774424840.218352,1944,0,ɔ_s
1774424840.2213418,1908,0,ɔ_s
1774424840.227193,1985,0,ɔ_s
1774424840.2278368,2092,0,ɔ_s
1774424840.2308328,2077,0,ɔ_s
1774424840.234047,1861,0,ɔ_s
1774424840.236655,1906,0,ɔ_s
1774424840.239329,1937,0,ɔ_s
1774424840.242322,2062,0,ɔ_s
1774424840.247948,2055,0,ɔ_s
1774424840.248536,1957,0,ɔ_s
1774424840.2514791,1950,0,ɔ_s
1774424840.255965,1936,0,ɔ_s
1774424840.257303,2012,0,ɔ_s
1774424840.260303,2057,0,ɔ_s
1774424840.263322,2062,0,ɔ_s
1774424840.2681139,1955,0,ɔ_s
1774424840.270051,1947,0,ɔ_s
1774424840.273082,1942,0,ɔ_s
1774424840.2753742,2055,0,ɔ_s
1774424840.278344,2060,0,ɔ_s
1774424840.281332,1967,0,ɔ_s
1774424840.2843058,1945,0,ɔ_s
1774424840.288791,1914,0,ɔ_s
1774424840.2907898,1973,0,ɔ_s
1774424840.2937028,2069,0,ɔ_s
1774424840.297246,2064,0,ɔ_s
1774424840.299798,1924,0,ɔ_s
1774424840.302363,1946,0,ɔ_s
1774424840.305393,1978,0,ɔ_s
1774424840.308759,2015,0,ɔ_s
1774424840.341017,2029,0,ɔ_s
1774424840.341058,2038,0,ɔ_s
1774424840.341082,1941,0,ɔ_s
1774424840.3411179,1920,0,ɔ_s
1774424840.34114,1973,0,ɔ_s
1774424840.341161,2062,0,ɔ_s
1774424840.341589,2075,0,ɔ_s
1774424840.341622,1932,0,ɔ_s
1774424840.341702,1944,0,ɔ_s
1774424840.3417568,1940,0,ɔ_s
1774424840.34189,2044,0,ɔ_s
1774424840.344455,2152,0,ɔ_s
1774424840.353045,2103,0,ɔ_s
1774424840.3544042,1931,0,ɔ_s
1774424840.354764,1881,0,ɔ_s
1774424840.357352,1873,0,ɔ_s
1774424840.359807,2033,0,ɔ_s
1774424840.362368,2064,0,ɔ_s
1774424840.365299,1941,0,ɔ_s
1774424840.371116,1916,0,ɔ_s
1774424840.372704,1900,0,ɔ_s
1774424840.3743842,2005,0,ɔ_s
1774424840.378973,2074,0,ɔ_s
1774424840.380343,2056,0,ɔ_s
1774424840.383331,1899,0,ɔ_s
1774424840.3863199,1918,0,ɔ_s
1774424840.390999,1906,0,ɔ_s
1774424840.392881,2032,0,ɔ_s
1774424840.3957891,2082,0,ɔ_s
1774424840.3990788,1983,0,ɔ_s
1774424840.401634,1995,0,ɔ_s
1774424840.4042041,1912,0,ɔ_s
1774424840.4079301,1942,0,ɔ_s
1774424840.4113028,2073,0,ɔ_s
1774424840.413274,2119,0,ɔ_s
1774424840.417192,1911,0,ɔ_s
1774424840.41963,1913,0,ɔ_s
1774424840.422202,1931,0,ɔ_s
1774424840.425188,2036,0,ɔ_s
1774424840.428202,2069,0,ɔ_s
1774424840.431921,2022,0,ɔ_s
1774424840.434779,1990,0,ɔ_s
1774424840.438293,1911,0,ɔ_s
1774424840.440205,1951,0,ɔ_s
1774424840.4431832,2160,0,ɔ_s
1774424840.446178,2042,0,ɔ_s
1774424840.451954,1869,0,ɔ_s
1774424840.452304,1916,0,ɔ_s
1774424840.455443,1911,0,ɔ_s
1774424840.458699,2034,0,ɔ_s
1774424840.46131,2155,0,ɔ_s
1774424840.464174,2055,0,ɔ_s
1774424840.467181,1914,0,ɔ_s
1774424840.4726121,1886,0,ɔ_s
1774424840.4732459,1985,0,ɔ_s
1774424840.4764822,2067,0,ɔ_s
1774424840.480705,2021,0,ɔ_s
1774424840.482234,1995,0,ɔ_s
1774424840.485179,2001,0,ɔ_s
1774424840.488174,1864,0,ɔ_s
1774424840.4929762,1941,0,ɔ_s
1774424840.49486,2172,0,ɔ_s
1774424840.497613,2183,0,ɔ_s
1774424840.501013,1890,0,ɔ_s
1774424840.5035572,1783,0,ɔ_s
1774424840.506201,2026,0,ɔ_s
1774424840.509197,2099,0,ɔ_s
1774424840.513553,2001,0,ɔ_s
1774424840.516163,1877,0,ɔ_s
1774424840.518938,2009,0,ɔ_s
1774424840.521465,2020,0,ɔ_s
1774424840.5242171,1878,0,ɔ_s
1774424840.527325,1993,0,ɔ_s
1774424840.5302138,2184,0,ɔ_s
1774424840.534131,1973,0,ɔ_s
1774424840.5368881,1886,0,ɔ_s
1774424840.54062,1885,0,ɔ_s
1774424840.542201,2058,0,ɔ_s
1774424840.545207,2095,0,ɔ_s
1774424840.548206,1954,0,ɔ_s
1774424840.5538838,1977,0,ɔ_s
1774424840.554247,1982,0,ɔ_s
1774424840.557575,1965,0,ɔ_s
1774424840.5610151,1962,0,ɔ_s
1774424840.563639,2086,0,ɔ_s
1774424840.566184,1876,0,ɔ_s
1774424840.5692108,1950,0,ɔ_s
1774424840.575295,1939,0,ɔ_s
1774424840.5756412,2065,0,ɔ_s
1774424840.578513,2096,0,ɔ_s
1774424840.581783,1997,0,ɔ_s
1774424840.584448,1970,0,ɔ_s
1774424840.587189,1897,0,ɔ_s
1774424840.5902321,1957,0,ɔ_s
1774424840.594996,2103,0,ɔ_s
1774424840.5968251,2084,0,ɔ_s
1774424840.600724,1940,0,ɔ_s
1774424840.603311,1955,0,ɔ_s
1774424840.605206,1939,0,ɔ_s
1774424840.6088462,1999,0,ɔ_s
1774424840.6114619,2089,0,ɔ_s
1774424840.6161642,2066,0,ɔ_s
1774424840.6185338,1913,0,ɔ_s
1774424840.620279,1909,0,ɔ_s
1774424840.623639,1898,0,ɔ_s
1774424840.6262531,2090,0,ɔ_s
1774424840.629217,2078,0,ɔ_s
1774424840.632212,1929,0,ɔ_s
1774424840.635781,1950,0,ɔ_s
1774424840.6388109,1942,0,ɔ_s
1774424840.642095,2027,0,ɔ_s
1774424840.644831,2067,0,ɔ_s
1774424840.647372,2048,0,ɔ_s
1774424840.650213,1961,0,ɔ_s
1774424840.65603,1928,0,ɔ_s
1774424840.656398,1910,0,ɔ_s
1774424840.659968,2015,0,ɔ_s
1774424840.663197,2052,0,ɔ_s
1774424840.6658182,1962,0,ɔ_s
1774424840.6683662,1957,0,ɔ_s
1774424840.671045,1899,0,ɔ_s
1774424840.6765409,2024,0,ɔ_s
1774424840.6784708,2148,0,ɔ_s
1774424840.680557,2081,0,ɔ_s
1774424840.685184,1893,0,ɔ_s
1774424840.686475,1919,0,ɔ_s
1774424840.689109,1925,0,ɔ_s
1774424840.692085,2058,0,ɔ_s
1774424840.6965592,2056,0,ɔ_s
1774424840.6984708,1975,0,ɔ_s
1774424840.7022588,1981,0,ɔ_s
1774424840.7045052,1940,0,ɔ_s
1774424840.707099,1944,0,ɔ_s
1774424840.7100549,2058,0,ɔ_s
1774424840.713063,2040,0,ɔ_s
1774424840.716793,1932,0,ɔ_s
1774424840.7204978,1943,0,ɔ_s
1774424840.7229261,1962,0,ɔ_s
1774424840.72543,2023,0,ɔ_s
1774424840.72818,2086,0,ɔ_s
1774424840.731085,1987,0,ɔ_s
1774424840.736931,1949,0,ɔ_s
1774424840.737598,1952,0,ɔ_s
1774424840.7405891,1962,0,ɔ_s
1774424840.743959,2043,0,ɔ_s
1774424840.7460842,2068,0,ɔ_s
1774424840.7497559,1931,0,ɔ_s
1774424840.752297,1998,0,ɔ_s
1774424840.757695,2002,0,ɔ_s
1774424840.758328,1941,0,ɔ_s
1774424840.761311,2027,0,ɔ_s
1774424840.764698,1981,0,ɔ_s
1774424840.767332,1985,0,ɔ_s
1774424840.770079,1899,0,ɔ_s
1774424840.773074,1945,0,ɔ_s
1774424840.7779992,2046,0,ɔ_s
1774424840.7799082,2115,0,ɔ_s
1774424840.783641,1961,0,ɔ_s
1774424840.7861812,1873,0,ɔ_s
1774424840.7880802,1967,0,ɔ_s
1774424840.7910872,2037,0,ɔ_s
1774424840.79406,2134,0,ɔ_s
1774424840.798358,1951,0,ɔ_s
1774424840.800166,1947,0,ɔ_s
1774424840.80513,1911,0,ɔ_s
1774424840.806685,1952,0,ɔ_s
1774424840.809226,1970,0,ɔ_s
1774424840.812054,2215,0,ɔ_s
1774424840.815122,1939,0,ɔ_s
1774424840.818586,1898,0,ɔ_s
1774424840.8218722,1828,0,ɔ_s
1774424840.8253498,2031,0,ɔ_s
1774424840.82708,2089,0,ɔ_s
1774424840.830067,2055,0,ɔ_s
1774424840.833054,1842,0,ɔ_s
1774424840.838882,2027,0,ɔ_s
1774424840.8392131,1899,0,ɔ_s
1774424840.8430378,1985,0,ɔ_s
1774424840.8454762,2079,0,ɔ_s
1774424840.848085,2110,0,ɔ_s
1774424840.851051,1979,0,ɔ_s
1774424840.85409,1797,0,ɔ_s
1774424840.859756,1935,0,ɔ_s
1774424840.860619,2166,0,ɔ_s
1774424840.863778,2049,0,ɔ_s
1774424840.8673909,1915,0,ɔ_s
1774424840.8690538,1934,0,ɔ_s
1774424840.872056,1950,0,ɔ_s
1774424840.875051,1981,0,ɔ_s
1774424840.880011,2086,0,ɔ_s
1774424840.881587,2006,0,ɔ_s
1774424840.885587,1941,0,ɔ_s
1774424840.887837,1920,0,ɔ_s
1774424840.890054,1941,0,ɔ_s
1774424840.893054,2071,0,ɔ_s
1774424840.896689,2096,0,ɔ_s
1774424840.901126,1929,0,ɔ_s
1774424840.903361,1938,0,ɔ_s
1774424840.905914,1932,0,ɔ_s
1774424840.908544,2050,0,ɔ_s
1774424840.911096,2098,0,ɔ_s
1774424840.914068,2031,0,ɔ_s
1774424840.917164,1952,0,ɔ_s
1774424840.920317,1916,0,ɔ_s
1774424840.9235358,1933,0,ɔ_s
1774424840.926937,2043,0,ɔ_s
1774424840.929494,2095,0,ɔ_s
1774424840.9320881,1967,0,ɔ_s
1774424840.9350731,1981,0,ɔ_s
1774424840.940802,1924,0,ɔ_s
1774424840.941994,1969,0,ɔ_s
1774424840.944491,2039,0,ɔ_s
1774424840.94698,2048,0,ɔ_s
1774424840.950439,1959,0,ɔ_s
1774424840.952995,1961,0,ɔ_s
1774424840.9566169,1960,0,ɔ_s
1774424840.960949,2041,0,ɔ_s
1774424840.963113,2070,0,ɔ_s
1774424840.967037,1973,0,ɔ_s
1774424840.969662,1967,0,ɔ_s
1774424840.9709492,1895,0,ɔ_s
1774424840.974546,1990,0,ɔ_s
1774424840.977101,2089,0,ɔ_s
1774424840.982236,2078,0,ɔ_s
1774424840.9836211,1899,0,ɔ_s
1774424840.987355,1939,0,ɔ_s
1774424840.9896698,1947,0,ɔ_s
1774424840.992534,2075,0,ɔ_s
1774424840.995081,2090,0,ɔ_s
1774424840.9979331,1956,0,ɔ_s
1774424841.002389,1956,0,ɔ_s
1774424841.004321,1950,0,ɔ_s
1774424841.0071082,1982,0,ɔ_s
1774424841.010672,2038,0,ɔ_s
1774424841.013222,2069,0,ɔ_s
1774424841.0159528,1899,0,ɔ_s
1774424841.0189939,1937,0,ɔ_s
1774424841.022349,1938,0,ɔ_s
1774424841.026082,2017,0,ɔ_s
1774424841.0292459,2096,0,ɔ_s
1774424841.030976,2031,0,ɔ_s
1774424841.0339892,1991,0,ɔ_s
1774424841.036953,1916,0,ɔ_s
1774424841.043181,1925,0,ɔ_s
1774424841.0438201,2026,0,ɔ_s
1774424841.046371,2060,0,ɔ_s
1774424841.049907,1951,0,ɔ_s
1774424841.052486,1947,0,ɔ_s
1774424841.055029,1966,0,ɔ_s
1774424841.0579479,2046,0,ɔ_s
1774424841.0634859,2103,0,ɔ_s
1774424841.0654259,2036,0,ɔ_s
1774424841.067025,1905,0,ɔ_s
1774424841.071712,1921,0,ɔ_s
1774424841.073013,1935,0,ɔ_s
1774424841.075958,2087,0,ɔ_s
1774424841.078966,2083,0,ɔ_s
1774424841.083529,1939,0,ɔ_s
1774424841.085485,1963,0,ɔ_s
1774424841.089321,1911,0,ɔ_s
1774424841.0916212,1969,0,ɔ_s
1774424841.094164,2084,0,ɔ_s
1774424841.096944,2067,0,ɔ_s
1774424841.099933,1968,0,ɔ_s
1774424841.103586,1932,0,ɔ_s
1774424841.107557,1933,0,ɔ_s
1774424841.1092858,2037,0,ɔ_s
1774424841.1119401,2072,0,ɔ_s
1774424841.1149619,2050,0,ɔ_s
1774424841.1179461,1951,0,ɔ_s
1774424841.124086,1843,0,ɔ_s
1774424841.1241448,1993,0,ɔ_s
1774424841.12773,2096,0,ɔ_s
1774424841.13005,2072,0,ɔ_s
1774424841.133545,1866,0,ɔ_s
1774424841.136093,1975,0,ɔ_s
1774424841.138983,1931,0,ɔ_s
1774424841.145155,1973,0,ɔ_s
1774424841.145785,2017,0,ɔ_s
1774424841.148126,2098,0,ɔ_s
1774424841.15181,1976,0,ɔ_s
1774424841.154388,1847,0,ɔ_s
1774424841.156956,1918,0,ɔ_s
1774424841.159967,2130,0,ɔ_s
1774424841.164844,2135,0,ɔ_s
1774424841.166472,1828,0,ɔ_s
1774424841.170206,1949,0,ɔ_s
1774424841.172553,1988,0,ɔ_s
1774424841.175096,2021,0,ɔ_s
1774424841.177929,1990,0,ɔ_s
1774424841.180939,1986,0,ɔ_s
1774424841.185277,2030,0,ɔ_s
1774424841.187201,1904,0,ɔ_s
1774424841.1911979,1833,0,ɔ_s
1774424841.193547,2085,0,ɔ_s
1774424841.196115,2103,0,ɔ_s
1774424841.198924,1934,0,ɔ_s
1774424841.201967,1908,0,ɔ_s
1774424841.205726,2028,0,ɔ_s
1774424841.208658,2005,0,ɔ_s
1774424841.212287,2054,0,ɔ_s
1774424841.213971,1964,0,ɔ_s
1774424841.2169569,2033,0,ɔ_s
1774424841.219959,1905,0,ɔ_s
1774424841.225701,1902,0,ɔ_s
1774424841.22608,2034,0,ɔ_s
1774424841.2292092,2041,0,ɔ_s
1774424841.232665,1948,0,ɔ_s
1774424841.2353432,1964,0,ɔ_s
1774424841.237897,1939,0,ɔ_s
1774424841.2408352,2002,0,ɔ_s
1774424841.246691,2064,0,ɔ_s
1774424841.2476742,2050,0,ɔ_s
1774424841.249977,1927,0,ɔ_s
1774424841.2535071,1936,0,ɔ_s
1774424841.25591,1953,0,ɔ_s
1774424841.2588239,2067,0,ɔ_s
1774424841.2618308,2071,0,ɔ_s
1774424841.266346,1939,0,ɔ_s
1774424841.2684171,1967,0,ɔ_s
1774424841.272398,1919,0,ɔ_s
1774424841.275282,1970,0,ɔ_s
1774424841.276808,2075,0,ɔ_s
1774424841.279808,2077,0,ɔ_s
1774424841.282835,1912,0,ɔ_s
1774424841.287265,1906,0,ɔ_s
1774424841.289206,1927,0,ɔ_s
1774424841.292158,2068,0,ɔ_s
1774424841.2958012,2117,0,ɔ_s
1774424841.298291,2008,0,ɔ_s
1774424841.300849,1981,0,ɔ_s
1774424841.3038342,1914,0,ɔ_s
1774424841.3080928,1926,0,ɔ_s
1774424841.31075,2056,0,ɔ_s
1774424841.312841,2080,0,ɔ_s
1774424841.316461,1931,0,ɔ_s
1774424841.319041,1939,0,ɔ_s
1774424841.321814,1929,0,ɔ_s
1774424841.32732,2037,0,ɔ_s
1774424841.328361,2062,0,ɔ_s
1774424841.3312929,2019,0,ɔ_s
1774424841.335024,1948,0,ɔ_s
1774424841.336839,1929,0,ɔ_s
1774424841.3398452,1955,0,ɔ_s
1774424841.3428302,2056,0,ɔ_s
1774424841.347723,2085,0,ɔ_s
1774424841.34935,1932,0,ɔ_s
1774424841.353316,1941,0,ɔ_s
1774424841.356166,1941,0,ɔ_s
1774424841.3578181,2034,0,ɔ_s
1774424841.360822,2108,0,ɔ_s
1774424841.363796,2026,0,ɔ_s
1774424841.367826,1938,0,ɔ_s
1774424841.3709571,1909,0,ɔ_s
1774424841.373781,1925,0,ɔ_s
1774424841.37631,2073,0,ɔ_s
1774424841.37887,2089,0,ɔ_s
1774424841.381834,1931,0,ɔ_s
1774424841.384832,1942,0,ɔ_s
1774424841.388005,1919,0,ɔ_s
1774424841.391124,1991,0,ɔ_s
1774424841.39467,2098,0,ɔ_s
1774424841.397312,2110,0,ɔ_s
1774424841.399876,1980,0,ɔ_s
1774424841.4028318,1923,0,ɔ_s
1774424841.408716,1892,0,ɔ_s
1774424841.409037,2046,0,ɔ_s
1774424841.411886,2065,0,ɔ_s
1774424841.4153512,2002,0,ɔ_s
1774424841.4180522,1929,0,ɔ_s
1774424841.420809,1875,0,ɔ_s
1774424841.423837,2045,0,ɔ_s
1774424841.4294279,2096,0,ɔ_s
1774424841.430115,2106,0,ɔ_s
1774424841.4329941,1983,0,ɔ_s
1774424841.437245,1983,0,ɔ_s
1774424841.438821,1914,0,ɔ_s
1774424841.441797,2108,0,ɔ_s
1774424841.444814,2081,0,ɔ_s
1774424841.449692,1890,0,ɔ_s
1774424841.451349,1847,0,ɔ_s
1774424841.456505,1924,0,ɔ_s
1774424841.456844,1958,0,ɔ_s
1774424841.459861,2125,0,ɔ_s
1774424841.462834,2022,0,ɔ_s
1774424841.465798,1975,0,ɔ_s
1774424841.46998,1938,0,ɔ_s
1774424841.473223,1915,0,ɔ_s
1774424841.47583,2078,0,ɔ_s
1774424841.47839,2116,0,ɔ_s
1774424841.480938,2002,0,ɔ_s
1774424841.483831,1842,0,ɔ_s
1774424841.4899259,1915,0,ɔ_s
1774424841.490884,2042,0,ɔ_s
1774424841.4932961,2075,0,ɔ_s
1774424841.4969878,2067,0,ɔ_s
1774424841.498831,1986,0,ɔ_s
1774424841.5018399,1978,0,ɔ_s
1774424841.5048928,1801,0,ɔ_s
1774424841.510984,1949,0,ɔ_s
1774424841.5125802,2093,0,ɔ_s
1774424841.514415,2126,0,ɔ_s
1774424841.517757,1869,0,ɔ_s
1774424841.5204558,1867,0,ɔ_s
1774424841.5230138,1957,0,ɔ_s
1774424841.525833,2019,0,ɔ_s
1774424841.530557,2055,0,ɔ_s
1774424841.532487,2003,0,ɔ_s
1774424841.535232,1966,0,ɔ_s
1774424841.538534,1875,0,ɔ_s
1774424841.5411232,1995,0,ɔ_s
1774424841.54383,2080,0,ɔ_s
1774424841.546815,2026,0,ɔ_s
1774424841.551728,1917,0,ɔ_s
1774424841.554395,1927,0,ɔ_s
1774424841.5561962,1964,0,ɔ_s
1774424841.5595598,2084,0,ɔ_s
1774424841.562111,2071,0,ɔ_s
1774424841.564707,1976,0,ɔ_s
1774424841.567688,1946,0,ɔ_s
1774424841.5712929,1898,0,ɔ_s
1774424841.575257,1981,0,ɔ_s
1774424841.577097,2087,0,ɔ_s
1774424841.579726,2106,0,ɔ_s
1774424841.5835578,1972,0,ɔ_s
1774424841.586095,1930,0,ɔ_s
1774424841.591664,1900,0,ɔ_s
1774424841.591732,2072,0,ɔ_s
1774424841.5954509,2168,0,ɔ_s
1774424841.597837,2018,0,ɔ_s
1774424841.600704,1864,0,ɔ_s
1774424841.6037319,1869,0,ɔ_s
1774424841.606714,1986,0,ɔ_s
1774424841.612024,2086,0,ɔ_s
1774424841.614133,2125,0,ɔ_s
1774424841.6158888,1944,0,ɔ_s
1774424841.61954,1949,0,ɔ_s
1774424841.6221051,1939,0,ɔ_s
1774424841.6246982,2011,0,ɔ_s
1774424841.6277308,2054,0,ɔ_s
1774424841.6330612,1991,0,ɔ_s
1774424841.63568,1945,0,ɔ_s
1774424841.637162,1918,0,ɔ_s
1774424841.6409678,1930,0,ɔ_s
1774424841.642726,2048,0,ɔ_s
1774424841.64571,2072,0,ɔ_s
1774424841.648675,1955,0,ɔ_s
1774424841.653271,1937,0,ɔ_s
1774424841.654793,1918,0,ɔ_s
1774424841.658798,2000,0,ɔ_s
1774424841.662343,2122,0,ɔ_s
1774424841.663818,2024,0,ɔ_s
1774424841.6667058,1933,0,ɔ_s
1774424841.674064,1917,0,ɔ_s
1774424841.675453,1951,0,ɔ_s
1774424841.676619,2097,0,ɔ_s
1774424841.679723,2087,0,ɔ_s
1774424841.682276,1943,0,ɔ_s
1774424841.684823,1957,0,ɔ_s
1774424841.687694,1908,0,ɔ_s
1774424841.693592,1997,0,ɔ_s
1774424841.6941419,2077,0,ɔ_s
1774424841.69713,2061,0,ɔ_s
1774424841.700703,1933,0,ɔ_s
1774424841.703261,1930,0,ɔ_s
1774424841.705817,1938,0,ɔ_s
1774424841.708713,2048,0,ɔ_s
1774424841.714418,2097,0,ɔ_s
1774424841.71605,1943,0,ɔ_s
1774424841.7177951,1962,0,ɔ_s
1774424841.721347,2020,0,ɔ_s
1774424841.723895,1965,0,ɔ_s
1774424841.7267048,2058,0,ɔ_s
1774424841.730371,2014,0,ɔ_s
1774424841.735065,1983,0,ɔ_s
1774424841.737622,1985,0,ɔ_s
1774424841.739161,1878,0,ɔ_s
1774424841.742718,2059,0,ɔ_s
1774424841.745257,2100,0,ɔ_s
1774424841.747796,2008,0,ɔ_s
1774424841.7507179,1884,0,ɔ_s
1774424841.754504,1893,0,ɔ_s
1774424841.757492,1938,0,ɔ_s
1774424841.761184,2072,0,ɔ_s
1774424841.762731,2131,0,ɔ_s
1774424841.765707,1893,0,ɔ_s
1774424841.7687051,1937,0,ɔ_s
1774424841.774749,1972,0,ɔ_s
1774424841.775378,2050,0,ɔ_s
1774424841.778223,2134,0,ɔ_s
1774424841.7818382,1929,0,ɔ_s
1774424841.783704,2011,0,ɔ_s
1774424841.787412,1876,0,ɔ_s
1774424841.7899551,1934,0,ɔ_s
1774424841.7953122,2057,0,ɔ_s
1774424841.796014,2140,0,ɔ_s
1774424841.798949,1910,0,ɔ_s
1774424841.802379,1906,0,ɔ_s
1774424841.805045,1938,0,ɔ_s
1774424841.807728,2082,0,ɔ_s
1774424841.810705,2083,0,ɔ_s
1774424841.815507,1946,0,ɔ_s
1774424841.81745,2011,0,ɔ_s
1774424841.821429,1901,0,ɔ_s
1774424841.822827,1880,0,ɔ_s
1774424841.825706,2064,0,ɔ_s
1774424841.828707,2131,0,ɔ_s
1774424841.8316858,2002,0,ɔ_s
1774424841.8356512,1899,0,ɔ_s
1774424841.838839,1883,0,ɔ_s
1774424841.841654,2050,0,ɔ_s
1774424841.844401,2025,0,ɔ_s
1774424841.846942,1994,0,ɔ_s
1774424841.849689,1901,0,ɔ_s
1774424841.85267,1932,0,ɔ_s
1774424841.857439,1926,0,ɔ_s
1774424841.859784,2083,0,ɔ_s
1774424841.86239,2096,0,ɔ_s
1774424841.8649511,1974,0,ɔ_s
1774424841.867562,1959,0,ɔ_s
1774424841.870553,1895,0,ɔ_s
1774424841.8771808,1958,0,ɔ_s
1774424841.8777962,2080,0,ɔ_s
1774424841.880547,2100,0,ɔ_s
1774424841.884289,1929,0,ɔ_s
1774424841.885804,1940,0,ɔ_s
1774424841.888573,1971,0,ɔ_s
1774424841.891596,2036,0,ɔ_s
1774424841.897056,2075,0,ɔ_s
1774424841.8979478,1964,0,ɔ_s
1774424841.901214,1987,0,ɔ_s
1774424841.904982,1919,0,ɔ_s
1774424841.906591,1923,0,ɔ_s
1774424841.9096608,2077,0,ɔ_s
1774424841.912553,2094,0,ɔ_s
1774424841.9170299,1926,0,ɔ_s
1774424841.9189749,1935,0,ɔ_s
1774424841.9229388,1923,0,ɔ_s
1774424841.925319,2054,0,ɔ_s
1774424841.9278688,2075,0,ɔ_s
1774424841.930583,2005,0,ɔ_s
1774424841.9335601,1936,0,ɔ_s
1774424841.937622,1925,0,ɔ_s
1774424841.940799,1954,0,ɔ_s
1774424841.9434109,2081,0,ɔ_s
1774424841.945911,2088,0,ɔ_s
1774424841.948549,1905,0,ɔ_s
1774424841.951616,1960,0,ɔ_s
1774424841.9574468,1912,0,ɔ_s
1774424841.9580889,2010,0,ɔ_s
1774424841.96125,2099,0,ɔ_s
1774424841.964591,2066,0,ɔ_s
1774424841.966583,1971,0,ɔ_s
1774424841.969585,1902,0,ɔ_s
1774424841.972561,1923,0,ɔ_s
1774424841.977851,2080,0,ɔ_s
1774424841.980052,2089,0,ɔ_s
1774424841.981735,1940,0,ɔ_s
1774424841.98624,1952,0,ɔ_s
1774424841.9875698,1887,0,ɔ_s
1774424841.991213,1996,0,ɔ_s
1774424841.99356,2087,0,ɔ_s
1774424841.999184,2075,0,ɔ_s
1774424842.000451,1945,0,ɔ_s
1774424842.00435,1915,0,ɔ_s
1774424842.005706,1902,0,ɔ_s
1774424842.008579,2051,0,ɔ_s
1774424842.011557,2109,0,ɔ_s
1774424842.014549,1977,0,ɔ_s
1774424842.019006,1951,0,ɔ_s
1774424842.021086,1906,0,ɔ_s
1774424842.0250611,1959,0,ɔ_s
1774424842.0273972,2035,0,ɔ_s
1774424842.029954,2082,0,ɔ_s
1774424842.032591,1938,0,ɔ_s
1774424842.03889,1977,0,ɔ_s
1774424842.039551,1957,0,ɔ_s
1774424842.042322,2016,0,ɔ_s
1774424842.045141,2081,0,ɔ_s
1774424842.047719,1957,0,ɔ_s
1774424842.050574,1927,0,ɔ_s
1774424842.0535731,1893,0,ɔ_s
1774424842.0594938,1954,0,ɔ_s
1774424842.0598369,2084,0,ɔ_s
1774424842.063072,2198,0,ɔ_s
1774424842.0665028,1918,0,ɔ_s
1774424842.069196,1851,0,ɔ_s
1774424842.071742,1911,0,ɔ_s
1774424842.0745752,2074,0,ɔ_s
1774424842.079812,2088,0,ɔ_s
1774424842.0816798,1972,0,ɔ_s
1774424842.0838468,2001,0,ɔ_s
1774424842.086981,1970,0,ɔ_s
1774424842.089581,1906,0,ɔ_s
1774424842.092587,1987,0,ɔ_s
1774424842.095555,2112,0,ɔ_s
1774424842.1008482,1992,0,ɔ_s
1774424842.103152,1917,0,ɔ_s
1774424842.104646,1834,0,ɔ_s
1774424842.1083488,2074,0,ɔ_s
1774424842.1107478,2121,0,ɔ_s
1774424842.113549,2011,0,ɔ_s
1774424842.1165729,1887,0,ɔ_s
1774424842.120642,1945,0,ɔ_s
1774424842.122572,1960,0,ɔ_s
1774424842.126538,2015,0,ɔ_s
1774424842.1291158,2069,0,ɔ_s
1774424842.131656,2060,0,ɔ_s
1774424842.134581,1957,0,ɔ_s
1774424842.140828,1846,0,ɔ_s
1774424842.140876,1896,0,ɔ_s
1774424842.144233,2139,0,ɔ_s
1774424842.1475809,2031,0,ɔ_s
1774424842.149565,1875,0,ɔ_s
1774424842.153274,1896,0,ɔ_s
1774424842.1558158,2065,0,ɔ_s
1774424842.161142,2017,0,ɔ_s
1774424842.1617332,2008,0,ɔ_s
1774424842.164685,1962,0,ɔ_s
1774424842.1681468,2064,0,ɔ_s
1774424842.1708999,1902,0,ɔ_s
1774424842.173589,1928,0,ɔ_s
1774424842.176588,2027,0,ɔ_s
1774424842.182487,2147,0,ɔ_s
1774424842.182592,1860,0,ɔ_s
1774424842.185772,1963,0,ɔ_s
1774424842.189236,1883,0,ɔ_s
1774424842.191913,2023,0,ɔ_s
1774424842.1946151,2117,0,ɔ_s
1774424842.1975832,2006,0,ɔ_s
1774424842.202409,1938,0,ɔ_s
1774424842.205602,1903,0,ɔ_s
1774424842.2073112,1960,0,ɔ_s
1774424842.209601,2089,0,ɔ_s
1774424842.2124531,2082,0,ɔ_s
1774424842.2154582,1953,0,ɔ_s
1774424842.2184231,1974,0,ɔ_s
1774424842.223186,1938,0,ɔ_s
1774424842.224802,2011,0,ɔ_s
1774424842.228652,2078,0,ɔ_s
1774424842.23128,2004,0,ɔ_s
1774424842.23383,1988,0,ɔ_s
1774424842.2364612,1895,0,ɔ_s
1774424842.239475,1933,0,ɔ_s
1774424842.2428732,2080,0,ɔ_s
1774424842.246263,2058,0,ɔ_s
1774424842.249724,1929,0,ɔ_s
1774424842.2514648,1943,0,ɔ_s
1774424842.2544708,1935,0,ɔ_s
1774424842.257473,2003,0,ɔ_s
1774424842.263718,2077,0,ɔ_s
1774424842.263802,2047,0,ɔ_s
1774424842.266974,1908,0,ɔ_s
1774424842.270608,1916,0,ɔ_s
1774424842.272458,1928,0,ɔ_s
1774424842.275456,2077,0,ɔ_s
1774424842.278455,2079,0,ɔ_s
1774424842.283686,1978,0,ɔ_s
1774424842.28721,1995,0,ɔ_s
1774424842.287585,1895,0,ɔ_s
1774424842.29103,1963,0,ɔ_s
1774424842.2937238,2050,0,ɔ_s
1774424842.296428,2052,0,ɔ_s
1774424842.2994199,1944,0,ɔ_s
1774424842.3042188,1954,0,ɔ_s
1774424842.3061051,1929,0,ɔ_s
1774424842.31006,2056,0,ɔ_s
1774424842.312482,2102,0,ɔ_s
1774424842.314956,1952,0,ɔ_s
1774424842.317495,1949,0,ɔ_s
1774424842.320426,1895,0,ɔ_s
1774424842.324617,2000,0,ɔ_s
1774424842.326496,2052,0,ɔ_s
1774424842.3313742,2031,0,ɔ_s
1774424842.332903,1915,0,ɔ_s
1774424842.335448,1967,0,ɔ_s
1774424842.33846,1974,0,ɔ_s
1774424842.3414311,2020,0,ɔ_s
1774424842.344821,2068,0,ɔ_s
1774424842.347906,1986,0,ɔ_s
1774424842.351427,1954,0,ɔ_s
1774424842.354008,1920,0,ɔ_s
1774424842.356552,1970,0,ɔ_s
1774424842.359465,2099,0,ɔ_s
1774424842.362491,2089,0,ɔ_s
1774424842.366063,1932,0,ɔ_s
1774424842.3692532,1928,0,ɔ_s
1774424842.372724,1931,0,ɔ_s
1774424842.3744588,2022,0,ɔ_s
1774424842.3774579,2076,0,ɔ_s
1774424842.38046,2046,0,ɔ_s
1774424842.386165,2043,0,ɔ_s
1774424842.386521,1952,0,ɔ_s
1774424842.389611,1859,0,ɔ_s
1774424842.393152,2136,0,ɔ_s
1774424842.395707,2037,0,ɔ_s
1774424842.3984551,1975,0,ɔ_s
1774424842.4021492,2029,0,ɔ_s
1774424842.407073,1913,0,ɔ_s
1774424842.4077098,1939,0,ɔ_s
1774424842.4112158,2116,0,ɔ_s
1774424842.414091,2108,0,ɔ_s
1774424842.4166322,1915,0,ɔ_s
1774424842.419425,1854,0,ɔ_s
1774424842.422416,1970,0,ɔ_s
1774424842.4273338,2073,0,ɔ_s
1774424842.4289129,2005,0,ɔ_s
1774424842.4329019,1941,0,ɔ_s
1774424842.435292,2048,0,ɔ_s
1774424842.43785,1994,0,ɔ_s
1774424842.440432,1902,0,ɔ_s
1774424842.44343,2030,0,ɔ_s
1774424842.447656,2080,0,ɔ_s
1774424842.450685,1902,0,ɔ_s
1774424842.453561,1918,0,ɔ_s
1774424842.4561548,1975,0,ɔ_s
1774424842.4587111,2086,0,ɔ_s
1774424842.461461,2060,0,ɔ_s
1774424842.4674728,1914,0,ɔ_s
1774424842.4681,2002,0,ɔ_s
1774424842.471224,1965,0,ɔ_s
1774424842.473526,1948,0,ɔ_s
1774424842.476481,2064,0,ɔ_s
1774424842.479467,2088,0,ɔ_s
1774424842.4824698,1909,0,ɔ_s
1774424842.48823,1901,0,ɔ_s
1774424842.488568,1933,0,ɔ_s
1774424842.491467,2115,0,ɔ_s
1774424842.49503,2078,0,ɔ_s
1774424842.497663,1931,0,ɔ_s
1774424842.500463,1971,0,ɔ_s
1774424842.504032,1938,0,ɔ_s
1774424842.510404,1895,0,ɔ_s
1774424842.511532,2012,0,ɔ_s
1774424842.513501,2045,0,ɔ_s
1774424842.5159218,1952,0,ɔ_s
1774424842.5185401,1969,0,ɔ_s
1774424842.521427,1951,0,ɔ_s
1774424842.524446,2039,0,ɔ_s
1774424842.528932,2116,0,ɔ_s
1774424842.530786,2000,0,ɔ_s
1774424842.534733,1946,0,ɔ_s
1774424842.537409,1922,0,ɔ_s
1774424842.539954,1929,0,ɔ_s
1774424842.542499,2128,0,ɔ_s
1774424842.545307,2082,0,ɔ_s
1774424842.550844,1904,0,ɔ_s
1774424842.552543,1987,0,ɔ_s
1774424842.555022,1959,0,ɔ_s
1774424842.5575628,1995,0,ɔ_s
1774424842.560357,2055,0,ɔ_s
1774424842.563319,2051,0,ɔ_s
1774424842.569474,1926,0,ɔ_s
1774424842.569539,1903,0,ɔ_s
1774424842.572799,1893,0,ɔ_s
1774424842.576336,2064,0,ɔ_s
1774424842.579015,2140,0,ɔ_s
1774424842.581563,1968,0,ɔ_s
1774424842.584398,1924,0,ɔ_s
1774424842.589813,1917,0,ɔ_s
1774424842.590684,1978,0,ɔ_s
1774424842.59361,2103,0,ɔ_s
1774424842.597065,2035,0,ɔ_s
1774424842.599734,1935,0,ɔ_s
1774424842.602321,1947,0,ɔ_s
1774424842.6053278,1946,0,ɔ_s
1774424842.609986,2035,0,ɔ_s
1774424842.611765,2056,0,ɔ_s
1774424842.614568,1987,0,ɔ_s
1774424842.618079,1999,0,ɔ_s
1774424842.6206179,1930,0,ɔ_s
1774424842.6232991,1962,0,ɔ_s
1774424842.626315,2052,0,ɔ_s
1774424842.630645,2080,0,ɔ_s
1774424842.632415,1916,0,ɔ_s
1774424842.635355,1968,0,ɔ_s
1774424842.638866,1923,0,ɔ_s
1774424842.641361,2044,0,ɔ_s
1774424842.644335,2096,0,ɔ_s
1774424842.647338,2006,0,ɔ_s
1774424842.6510952,1942,0,ɔ_s
1774424842.653901,1896,0,ɔ_s
1774424842.6573381,1955,0,ɔ_s
1774424842.6593359,2080,0,ɔ_s
1774424842.662483,2122,0,ɔ_s
1774424842.665337,1933,0,ɔ_s
1774424842.671365,1917,0,ɔ_s
1774424842.671477,1955,0,ɔ_s
1774424842.675543,2026,0,ɔ_s
1774424842.6776772,2088,0,ɔ_s
1774424842.680319,2118,0,ɔ_s
1774424842.683435,1993,0,ɔ_s
1774424842.686338,1845,0,ɔ_s
1774424842.6918159,1866,0,ɔ_s
1774424842.692446,2062,0,ɔ_s
1774424842.695434,2173,0,ɔ_s
1774424842.699035,1941,0,ɔ_s
1774424842.7015831,1835,0,ɔ_s
1774424842.7042902,1965,0,ɔ_s
1774424842.707399,2111,0,ɔ_s
1774424842.712524,2000,0,ɔ_s
1774424842.714016,1978,0,ɔ_s
1774424842.717848,1947,0,ɔ_s
1774424842.7201788,2056,0,ɔ_s
1774424842.722734,1871,0,ɔ_s
1774424842.7253299,2006,0,ɔ_s
1774424842.729035,2076,0,ɔ_s
1774424842.7327821,1961,0,ɔ_s
1774424842.7343612,1928,0,ɔ_s
1774424842.738476,1893,0,ɔ_s
1774424842.740723,2054,0,ɔ_s
1774424842.743344,2103,0,ɔ_s
1774424842.746331,1997,0,ɔ_s
1774424842.7493372,1916,0,ɔ_s
1774424842.752876,1979,0,ɔ_s
1774424842.755788,1900,0,ɔ_s
1774424842.7593222,2012,0,ɔ_s
1774424842.761924,2023,0,ɔ_s
1774424842.7644641,1986,0,ɔ_s
1774424842.767384,1926,0,ɔ_s
1774424842.773375,1897,0,ɔ_s
1774424842.773762,2035,0,ɔ_s
1774424842.776681,2158,0,ɔ_s
1774424842.780181,2027,0,ɔ_s
1774424842.7828228,1942,0,ɔ_s
1774424842.785365,1911,0,ɔ_s
1774424842.788331,1928,0,ɔ_s
1774424842.793941,1995,0,ɔ_s
1774424842.794315,2124,0,ɔ_s
1774424842.797602,1985,0,ɔ_s
1774424842.801986,1950,0,ɔ_s
1774424842.803328,1896,0,ɔ_s
1774424842.8063412,1952,0,ɔ_s
1774424842.809352,1996,0,ɔ_s
1774424842.8137972,2070,0,ɔ_s
1774424842.815626,1922,0,ɔ_s
1774424842.818461,1935,0,ɔ_s
1774424842.821943,1944,0,ɔ_s
1774424842.824487,2042,0,ɔ_s
1774424842.827204,2118,0,ɔ_s
1774424842.8302221,2065,0,ɔ_s
1774424842.834475,1969,0,ɔ_s
1774424842.836433,1887,0,ɔ_s
1774424842.839214,1935,0,ɔ_s
1774424842.842705,2103,0,ɔ_s
1774424842.845244,2099,0,ɔ_s
1774424842.848193,1893,0,ɔ_s
1774424842.851209,1915,0,ɔ_s
1774424842.854731,1933,0,ɔ_s
1774424842.858238,2038,0,ɔ_s
1774424842.860658,2071,0,ɔ_s
1774424842.863241,2048,0,ɔ_s
1774424842.866221,1961,0,ɔ_s
1774424842.869209,1940,0,ɔ_s
1774424842.875262,1894,0,ɔ_s
1774424842.875863,2054,0,ɔ_s
1774424842.879174,2083,0,ɔ_s
1774424842.882082,1959,0,ɔ_s
1774424842.884747,1929,0,ɔ_s
1774424842.887288,1894,0,ɔ_s
1774424842.8901749,2010,0,ɔ_s
1774424842.896074,2066,0,ɔ_s
1774424842.8977878,2072,0,ɔ_s
1774424842.899713,1959,0,ɔ_s
1774424842.902983,1938,0,ɔ_s
1774424842.9057028,1955,0,ɔ_s
1774424842.908245,2005,0,ɔ_s
1774424842.911207,2069,0,ɔ_s
1774424842.915704,1974,0,ɔ_s
1774424842.9175732,1992,0,ɔ_s
1774424842.920394,1900,0,ɔ_s
1774424842.923968,1955,0,ɔ_s
1774424842.92651,2096,0,ɔ_s
1774424842.9291751,2089,0,ɔ_s
1774424842.932253,1956,0,ɔ_s
1774424842.9357288,1915,0,ɔ_s
1774424842.938834,1930,0,ɔ_s
1774424842.942465,2022,0,ɔ_s
1774424842.9442298,2080,0,ɔ_s
1774424842.9472032,2011,0,ɔ_s
1774424842.950197,1992,0,ɔ_s
1774424842.9563289,1933,0,ɔ_s
1774424842.957213,1969,0,ɔ_s
1774424842.9597352,2097,0,ɔ_s
1774424842.963246,2070,0,ɔ_s
1774424842.965908,1915,0,ɔ_s
1774424842.968454,1931,0,ɔ_s
1774424842.971204,1906,0,ɔ_s
1774424842.976657,2031,0,ɔ_s
1774424842.97763,2097,0,ɔ_s
1774424842.980235,2025,0,ɔ_s
1774424842.983757,1936,0,ɔ_s
1774424842.986418,1939,0,ɔ_s
1774424842.989186,1909,0,ɔ_s
1774424842.992194,2035,0,ɔ_s
1774424842.9973629,2094,0,ɔ_s
1774424842.9987469,1940,0,ɔ_s
1774424843.001575,2018,0,ɔ_s
1774424843.0053928,1900,0,ɔ_s
1774424843.007206,1983,0,ɔ_s
1774424843.0102139,2063,0,ɔ_s
1774424843.013173,2127,0,ɔ_s
1774424843.0177448,1962,0,ɔ_s
1774424843.020341,1861,0,ɔ_s
1774424843.023236,1886,0,ɔ_s
1774424843.0259142,2137,0,ɔ_s
1774424843.02847,2050,0,ɔ_s
1774424843.031209,1892,0,ɔ_s
1774424843.0372531,1927,0,ɔ_s
1774424843.037606,2003,0,ɔ_s
1774424843.041074,1944,0,ɔ_s
1774424843.043315,2020,0,ɔ_s
1774424843.0462039,2086,0,ɔ_s
1774424843.04921,1976,0,ɔ_s
1774424843.0522082,1901,0,ɔ_s
1774424843.057987,1855,0,ɔ_s
1774424843.058609,2135,0,ɔ_s
1774424843.061436,2128,0,ɔ_s
1774424843.065004,1904,0,ɔ_s
1774424843.067557,1898,0,ɔ_s
1774424843.070177,1895,0,ɔ_s
1774424843.0732312,2049,0,ɔ_s
1774424843.07875,2010,0,ɔ_s
1774424843.0803251,2069,0,ɔ_s
1774424843.0822752,1980,0,ɔ_s
1774424843.085703,1944,0,ɔ_s
1774424843.088253,1872,0,ɔ_s
1774424843.091236,2029,0,ɔ_s
1774424843.094181,2114,0,ɔ_s
1774424843.0989718,2059,0,ɔ_s
1774424843.1004689,1889,0,ɔ_s
1774424843.1042938,1892,0,ɔ_s
1774424843.106914,1979,0,ɔ_s
1774424843.1094642,2076,0,ɔ_s
1774424843.1120908,2053,0,ɔ_s
1774424843.115123,2001,0,ɔ_s
1774424843.118758,1917,0,ɔ_s
1774424843.122147,1926,0,ɔ_s
1774424843.1258812,1957,0,ɔ_s
1774424843.127402,2049,0,ɔ_s
1774424843.130087,2043,0,ɔ_s
1774424843.133077,1958,0,ɔ_s
1774424843.139293,1910,0,ɔ_s
1774424843.139412,1927,0,ɔ_s
1774424843.142646,2093,0,ɔ_s
1774424843.14622,2102,0,ɔ_s
1774424843.1480918,1959,0,ɔ_s
1774424843.1510851,1953,0,ɔ_s
1774424843.154102,1928,0,ɔ_s
1774424843.1595259,2027,0,ɔ_s
1774424843.160717,2062,0,ɔ_s
1774424843.163317,2064,0,ɔ_s
1774424843.16677,1952,0,ɔ_s
1774424843.169371,1922,0,ɔ_s
1774424843.1720908,1919,0,ɔ_s
1774424843.175107,2042,0,ɔ_s
1774424843.180047,2102,0,ɔ_s
1774424843.181741,2016,0,ɔ_s
1774424843.185597,1975,0,ɔ_s
1774424843.18833,1840,0,ɔ_s
1774424843.19011,1942,0,ɔ_s
1774424843.1931,2080,0,ɔ_s
1774424843.196078,2061,0,ɔ_s
1774424843.200195,1921,0,ɔ_s
1774424843.2021692,1930,0,ɔ_s
1774424843.206007,1972,0,ɔ_s
1774424843.208267,2088,0,ɔ_s
1774424843.211092,2035,0,ɔ_s
1774424843.214077,1952,0,ɔ_s
1774424843.2171881,1964,0,ɔ_s
1774424843.2203772,1925,0,ɔ_s
1774424843.223655,1961,0,ɔ_s
1774424843.227453,2059,0,ɔ_s
1774424843.229078,2075,0,ɔ_s
1774424843.232084,1924,0,ɔ_s
1774424843.235082,1969,0,ɔ_s
1774424843.240622,1909,0,ɔ_s
1774424843.241303,2033,0,ɔ_s
1774424843.244308,2068,0,ɔ_s
1774424843.247648,2009,0,ɔ_s
1774424843.250328,1940,0,ɔ_s
1774424843.253068,1898,0,ɔ_s
1774424843.25607,1962,0,ɔ_s
1774424843.261131,2066,0,ɔ_s
1774424843.262998,2080,0,ɔ_s
1774424843.266877,1941,0,ɔ_s
1774424843.2682629,1940,0,ɔ_s
1774424843.2710872,1936,0,ɔ_s
1774424843.274078,1989,0,ɔ_s
1774424843.2770472,2106,0,ɔ_s
1774424843.28276,2030,0,ɔ_s
1774424843.284055,1962,0,ɔ_s
1774424843.286863,1920,0,ɔ_s
1774424843.289133,1925,0,ɔ_s
1774424843.2920709,2066,0,ɔ_s
1774424843.2950778,2075,0,ɔ_s
1774424843.2980428,1954,0,ɔ_s
1774424843.303241,1936,0,ɔ_s
1774424843.305805,1908,0,ɔ_s
1774424843.308359,2001,0,ɔ_s
1774424843.310751,2084,0,ɔ_s
1774424843.313261,2043,0,ɔ_s
1774424843.316096,1933,0,ɔ_s
1774424843.319108,1930,0,ɔ_s
1774424843.32251,1947,0,ɔ_s
1774424843.326014,2088,0,ɔ_s
1774424843.32833,2056,0,ɔ_s
1774424843.331879,1926,0,ɔ_s
1774424843.334416,1952,0,ɔ_s
1774424843.3370502,1991,0,ɔ_s
1774424843.34348,1944,0,ɔ_s
1774424843.3441238,2075,0,ɔ_s
1774424843.346634,2059,0,ɔ_s
1774424843.350088,1981,0,ɔ_s
1774424843.352046,1935,0,ɔ_s
1774424843.355055,1865,0,ɔ_s
1774424843.358082,1983,0,ɔ_s
1774424843.364022,2208,0,ɔ_s
1774424843.365033,1990,0,ɔ_s
1774424843.367556,1882,0,ɔ_s
1774424843.371242,1883,0,ɔ_s
1774424843.373067,2055,0,ɔ_s
1774424843.376062,2100,0,ɔ_s
1774424843.379061,1959,0,ɔ_s
1774424843.3838122,1950,0,ɔ_s
1774424843.3865979,1998,0,ɔ_s
1774424843.38851,1946,0,ɔ_s
1774424843.391894,1927,0,ɔ_s
1774424843.394437,2095,0,ɔ_s
1774424843.397002,2008,0,ɔ_s
1774424843.399924,1969,0,ɔ_s
1774424843.403842,1860,0,ɔ_s
1774424843.405979,2034,0,ɔ_s
1774424843.4099782,2098,0,ɔ_s
1774424843.412531,2044,0,ɔ_s
1774424843.415072,1859,0,ɔ_s
1774424843.417996,1968,0,ɔ_s
1774424843.421091,1933,0,ɔ_s
1774424843.424528,2024,0,ɔ_s
1774424843.427506,2055,0,ɔ_s
1774424843.4309142,2098,0,ɔ_s
1774424843.43364,1927,0,ɔ_s
1774424843.4361868,1890,0,ɔ_s
1774424843.438932,1937,0,ɔ_s
1774424843.4446778,2140,0,ɔ_s
1774424843.445323,2072,0,ɔ_s
1774424843.448231,1884,0,ɔ_s
1774424843.451721,1873,0,ɔ_s
1774424843.454347,1900,0,ɔ_s
1774424843.457014,2017,0,ɔ_s
1774424843.459959,2098,0,ɔ_s
1774424843.465754,2059,0,ɔ_s
1774424843.4661062,1963,0,ɔ_s
1774424843.469412,1951,0,ɔ_s
1774424843.472637,1914,0,ɔ_s
1774424843.475214,2066,0,ɔ_s
1774424843.477927,2090,0,ɔ_s
1774424843.4809752,1960,0,ɔ_s
1774424843.486123,1965,0,ɔ_s
1774424843.487484,1917,0,ɔ_s
1774424843.490329,1995,0,ɔ_s
1774424843.4938629,2084,0,ɔ_s
1774424843.4964218,2090,0,ɔ_s
1774424843.498964,1935,0,ɔ_s
1774424843.5019531,1973,0,ɔ_s
1774424843.5056589,1923,0,ɔ_s
1774424843.509006,2041,0,ɔ_s
1774424843.5116649,2062,0,ɔ_s
1774424843.514208,1959,0,ɔ_s
1774424843.516994,1957,0,ɔ_s
1774424843.519924,1927,0,ɔ_s
1774424843.5259001,1984,0,ɔ_s
1774424843.526552,2072,0,ɔ_s
1774424843.5297961,2107,0,ɔ_s
1774424843.532185,1949,0,ɔ_s
1774424843.534952,1903,0,ɔ_s
1774424843.53796,1903,0,ɔ_s
1774424843.540916,1991,0,ɔ_s
1774424843.5468612,2066,0,ɔ_s
1774424843.5472052,1989,0,ɔ_s
1774424843.550115,1960,0,ɔ_s
1774424843.5535932,1922,0,ɔ_s
1774424843.556242,1964,0,ɔ_s
1774424843.558958,2128,0,ɔ_s
1774424843.561955,2124,0,ɔ_s
1774424843.566952,1935,0,ɔ_s
1774424843.568568,1956,0,ɔ_s
1774424843.5724852,1889,0,ɔ_s
1774424843.575109,2005,0,ɔ_s
1774424843.576951,2079,0,ɔ_s
1774424843.580692,2003,0,ɔ_s
1774424843.583311,1975,0,ɔ_s
1774424843.587074,1970,0,ɔ_s
1774424843.5890582,1953,0,ɔ_s
1774424843.593,2040,0,ɔ_s
1774424843.595602,2075,0,ɔ_s
1774424843.598142,1919,0,ɔ_s
1774424843.6010041,1950,0,ɔ_s
1774424843.6039512,1914,0,ɔ_s
1774424843.60728,1989,0,ɔ_s
1774424843.610393,2087,0,ɔ_s
1774424843.613812,2063,0,ɔ_s
1774424843.616506,1952,0,ɔ_s
1774424843.6190562,1913,0,ɔ_s
1774424843.62195,1927,0,ɔ_s
1774424843.627317,2076,0,ɔ_s
1774424843.628662,2108,0,ɔ_s
1774424843.631354,1943,0,ɔ_s
1774424843.634916,1931,0,ɔ_s
1774424843.637578,1928,0,ɔ_s
1774424843.6401339,1995,0,ɔ_s
1774424843.642963,2064,0,ɔ_s
1774424843.648543,2082,0,ɔ_s
1774424843.649129,1948,0,ɔ_s
1774424843.6521149,1932,0,ɔ_s
1774424843.655607,1897,0,ɔ_s
1774424843.658221,2046,0,ɔ_s
1774424843.660917,2113,0,ɔ_s
1774424843.6639569,2059,0,ɔ_s
1774424843.668663,1934,0,ɔ_s
1774424843.670391,1836,0,ɔ_s
1774424843.6731882,1969,0,ɔ_s
1774424843.676673,2048,0,ɔ_s
1774424843.67921,2140,0,ɔ_s
1774424843.6819441,2015,0,ɔ_s
1774424843.684949,1942,0,ɔ_s
1774424843.69013,1889,0,ɔ_s
1774424843.6926851,2109,0,ɔ_s
1774424843.694147,2059,0,ɔ_s
1774424843.697715,1949,0,ɔ_s
1774424843.7002602,1905,0,ɔ_s
1774424843.702959,1958,0,ɔ_s
1774424843.7059689,1973,0,ɔ_s
1774424843.7098088,2042,0,ɔ_s
1774424843.7126698,2043,0,ɔ_s
1774424843.7161899,2014,0,ɔ_s
1774424843.717948,1850,0,ɔ_s
1774424843.720945,1844,0,ɔ_s
1774424843.7245388,2030,0,ɔ_s
1774424843.729876,2216,0,ɔ_s
1774424843.7308211,2007,0,ɔ_s
1774424843.733506,1866,0,ɔ_s
1774424843.736963,1915,0,ɔ_s
1774424843.739611,1995,0,ɔ_s
1774424843.74217,1991,0,ɔ_s
1774424843.744982,2073,0,ɔ_s
1774424843.750483,1971,0,ɔ_s
1774424843.7511098,2043,0,ɔ_s
1774424843.753993,1860,0,ɔ_s
1774424843.758484,1964,0,ɔ_s
1774424843.759999,2069,0,ɔ_s
1774424843.76301,2106,0,ɔ_s
1774424843.765986,1878,0,ɔ_s
1774424843.770637,1942,0,ɔ_s
1774424843.772416,1919,0,ɔ_s
1774424843.776412,2011,0,ɔ_s
1774424843.778749,2062,0,ɔ_s
1774424843.781302,2023,0,ɔ_s
1774424843.78385,2082,0,ɔ_s
1774424843.78684,1787,0,ɔ_s
1774424843.791602,1911,0,ɔ_s
1774424843.7931662,2058,0,ɔ_s
1774424843.795912,2064,0,ɔ_s
1774424843.799395,1930,0,ɔ_s
1774424843.801936,1957,0,ɔ_s
1774424843.8048031,1959,0,ɔ_s
1774424843.807822,2094,0,ɔ_s
1774424843.812445,2054,0,ɔ_s
1774424843.8153331,2007,0,ɔ_s
1774424843.817638,1974,0,ɔ_s
1774424843.82025,1919,0,ɔ_s
1774424843.8228202,1938,0,ɔ_s
1774424843.825866,2075,0,ɔ_s
1774424843.8323321,2077,0,ɔ_s
1774424843.832648,1911,0,ɔ_s
1774424843.835695,1927,0,ɔ_s
1774424843.837952,1905,0,ɔ_s
1774424843.840804,2080,0,ɔ_s
1774424843.843798,2136,0,ɔ_s
1774424843.8474,2054,0,ɔ_s
1774424843.852663,1967,0,ɔ_s
1774424843.853516,1856,0,ɔ_s
1774424843.856247,1911,0,ɔ_s
1774424843.859732,2052,0,ɔ_s
1774424843.862402,2090,0,ɔ_s
1774424843.864949,1940,0,ɔ_s
1774424843.867824,1996,0,ɔ_s
1774424843.873066,1944,0,ɔ_s
1774424843.874605,1964,0,ɔ_s
1774424843.879593,2064,0,ɔ_s
1774424843.879843,2034,0,ɔ_s
1774424843.882847,1939,0,ɔ_s
1774424843.88584,1936,0,ɔ_s
1774424843.888831,1946,0,ɔ_s
1774424843.895156,2064,0,ɔ_s
1774424843.895243,2063,0,ɔ_s
1774424843.899132,1948,0,ɔ_s
1774424843.901851,1962,0,ɔ_s
1774424843.904404,1911,0,ɔ_s
1774424843.906955,1993,0,ɔ_s
1774424843.9098492,2086,0,ɔ_s
1774424843.913358,2055,0,ɔ_s
1774424843.916279,1898,0,ɔ_s
1774424843.9199,1924,0,ɔ_s
1774424843.921825,1935,0,ɔ_s
1774424843.924833,2068,0,ɔ_s
1774424843.92783,2076,0,ɔ_s
1774424843.933824,1930,0,ɔ_s
1774424843.934464,1982,0,ɔ_s
1774424843.9374452,1930,0,ɔ_s
1774424843.94092,1969,0,ɔ_s
1774424843.9428768,2058,0,ɔ_s
1774424843.945832,2075,0,ɔ_s
1774424843.948842,1939,0,ɔ_s
1774424843.95385,1919,0,ɔ_s
1774424843.956005,1927,0,ɔ_s
1774424843.9579709,2002,0,ɔ_s
1774424843.9625118,2120,0,ɔ_s
1774424843.963837,2022,0,ɔ_s
1774424843.966824,1973,0,ɔ_s
1774424843.969794,1885,0,ɔ_s
1774424843.974729,1936,0,ɔ_s
1774424843.9762912,2082,0,ɔ_s
1774424843.979081,2062,0,ɔ_s
1774424843.98259,1920,0,ɔ_s
1774424843.98513,1945,0,ɔ_s
1774424843.987838,1943,0,ɔ_s
1774424843.990846,2014,0,ɔ_s
1774424843.994859,2059,0,ɔ_s
1774424843.997636,2011,0,ɔ_s
1774424844.000509,1971,0,ɔ_s
1774424844.003048,1903,0,ɔ_s
1774424844.0058172,1921,0,ɔ_s
1774424844.008789,2089,0,ɔ_s
1774424844.011884,2207,0,ɔ_s
1774424844.0151832,1855,0,ɔ_s
1774424844.018262,1921,0,ɔ_s
1774424844.021718,1905,0,ɔ_s
1774424844.024375,2123,0,ɔ_s
1774424844.026929,2147,0,ɔ_s
1774424844.02972,1943,0,ɔ_s
1774424844.036057,1920,0,ɔ_s
1774424844.036449,1957,0,ɔ_s
1774424844.038841,1903,0,ɔ_s
1774424844.042774,2011,0,ɔ_s
1774424844.045362,2126,0,ɔ_s
1774424844.047905,2014,0,ɔ_s
1774424844.050716,1872,0,ɔ_s
1774424844.055935,1799,0,ɔ_s
1774424844.057573,2031,0,ɔ_s
1774424844.060367,2203,0,ɔ_s
1774424844.063662,2024,0,ɔ_s
1774424844.066208,1826,0,ɔ_s
1774424844.068724,1940,0,ɔ_s
1774424844.0717142,1891,0,ɔ_s
1774424844.07626,2009,0,ɔ_s
1774424844.078114,2048,0,ɔ_s
1774424844.0808299,2064,0,ɔ_s
1774424844.083887,2000,0,ɔ_s
1774424844.086679,1836,0,ɔ_s
1774424844.089695,1965,0,ɔ_s
1774424844.092723,2135,0,ɔ_s
1774424844.1017458,2067,0,ɔ_s
1774424844.105302,1886,0,ɔ_s
1774424844.106954,1918,0,ɔ_s
1774424844.107363,1962,0,ɔ_s
1774424844.10889,2007,0,ɔ_s
1774424844.111337,2076,0,ɔ_s
1774424844.1137128,2023,0,ɔ_s
1774424844.116881,2090,0,ɔ_s
1774424844.1261828,1834,0,ɔ_s
1774424844.129298,1946,0,ɔ_s
1774424844.131854,2036,0,ɔ_s
1774424844.134283,2155,0,ɔ_s
1774424844.134329,1879,0,ɔ_s
1774424844.134809,1944,0,ɔ_s
1774424844.137696,1857,0,ɔ_s
1774424844.14078,2005,0,ɔ_s
1774424844.146789,2125,0,ɔ_s
1774424844.1499689,2001,0,ɔ_s
1774424844.150306,1939,0,ɔ_s
1774424844.154582,1925,0,ɔ_s
1774424844.156132,1911,0,ɔ_s
1774424844.158669,2094,0,ɔ_s
1774424844.162343,2087,0,ɔ_s
1774424844.167381,1927,0,ɔ_s
1774424844.1680121,1951,0,ɔ_s
1774424844.1714969,1961,0,ɔ_s
1774424844.175026,2038,0,ɔ_s
1774424844.1766982,2033,0,ɔ_s
1774424844.179704,2049,0,ɔ_s
1774424844.18267,1954,0,ɔ_s
1774424844.187689,1923,0,ɔ_s
1774424844.1896582,1926,0,ɔ_s
1774424844.192652,2035,0,ɔ_s
1774424844.194769,2098,0,ɔ_s
1774424844.197748,1951,0,ɔ_s
1774424844.2006972,1968,0,ɔ_s
1774424844.203679,1904,0,ɔ_s
1774424844.2080152,1994,0,ɔ_s
1774424844.209985,2087,0,ɔ_s
1774424844.2128341,2054,0,ɔ_s
1774424844.216311,1901,0,ɔ_s
1774424844.2188532,1909,0,ɔ_s
1774424844.2217119,1920,0,ɔ_s
1774424844.2246919,2064,0,ɔ_s
1774424844.22871,2105,0,ɔ_s
1774424844.2318962,1956,0,ɔ_s
1774424844.234665,1967,0,ɔ_s
1774424844.237299,1971,0,ɔ_s
1774424844.239846,1962,0,ɔ_s
1774424844.2427058,2051,0,ɔ_s
1774424844.248928,2040,0,ɔ_s
1774424844.249005,1917,0,ɔ_s
1774424844.252243,1946,0,ɔ_s
1774424844.2558029,1905,0,ɔ_s
1774424844.257683,2018,0,ɔ_s
1774424844.260684,2091,0,ɔ_s
1774424844.2636878,2025,0,ɔ_s
1774424844.269273,1969,0,ɔ_s
1774424844.269652,1893,0,ɔ_s
1774424844.2727401,1949,0,ɔ_s
1774424844.276455,2054,0,ɔ_s
1774424844.2791429,2090,0,ɔ_s
1774424844.281985,1917,0,ɔ_s
1774424844.284655,1953,0,ɔ_s
1774424844.28996,1955,0,ɔ_s
1774424844.292395,2029,0,ɔ_s
1774424844.29478,2076,0,ɔ_s
1774424844.298534,2007,0,ɔ_s
1774424844.300394,1975,0,ɔ_s
1774424844.302957,1922,0,ɔ_s
1774424844.3055649,1948,0,ɔ_s
1774424844.3085701,2076,0,ɔ_s
1774424844.313107,2114,0,ɔ_s
1774424844.314968,1949,0,ɔ_s
1774424844.3181481,1932,0,ɔ_s
1774424844.321074,1919,0,ɔ_s
1774424844.323648,2025,0,ɔ_s
1774424844.326565,2087,0,ɔ_s
1774424844.329547,2031,0,ɔ_s
1774424844.333854,1922,0,ɔ_s
1774424844.336072,1934,0,ɔ_s
1774424844.338955,1971,0,ɔ_s
1774424844.342437,2101,0,ɔ_s
1774424844.344992,2136,0,ɔ_s
1774424844.347553,1901,0,ɔ_s
1774424844.35065,1919,0,ɔ_s
1774424844.353909,1883,0,ɔ_s
1774424844.357184,2035,0,ɔ_s
1774424844.35972,2079,0,ɔ_s
1774424844.362561,2152,0,ɔ_s
1774424844.365559,1865,0,ɔ_s
1774424844.368557,1939,0,ɔ_s
1774424844.374777,1964,0,ɔ_s
1774424844.3754041,1979,0,ɔ_s
1774424844.377727,2007,0,ɔ_s
1774424844.3816068,1957,0,ɔ_s
1774424844.383559,2026,0,ɔ_s
1774424844.386554,1889,0,ɔ_s
1774424844.3895528,1903,0,ɔ_s
1774424844.395492,2170,0,ɔ_s
1774424844.395863,2126,0,ɔ_s
1774424844.3987148,1859,0,ɔ_s
1774424844.402379,1851,0,ɔ_s
1774424844.404929,1980,0,ɔ_s
1774424844.4075708,2090,0,ɔ_s
1774424844.4105952,2052,0,ɔ_s
1774424844.415443,1910,0,ɔ_s
1774424844.417015,1976,0,ɔ_s
1774424844.421046,1946,0,ɔ_s
1774424844.423363,1898,0,ɔ_s
1774424844.4259148,2122,0,ɔ_s
1774424844.42855,2130,0,ɔ_s
1774424844.432064,1978,0,ɔ_s
1774424844.435831,1849,0,ɔ_s
1774424844.437537,1886,0,ɔ_s
1774424844.44189,2068,0,ɔ_s
1774424844.444475,2090,0,ɔ_s
1774424844.4470289,1997,0,ɔ_s
1774424844.4495869,1975,0,ɔ_s
1774424844.455621,1920,0,ɔ_s
1774424844.455978,1878,0,ɔ_s
1774424844.459553,2035,0,ɔ_s
1774424844.461971,2130,0,ɔ_s
1774424844.46454,2029,0,ɔ_s
1774424844.467584,1881,0,ɔ_s
1774424844.470547,1863,0,ɔ_s
1774424844.4768279,1959,0,ɔ_s
1774424844.477209,2072,0,ɔ_s
1774424844.480493,2052,0,ɔ_s
1774424844.4843662,1978,0,ɔ_s
1774424844.48591,1935,0,ɔ_s
1774424844.488578,1967,0,ɔ_s
1774424844.491572,2098,0,ɔ_s
1774424844.496563,2098,0,ɔ_s
1774424844.498379,1937,0,ɔ_s
1774424844.502213,1945,0,ɔ_s
1774424844.51184,1934,0,ɔ_s
1774424844.534359,1993,0,ɔ_s
1774424844.534445,2088,0,ɔ_s
1774424844.5344892,2094,0,ɔ_s
1774424844.534521,1919,0,ɔ_s
1774424844.534543,1950,0,ɔ_s
1774424844.534564,1954,0,ɔ_s
1774424844.534636,2083,0,ɔ_s
1774424844.534658,2061,0,ɔ_s
1774424844.53477,1935,0,ɔ_s
1774424844.534855,1941,0,ɔ_s
1774424844.5465112,1917,0,ɔ_s
1774424844.546769,1989,0,ɔ_s
1774424844.5469818,2075,0,ɔ_s
1774424844.547083,2095,0,ɔ_s
1774424844.548558,1986,0,ɔ_s
1774424844.5514839,1933,0,ɔ_s
1774424844.554455,1915,0,ɔ_s
1774424844.559509,1983,0,ɔ_s
1774424844.5613902,2064,0,ɔ_s
1774424844.56431,1990,0,ɔ_s
1774424844.5665221,1961,0,ɔ_s
1774424844.569483,1893,0,ɔ_s
1774424844.57241,1957,0,ɔ_s
1774424844.57543,2088,0,ɔ_s
1774424844.580915,2077,0,ɔ_s
1774424844.582033,1934,0,ɔ_s
1774424844.585866,1950,0,ɔ_s
1774424844.588638,1957,0,ɔ_s
1774424844.590463,2007,0,ɔ_s
1774424844.5935,2057,0,ɔ_s
1774424844.596467,2039,0,ɔ_s
1774424844.599991,1972,0,ɔ_s
1774424844.6026812,1929,0,ɔ_s
1774424844.6065211,1925,0,ɔ_s
1774424844.608425,2083,0,ɔ_s
1774424844.6120079,2075,0,ɔ_s
1774424844.614553,1915,0,ɔ_s
1774424844.6207008,1934,0,ɔ_s
1774424844.62129,1943,0,ɔ_s
1774424844.6239219,2024,0,ɔ_s
1774424844.627487,2084,0,ɔ_s
1774424844.629452,2066,0,ɔ_s
1774424844.632457,1979,0,ɔ_s
1774424844.6354492,1905,0,ɔ_s
1774424844.640786,1903,0,ɔ_s
1774424844.642741,2026,0,ɔ_s
1774424844.644655,2105,0,ɔ_s
1774424844.64891,1969,0,ɔ_s
1774424844.650451,1971,0,ɔ_s
1774424844.653426,1894,0,ɔ_s
1774424844.656426,1952,0,ɔ_s
1774424844.661516,2100,0,ɔ_s
1774424844.66289,2093,0,ɔ_s
1774424844.6657531,1976,0,ɔ_s
1774424844.66925,1905,0,ɔ_s
1774424844.671797,1934,0,ɔ_s
1774424844.674464,2039,0,ɔ_s
1774424844.677449,2074,0,ɔ_s
1774424844.681964,1945,0,ɔ_s
1774424844.683739,2007,0,ɔ_s
1774424844.687652,1854,0,ɔ_s
1774424844.690034,1920,0,ɔ_s
1774424844.692585,2144,0,ɔ_s
1774424844.695458,2106,0,ɔ_s
1774424844.698425,1844,0,ɔ_s
1774424844.70209,1894,0,ɔ_s
1774424844.7055502,1943,0,ɔ_s
1774424844.7083552,2030,0,ɔ_s
1774424844.710909,2056,0,ɔ_s
1774424844.713459,2072,0,ɔ_s
1774424844.716434,1907,0,ɔ_s
1774424844.7224991,1917,0,ɔ_s
1774424844.722846,1920,0,ɔ_s
1774424844.726136,2132,0,ɔ_s
1774424844.729554,2083,0,ɔ_s
1774424844.73145,1928,0,ɔ_s
1774424844.734453,1915,0,ɔ_s
1774424844.7374458,1952,0,ɔ_s
1774424844.7429628,1955,0,ɔ_s
1774424844.743625,2082,0,ɔ_s
1774424844.746527,2052,0,ɔ_s
1774424844.75006,2085,0,ɔ_s
1774424844.752718,1853,0,ɔ_s
1774424844.755444,1871,0,ɔ_s
1774424844.7584388,2075,0,ɔ_s
1774424844.763707,2100,0,ɔ_s
1774424844.7654521,1864,0,ɔ_s
1774424844.76756,2037,0,ɔ_s
1774424844.771602,1920,0,ɔ_s
1774424844.773452,2019,0,ɔ_s
1774424844.776424,1990,0,ɔ_s
1774424844.77942,2091,0,ɔ_s
1774424844.783839,2043,0,ɔ_s
1774424844.785642,1874,0,ɔ_s
1774424844.789557,1850,0,ɔ_s
1774424844.792181,2029,0,ɔ_s
1774424844.7947378,2059,0,ɔ_s
1774424844.797345,1967,0,ɔ_s
1774424844.800353,1961,0,ɔ_s
1774424844.803981,1913,0,ɔ_s
1774424844.8073869,2025,0,ɔ_s
1774424844.809742,2086,0,ɔ_s
1774424844.8123431,2060,0,ɔ_s
1774424844.815329,1942,0,ɔ_s
1774424844.818329,1916,0,ɔ_s
1774424844.8241222,1907,0,ɔ_s
1774424844.824746,2042,0,ɔ_s
1774424844.828017,2082,0,ɔ_s
1774424844.830338,1997,0,ɔ_s
1774424844.833832,1985,0,ɔ_s
1774424844.836378,1893,0,ɔ_s
1774424844.839919,1971,0,ɔ_s
1774424844.844717,2074,0,ɔ_s
1774424844.8456168,2074,0,ɔ_s
1774424844.8484201,1943,0,ɔ_s
1774424844.852195,1947,0,ɔ_s
1774424844.854945,1904,0,ɔ_s
1774424844.857504,2042,0,ɔ_s
1774424844.8603761,2068,0,ɔ_s
1774424844.865062,1996,0,ɔ_s
1774424844.866977,1960,0,ɔ_s
1774424844.87088,1919,0,ɔ_s
1774424844.872396,1942,0,ɔ_s
1774424844.875325,2054,0,ɔ_s
1774424844.878304,2101,0,ɔ_s
1774424844.8813381,1947,0,ɔ_s
1774424844.885463,1963,0,ɔ_s
1774424844.888777,1935,0,ɔ_s
1774424844.8914728,2009,0,ɔ_s
1774424844.893787,2085,0,ɔ_s
1774424844.896346,2015,0,ɔ_s
1774424844.899335,1969,0,ɔ_s
1774424844.902345,1926,0,ɔ_s
1774424844.90561,1915,0,ɔ_s
1774424844.909364,2068,0,ɔ_s
1774424844.91144,2123,0,ɔ_s
1774424844.914326,1914,0,ɔ_s
1774424844.9173398,1919,0,ɔ_s
1774424844.9203231,1893,0,ɔ_s
1774424844.9266229,2011,0,ɔ_s
1774424844.92667,2070,0,ɔ_s
1774424844.929805,2048,0,ɔ_s
1774424844.9333491,1946,0,ɔ_s
1774424844.9353092,1932,0,ɔ_s
1774424844.9383109,1921,0,ɔ_s
1774424844.9412842,2072,0,ɔ_s
1774424844.9470239,2067,0,ɔ_s
1774424844.9486709,1986,0,ɔ_s
1774424844.9507358,1952,0,ɔ_s
1774424844.9540212,1901,0,ɔ_s
1774424844.9565701,1963,0,ɔ_s
1774424844.959324,2070,0,ɔ_s
1774424844.962291,2081,0,ɔ_s
1774424844.9668748,1933,0,ɔ_s
1774424844.9687092,1955,0,ɔ_s
1774424844.971513,1920,0,ɔ_s
1774424844.975042,2018,0,ɔ_s
1774424844.977588,2051,0,ɔ_s
1774424844.980327,2009,0,ɔ_s
1774424844.9833322,1984,0,ɔ_s
1774424844.986856,1901,0,ɔ_s
1774424844.989933,1970,0,ɔ_s
1774424844.993401,2109,0,ɔ_s
1774424844.995303,2130,0,ɔ_s
1774424844.9983318,1886,0,ɔ_s
1774424845.0013251,1906,0,ɔ_s
1774424845.007346,1916,0,ɔ_s
1774424845.007744,2035,0,ɔ_s
1774424845.0106869,2051,0,ɔ_s
1774424845.014282,2055,0,ɔ_s
1774424845.0167098,1897,0,ɔ_s
1774424845.019306,1918,0,ɔ_s
1774424845.0222878,2020,0,ɔ_s
1774424845.027979,2014,0,ɔ_s
1774424845.0285928,2034,0,ɔ_s
1774424845.031391,1992,0,ɔ_s
1774424845.034983,1999,0,ɔ_s
1774424845.037638,1867,0,ɔ_s
1774424845.040334,1924,0,ɔ_s
1774424845.043332,2107,0,ɔ_s
1774424845.048308,2055,0,ɔ_s
1774424845.049855,1914,0,ɔ_s
1774424845.0525372,1922,0,ɔ_s
1774424845.056025,2034,0,ɔ_s
1774424845.058574,2046,0,ɔ_s
1774424845.0612102,2006,0,ɔ_s
1774424845.064203,1900,0,ɔ_s
1774424845.06839,2072,0,ɔ_s
1774424845.070615,1923,0,ɔ_s
1774424845.074464,1911,0,ɔ_s
1774424845.077158,2080,0,ɔ_s
1774424845.079722,2093,0,ɔ_s
1774424845.082277,1915,0,ɔ_s
1774424845.0851898,1907,0,ɔ_s
1774424845.088612,1953,0,ɔ_s
1774424845.091852,2160,0,ɔ_s
1774424845.095316,2030,0,ɔ_s
1774424845.097216,1866,0,ɔ_s
1774424845.100208,1958,0,ɔ_s
1774424845.103199,1988,0,ɔ_s
1774424845.109448,1978,0,ɔ_s
1774424845.110055,2045,0,ɔ_s
1774424845.113471,2080,0,ɔ_s
1774424845.11527,1913,0,ɔ_s
1774424845.1182039,1916,0,ɔ_s
1774424845.121176,1919,0,ɔ_s
1774424845.1241941,2036,0,ɔ_s
1774424845.130059,2065,0,ɔ_s
1774424845.1303759,1975,0,ɔ_s
1774424845.13346,1971,0,ɔ_s
1774424845.1367161,1889,0,ɔ_s
1774424845.139306,1993,0,ɔ_s
1774424845.1421812,2090,0,ɔ_s
1774424845.145223,2095,0,ɔ_s
1774424845.15025,1955,0,ɔ_s
1774424845.15186,1951,0,ɔ_s
1774424845.15585,1927,0,ɔ_s
1774424845.157256,1998,0,ɔ_s
1774424845.160204,2093,0,ɔ_s
1774424845.163201,2021,0,ɔ_s
1774424845.1661692,1966,0,ɔ_s
1774424845.170469,1913,0,ɔ_s
1774424845.17234,1944,0,ɔ_s
1774424845.176172,2094,0,ɔ_s
1774424845.178752,2084,0,ɔ_s
1774424845.181294,1916,0,ɔ_s
1774424845.184196,1930,0,ɔ_s
1774424845.187211,1947,0,ɔ_s
1774424845.190573,2013,0,ɔ_s
1774424845.1938748,2055,0,ɔ_s
1774424845.1973708,2010,0,ɔ_s
1774424845.199223,1952,0,ɔ_s
1774424845.202189,1962,0,ɔ_s
1774424845.205199,1930,0,ɔ_s
1774424845.211242,2066,0,ɔ_s
1774424845.211922,2064,0,ɔ_s
1774424845.214676,1925,0,ɔ_s
1774424845.218123,1948,0,ɔ_s
1774424845.220876,1905,0,ɔ_s
1774424845.223424,2035,0,ɔ_s
1774424845.2262669,2103,0,ɔ_s
1774424845.231754,2072,0,ɔ_s
1774424845.232417,1927,0,ɔ_s
1774424845.235282,1902,0,ɔ_s
1774424845.2388659,1941,0,ɔ_s
1774424845.241415,2051,0,ɔ_s
1774424845.244173,2088,0,ɔ_s
1774424845.247175,1975,0,ɔ_s
1774424845.251488,1986,0,ɔ_s
1774424845.253616,1886,0,ɔ_s
1774424845.2562711,1936,0,ɔ_s
1774424845.2600052,2050,0,ɔ_s
1774424845.2625542,2100,0,ɔ_s
1774424845.2652009,1970,0,ɔ_s
1774424845.268196,1934,0,ɔ_s
1774424845.272393,1936,0,ɔ_s
1774424845.275361,2040,0,ɔ_s
1774424845.2782028,2057,0,ɔ_s
1774424845.2807648,1959,0,ɔ_s
1774424845.283306,1939,0,ɔ_s
1774424845.2862,1922,0,ɔ_s
1774424845.289204,1977,0,ɔ_s
1774424845.292973,2063,0,ɔ_s
1774424845.296455,2074,0,ɔ_s
1774424845.298528,1945,0,ɔ_s
1774424845.3011992,2027,0,ɔ_s
1774424845.304176,2038,0,ɔ_s
1774424845.307199,1914,0,ɔ_s
1774424845.313357,2015,0,ɔ_s
1774424845.313685,2028,0,ɔ_s
1774424845.3166158,1943,0,ɔ_s
1774424845.319987,1927,0,ɔ_s
1774424845.3227699,1956,0,ɔ_s
1774424845.3253188,2106,0,ɔ_s
1774424845.328204,2144,0,ɔ_s
1774424845.3337312,1979,0,ɔ_s
1774424845.334353,1846,0,ɔ_s
1774424845.337287,1881,0,ɔ_s
1774424845.340925,2015,0,ɔ_s
1774424845.343466,2138,0,ɔ_s
1774424845.346047,2001,0,ɔ_s
1774424845.349916,1987,0,ɔ_s
1774424845.3536441,1877,0,ɔ_s
1774424845.3554492,1899,0,ɔ_s
1774424845.358346,2026,0,ɔ_s
1774424845.361875,2143,0,ɔ_s
1774424845.364428,1947,0,ɔ_s
1774424845.3670652,2000,0,ɔ_s
1774424845.3700612,1827,0,ɔ_s
1774424845.3740869,2028,0,ɔ_s
1774424845.376917,2044,0,ɔ_s
1774424845.379968,2039,0,ɔ_s
1774424845.382514,1919,0,ɔ_s
1774424845.385053,1996,0,ɔ_s
1774424845.388038,1914,0,ɔ_s
1774424845.391059,2039,0,ɔ_s
1774424845.3942301,2062,0,ɔ_s
1774424845.397442,2049,0,ɔ_s
1774424845.40017,1942,0,ɔ_s
1774424845.4030359,1859,0,ɔ_s
1774424845.406027,1954,0,ɔ_s
1774424845.4090261,2125,0,ɔ_s
1774424845.414634,2050,0,ɔ_s
1774424845.415211,1905,0,ɔ_s
1774424845.4180632,1920,0,ɔ_s
1774424845.421738,2037,0,ɔ_s
1774424845.424482,2002,0,ɔ_s
1774424845.4270542,2064,0,ɔ_s
1774424845.430028,1984,0,ɔ_s
1774424845.4359229,1927,0,ɔ_s
1774424845.436609,1876,0,ɔ_s
1774424845.4390762,1951,0,ɔ_s
1774424845.443181,2087,0,ɔ_s
1774424845.445038,2101,0,ɔ_s
1774424845.4480362,1963,0,ɔ_s
1774424845.4510348,1947,0,ɔ_s
1774424845.455656,1951,0,ɔ_s
1774424845.457658,2040,0,ɔ_s
1774424845.4617531,2048,0,ɔ_s
1774424845.46316,2009,0,ɔ_s
1774424845.466034,1963,0,ɔ_s
1774424845.469034,1947,0,ɔ_s
1774424845.472034,1918,0,ɔ_s
1774424845.4760032,2088,0,ɔ_s
1774424845.479255,2108,0,ɔ_s
1774424845.4811342,1922,0,ɔ_s
1774424845.48467,1957,0,ɔ_s
1774424845.487212,1938,0,ɔ_s
1774424845.4900422,2008,0,ɔ_s
1774424845.495863,2080,0,ɔ_s
1774424845.496227,2000,0,ɔ_s
1774424845.499413,1948,0,ɔ_s
1774424845.5029,1944,0,ɔ_s
1774424845.505343,1937,0,ɔ_s
1774424845.508041,2066,0,ɔ_s
1774424845.5110478,2100,0,ɔ_s
1774424845.51859,1966,0,ɔ_s
1774424845.518657,1914,0,ɔ_s
1774424845.520171,1896,0,ɔ_s
1774424845.52371,1992,0,ɔ_s
1774424845.526407,2085,0,ɔ_s
1774424845.529048,2066,0,ɔ_s
1774424845.532059,1920,0,ɔ_s
1774424845.537048,1913,0,ɔ_s
1774424845.538699,1909,0,ɔ_s
1774424845.54366,2064,0,ɔ_s
1774424845.544093,2075,0,ɔ_s
1774424845.5470662,1956,0,ɔ_s
1774424845.5500631,1962,0,ɔ_s
1774424845.5537128,1941,0,ɔ_s
1774424845.556842,1959,0,ɔ_s
1774424845.559103,2062,0,ɔ_s
1774424845.563082,2069,0,ɔ_s
1774424845.565656,1952,0,ɔ_s
1774424845.5681942,1951,0,ɔ_s
1774424845.571062,1930,0,ɔ_s
1774424845.5742059,2050,0,ɔ_s
1774424845.5773902,2109,0,ɔ_s
1774424845.580555,1970,0,ɔ_s
1774424845.584089,1913,0,ɔ_s
1774424845.5868402,1909,0,ɔ_s
1774424845.5893939,1984,0,ɔ_s
1774424845.592051,2106,0,ɔ_s
1774424845.5980868,2045,0,ɔ_s
1774424845.598188,1919,0,ɔ_s
1774424845.602171,1927,0,ɔ_s
1774424845.6042838,2059,0,ɔ_s
1774424845.607056,1964,0,ɔ_s
1774424845.610053,2037,0,ɔ_s
1774424845.613052,2062,0,ɔ_s
1774424845.618494,1986,0,ɔ_s
1774424845.6197991,1879,0,ɔ_s
1774424845.622717,1852,0,ɔ_s
1774424845.626168,2116,0,ɔ_s
1774424845.628083,2094,0,ɔ_s
1774424845.631055,1893,0,ɔ_s
1774424845.6339269,1905,0,ɔ_s
1774424845.639637,1923,0,ɔ_s
1774424845.6412642,2015,0,ɔ_s
1774424845.642943,2027,0,ɔ_s
1774424845.646461,2092,0,ɔ_s
1774424845.649018,2012,0,ɔ_s
1774424845.651925,1936,0,ɔ_s
1774424845.6557062,1834,0,ɔ_s
1774424845.6593988,2057,0,ɔ_s
1774424845.661002,2078,0,ɔ_s
1774424845.665029,1964,0,ɔ_s
1774424845.66759,1968,0,ɔ_s
1774424845.6701398,1947,0,ɔ_s
1774424845.672958,2006,0,ɔ_s
1774424845.6759639,2026,0,ɔ_s
1774424845.679771,2081,0,ɔ_s
1774424845.683339,2056,0,ɔ_s
1774424845.686643,1877,0,ɔ_s
1774424845.688183,1902,0,ɔ_s
1774424845.690986,2015,0,ɔ_s
1774424845.693959,2106,0,ɔ_s
1774424845.699991,1878,0,ɔ_s
1774424845.700373,1978,0,ɔ_s
1774424845.703893,1938,0,ɔ_s
1774424845.705991,2107,0,ɔ_s
1774424845.708949,2034,0,ɔ_s
1774424845.711956,2078,0,ɔ_s
1774424845.7149482,1931,0,ɔ_s
1774424845.720068,1961,0,ɔ_s
1774424845.722194,1840,0,ɔ_s
1774424845.724266,2034,0,ɔ_s
1774424845.727581,2022,0,ɔ_s
1774424845.7301419,2007,0,ɔ_s
1774424845.732955,1956,0,ɔ_s
1774424845.735942,1893,0,ɔ_s
1774424845.7403579,1974,0,ɔ_s
1774424845.7424982,2059,0,ɔ_s
1774424845.745266,2104,0,ɔ_s
1774424845.748651,1939,0,ɔ_s
1774424845.751214,1939,0,ɔ_s
1774424845.753967,1929,0,ɔ_s
1774424845.756938,2003,0,ɔ_s
1774424845.7613928,2096,0,ɔ_s
1774424845.763008,2030,0,ɔ_s
1774424845.7668521,1978,0,ɔ_s
1774424845.7694101,1922,0,ɔ_s
1774424845.771956,1964,0,ɔ_s
1774424845.774909,2072,0,ɔ_s
1774424845.777956,2049,0,ɔ_s
1774424845.781589,1931,0,ɔ_s
1774424845.7845278,1930,0,ɔ_s
1774424845.7879539,1926,0,ɔ_s
1774424845.789958,2017,0,ɔ_s
1774424845.793613,2067,0,ɔ_s
1774424845.796156,2034,0,ɔ_s
1774424845.802075,1942,0,ɔ_s
1774424845.8032799,1942,0,ɔ_s
1774424845.805546,1928,0,ɔ_s
1774424845.809015,2040,0,ɔ_s
1774424845.810949,2062,0,ɔ_s
1774424845.813961,1959,0,ɔ_s
1774424845.816967,1941,0,ɔ_s
1774424845.8221068,1871,0,ɔ_s
1774424845.823926,1988,0,ɔ_s
1774424845.8260648,2098,0,ɔ_s
1774424845.830482,2059,0,ɔ_s
1774424845.831947,1924,0,ɔ_s
1774424845.8350039,1916,0,ɔ_s
1774424845.8379211,1898,0,ɔ_s
1774424845.843075,2035,0,ɔ_s
1774424845.844379,2059,0,ɔ_s
1774424845.84729,1962,0,ɔ_s
1774424845.8509262,1975,0,ɔ_s
1774424845.853476,1946,0,ɔ_s
1774424845.856027,2004,0,ɔ_s
1774424845.859004,2054,0,ɔ_s
1774424845.863072,2038,0,ɔ_s
1774424845.865043,1927,0,ɔ_s
1774424845.868911,1922,0,ɔ_s
1774424845.871506,1943,0,ɔ_s
1774424845.874062,2069,0,ɔ_s
1774424845.8769531,2075,0,ɔ_s
1774424845.8800151,1995,0,ɔ_s
1774424845.883426,1963,0,ɔ_s
1774424845.886373,1906,0,ɔ_s
1774424845.889707,1997,0,ɔ_s
1774424845.8923671,2031,0,ɔ_s
1774424845.8949308,2031,0,ɔ_s
1774424845.897943,1958,0,ɔ_s
1774424845.9036548,1960,0,ɔ_s
1774424845.904326,1934,0,ɔ_s
1774424845.9074,2034,0,ɔ_s
1774424845.910918,2080,0,ɔ_s
1774424845.91359,2030,0,ɔ_s
1774424845.9161432,1947,0,ɔ_s
1774424845.918942,1889,0,ɔ_s
1774424845.924448,1994,0,ɔ_s
1774424845.92512,2176,0,ɔ_s
1774424845.9285781,1992,0,ɔ_s
1774424845.9313972,1859,0,ɔ_s
1774424845.9339561,1950,0,ɔ_s
1774424845.936805,1930,0,ɔ_s
1774424845.9398022,1979,0,ɔ_s
1774424845.944431,2109,0,ɔ_s
1774424845.946468,1974,0,ɔ_s
1774424845.950498,1930,0,ɔ_s
1774424845.951961,2080,0,ɔ_s
1774424845.9548001,1987,0,ɔ_s
1774424845.958422,1929,0,ɔ_s
1774424845.96097,1991,0,ɔ_s
1774424845.9648168,1951,0,ɔ_s
1774424845.9680262,2005,0,ɔ_s
1774424845.9709618,1916,0,ɔ_s
1774424845.9733498,2078,0,ɔ_s
1774424845.9759161,2078,0,ɔ_s
1774424845.978803,2015,0,ɔ_s
1774424845.985043,1884,0,ɔ_s
1774424845.985448,1940,0,ɔ_s
1774424845.988415,1989,0,ɔ_s
1774424845.991786,2056,0,ɔ_s
1774424845.993797,2002,0,ɔ_s
1774424845.996795,1960,0,ɔ_s
1774424845.999837,1940,0,ɔ_s
1774424846.005528,1902,0,ɔ_s
1774424846.005924,1983,0,ɔ_s
1774424846.008893,2141,0,ɔ_s
1774424846.0125031,2058,0,ɔ_s
1774424846.0151622,1915,0,ɔ_s
1774424846.017802,1927,0,ɔ_s
1774424846.020797,2048,0,ɔ_s
1774424846.025488,1993,0,ɔ_s
1774424846.027411,2021,0,ɔ_s
1774424846.03121,2010,0,ɔ_s
1774424846.033646,1957,0,ɔ_s
1774424846.0361972,1895,0,ɔ_s
1774424846.038799,1972,0,ɔ_s
1774424846.0418031,2157,0,ɔ_s
1774424846.04725,2077,0,ɔ_s
1774424846.04788,1816,0,ɔ_s
1774424846.051053,1871,0,ɔ_s
1774424846.054558,1931,0,ɔ_s
1774424846.0572522,2015,0,ɔ_s
1774424846.059801,2056,0,ɔ_s
1774424846.062827,2049,0,ɔ_s
1774424846.0673249,1965,0,ɔ_s
1774424846.069262,1914,0,ɔ_s
1774424846.0720189,1970,0,ɔ_s
1774424846.075588,2070,0,ɔ_s
1774424846.078136,2078,0,ɔ_s
1774424846.080827,1967,0,ɔ_s
1774424846.0838258,1933,0,ɔ_s
1774424846.088125,1915,0,ɔ_s
1774424846.091337,2023,0,ɔ_s
1774424846.094002,2069,0,ɔ_s
1774424846.096642,2057,0,ɔ_s
1774424846.0992022,1954,0,ɔ_s
1774424846.101862,1935,0,ɔ_s
1774424846.107767,1942,0,ɔ_s
1774424846.108151,2066,0,ɔ_s
1774424846.1113431,2058,0,ɔ_s
1774424846.1148732,1952,0,ɔ_s
1774424846.117483,1935,0,ɔ_s
1774424846.1199071,1935,0,ɔ_s
1774424846.1228008,1995,0,ɔ_s
1774424846.128601,2082,0,ɔ_s
1774424846.128989,2052,0,ɔ_s
1774424846.1319082,1945,0,ɔ_s
1774424846.135454,1941,0,ɔ_s
1774424846.138048,1939,0,ɔ_s
1774424846.140841,2021,0,ɔ_s
1774424846.143832,2061,0,ɔ_s
1774424846.148879,1971,0,ɔ_s
1774424846.150792,1957,0,ɔ_s
1774424846.154766,1940,0,ɔ_s
1774424846.1559691,1985,0,ɔ_s
1774424846.158825,2045,0,ɔ_s
1774424846.1618161,2067,0,ɔ_s
1774424846.164791,1939,0,ɔ_s
1774424846.169378,1937,0,ɔ_s
1774424846.171199,1964,0,ɔ_s
1774424846.17521,2069,0,ɔ_s
1774424846.177825,2058,0,ɔ_s
1774424846.180372,1967,0,ɔ_s
1774424846.1829288,1925,0,ɔ_s
1774424846.185826,1915,0,ɔ_s
1774424846.189548,1990,0,ɔ_s
1774424846.192472,2057,0,ɔ_s
1774424846.195271,2039,0,ɔ_s
1774424846.197851,1908,0,ɔ_s
1774424846.200706,1929,0,ɔ_s
1774424846.2037172,1950,0,ɔ_s
1774424846.2098088,2026,0,ɔ_s
1774424846.209902,2077,0,ɔ_s
1774424846.213102,2014,0,ɔ_s
1774424846.216616,1954,0,ɔ_s
1774424846.219321,1926,0,ɔ_s
1774424846.221876,1954,0,ɔ_s
1774424846.224663,2058,0,ɔ_s
1774424846.229942,2062,0,ɔ_s
1774424846.232169,1982,0,ɔ_s
1774424846.233954,1931,0,ɔ_s
1774424846.238747,1925,0,ɔ_s
1774424846.2400482,2018,0,ɔ_s
1774424846.242676,2112,0,ɔ_s
1774424846.2456682,2090,0,ɔ_s
1774424846.250922,1925,0,ɔ_s
1774424846.253525,1971,0,ɔ_s
1774424846.2550259,1883,0,ɔ_s
1774424846.258829,2068,0,ɔ_s
1774424846.260673,2138,0,ɔ_s
1774424846.263712,1971,0,ɔ_s
1774424846.2667031,1880,0,ɔ_s
1774424846.271018,1900,0,ɔ_s
1774424846.272923,2071,0,ɔ_s
1774424846.27726,2053,0,ɔ_s
1774424846.2788842,1991,0,ɔ_s
1774424846.281718,2025,0,ɔ_s
1774424846.284728,1912,0,ɔ_s
1774424846.2876868,1940,0,ɔ_s
1774424846.2919528,1978,0,ɔ_s
1774424846.29384,2105,0,ɔ_s
1774424846.2978408,1979,0,ɔ_s
1774424846.3007061,1936,0,ɔ_s
1774424846.303265,1880,0,ɔ_s
1774424846.30581,2062,0,ɔ_s
1774424846.308774,2049,0,ɔ_s
1774424846.312245,2039,0,ɔ_s
1774424846.315853,1936,0,ɔ_s
1774424846.318762,2017,0,ɔ_s
1774424846.321124,1935,0,ɔ_s
1774424846.323681,1999,0,ɔ_s
1774424846.326669,2052,0,ɔ_s
1774424846.3325791,2073,0,ɔ_s
1774424846.333247,1918,0,ɔ_s
1774424846.336173,1919,0,ɔ_s
1774424846.339909,1966,0,ɔ_s
1774424846.341714,2100,0,ɔ_s
1774424846.344712,2016,0,ɔ_s
1774424846.3477519,1924,0,ɔ_s
1774424846.3527522,1963,0,ɔ_s
1774424846.354969,2008,0,ɔ_s
1774424846.35709,1964,0,ɔ_s
1774424846.360666,2030,0,ɔ_s
1774424846.362706,1983,0,ɔ_s
1774424846.365705,1952,0,ɔ_s
1774424846.368683,1927,0,ɔ_s
1774424846.373586,1976,0,ɔ_s
1774424846.3766851,2081,0,ɔ_s
1774424846.3782022,2077,0,ɔ_s
1774424846.3807292,1948,0,ɔ_s
1774424846.383669,1941,0,ɔ_s
1774424846.386674,1934,0,ɔ_s
1774424846.38967,2028,0,ɔ_s
1774424846.394013,2067,0,ɔ_s
1774424846.395694,2064,0,ɔ_s
1774424846.3997161,1957,0,ɔ_s
1774424846.402446,1931,0,ɔ_s
1774424846.404992,1941,0,ɔ_s
1774424846.407709,2069,0,ɔ_s
1774424846.410676,2057,0,ɔ_s
1774424846.414904,1962,0,ɔ_s
1774424846.417755,1929,0,ɔ_s
1774424846.42066,1891,0,ɔ_s
1774424846.423512,2016,0,ɔ_s
1774424846.425833,2074,0,ɔ_s
1774424846.4286919,2061,0,ɔ_s
1774424846.4349172,1956,0,ɔ_s
1774424846.435992,1948,0,ɔ_s
1774424846.439174,1958,0,ɔ_s
1774424846.441729,2035,0,ɔ_s
1774424846.444395,2061,0,ɔ_s
1774424846.446949,1963,0,ɔ_s
1774424846.449682,1969,0,ɔ_s
1774424846.456222,1920,0,ɔ_s
1774424846.45633,1987,0,ɔ_s
1774424846.459132,2051,0,ɔ_s
1774424846.462733,2080,0,ɔ_s
1774424846.465336,1950,0,ɔ_s
1774424846.467881,1923,0,ɔ_s
1774424846.470678,1951,0,ɔ_s
1774424846.475706,2039,0,ɔ_s
1774424846.47776,2068,0,ɔ_s
1774424846.480083,1993,0,ɔ_s
1774424846.483094,1918,0,ɔ_s
1774424846.4856389,1927,0,ɔ_s
1774424846.4885461,1991,0,ɔ_s
1774424846.492036,2059,0,ɔ_s
1774424846.495829,2063,0,ɔ_s
1774424846.497853,1952,0,ɔ_s
1774424846.500829,1949,0,ɔ_s
1774424846.5046709,1938,0,ɔ_s
1774424846.507272,2005,0,ɔ_s
1774424846.509706,2057,0,ɔ_s
1774424846.5125592,2025,0,ɔ_s
1774424846.516311,1953,0,ɔ_s
1774424846.5195038,1922,0,ɔ_s
1774424846.5230641,1970,0,ɔ_s
1774424846.52463,2067,0,ɔ_s
1774424846.527553,2069,0,ɔ_s
1774424846.5305479,1939,0,ɔ_s
1774424846.53663,1935,0,ɔ_s
1774424846.536988,1930,0,ɔ_s
1774424846.5401149,2003,0,ɔ_s
1774424846.5428321,2061,0,ɔ_s
1774424846.5455759,2037,0,ɔ_s
1774424846.54855,1943,0,ɔ_s
1774424846.552257,1935,0,ɔ_s
1774424846.55707,1955,0,ɔ_s
1774424846.557743,2061,0,ɔ_s
1774424846.56063,2116,0,ɔ_s
1774424846.5642262,2026,0,ɔ_s
1774424846.566876,1885,0,ɔ_s
1774424846.569589,1873,0,ɔ_s
1774424846.572542,2030,0,ɔ_s
1774424846.5771258,2064,0,ɔ_s
1774424846.579066,2043,0,ɔ_s
1774424846.5830631,1960,0,ɔ_s
1774424846.5857742,1933,0,ɔ_s
1774424846.587561,1930,0,ɔ_s
1774424846.5905752,2065,0,ɔ_s
1774424846.59355,2085,0,ɔ_s
1774424846.598568,1983,0,ɔ_s
1774424846.5999842,1911,0,ɔ_s
1774424846.602726,1907,0,ɔ_s
1774424846.606407,2011,0,ɔ_s
1774424846.608951,2021,0,ɔ_s
1774424846.611629,2069,0,ɔ_s
1774424846.614583,1964,0,ɔ_s
1774424846.618277,1949,0,ɔ_s
1774424846.6215968,1907,0,ɔ_s
1774424846.62389,2019,0,ɔ_s
1774424846.626573,2145,0,ɔ_s
1774424846.629554,1993,0,ɔ_s
1774424846.632541,1915,0,ɔ_s
1774424846.638342,1879,0,ɔ_s
1774424846.639204,1992,0,ɔ_s
1774424846.642005,2024,0,ɔ_s
1774424846.645331,2042,0,ɔ_s
1774424846.648012,1984,0,ɔ_s
1774424846.650561,2014,0,ɔ_s
1774424846.653588,1903,0,ɔ_s
1774424846.6589482,1955,0,ɔ_s
1774424846.660877,2064,0,ɔ_s
1774424846.662734,2084,0,ɔ_s
1774424846.6674829,1929,0,ɔ_s
1774424846.6687841,1883,0,ɔ_s
1774424846.671575,1975,0,ɔ_s
1774424846.67454,2075,0,ɔ_s
1774424846.678931,2004,0,ɔ_s
1774424846.68099,1948,0,ɔ_s
1774424846.685017,2014,0,ɔ_s
1774424846.687493,1862,0,ɔ_s
1774424846.689934,1994,0,ɔ_s
1774424846.692586,2068,0,ɔ_s
1774424846.695543,2033,0,ɔ_s
1774424846.69942,1920,0,ɔ_s
1774424846.702951,1916,0,ɔ_s
1774424846.705518,1982,0,ɔ_s
1774424846.708083,2073,0,ɔ_s
1774424846.710627,2070,0,ɔ_s
1774424846.71345,1959,0,ɔ_s
1774424846.7164621,1972,0,ɔ_s
1774424846.7202728,1924,0,ɔ_s
1774424846.7233,1974,0,ɔ_s
1774424846.725729,2053,0,ɔ_s
1774424846.728462,2077,0,ɔ_s
1774424846.732086,1949,0,ɔ_s
1774424846.734623,1943,0,ɔ_s
1774424846.7399712,1945,0,ɔ_s
1774424846.740577,2030,0,ɔ_s
1774424846.743698,2057,0,ɔ_s
1774424846.747095,2010,0,ɔ_s
1774424846.749758,1954,0,ɔ_s
1774424846.7524211,1898,0,ɔ_s
1774424846.755423,1983,0,ɔ_s
1774424846.760467,2055,0,ɔ_s
1774424846.7624261,2065,0,ɔ_s
1774424846.7663,1943,0,ɔ_s
1774424846.768956,1937,0,ɔ_s
1774424846.770447,1942,0,ɔ_s
1774424846.773463,2061,0,ɔ_s
1774424846.776421,2064,0,ɔ_s
1774424846.781247,1983,0,ɔ_s
1774424846.782659,1943,0,ɔ_s
1774424846.7863932,1902,0,ɔ_s
1774424846.788639,1974,0,ɔ_s
1774424846.791436,2062,0,ɔ_s
1774424846.794455,2058,0,ɔ_s
1774424846.79746,1936,0,ɔ_s
1774424846.801253,1934,0,ɔ_s
1774424846.804372,1957,0,ɔ_s
1774424846.808139,2010,0,ɔ_s
1774424846.809658,2030,0,ɔ_s
1774424846.812511,2028,0,ɔ_s
1774424846.816027,1954,0,ɔ_s
1774424846.821514,1896,0,ɔ_s
1774424846.821619,1953,0,ɔ_s
1774424846.824954,2091,0,ɔ_s
1774424846.8284018,2072,0,ɔ_s
1774424846.831035,1949,0,ɔ_s
1774424846.8335931,1955,0,ɔ_s
1774424846.836446,1961,0,ɔ_s
1774424846.841784,2016,0,ɔ_s
1774424846.844037,2029,0,ɔ_s
1774424846.845681,2027,0,ɔ_s
1774424846.849049,1972,0,ɔ_s
1774424846.851836,1944,0,ɔ_s
1774424846.854505,1943,0,ɔ_s
1774424846.857462,2034,0,ɔ_s
1774424846.861918,2049,0,ɔ_s
1774424846.8641798,1969,0,ɔ_s
1774424846.866955,1959,0,ɔ_s
1774424846.870772,1906,0,ɔ_s
1774424846.87245,1996,0,ɔ_s
1774424846.875445,2073,0,ɔ_s
1774424846.878452,2069,0,ɔ_s
1774424846.8827221,2041,0,ɔ_s
1774424846.8845298,1888,0,ɔ_s
1774424846.8884249,1909,0,ɔ_s
1774424846.890673,2031,0,ɔ_s
1774424846.893441,2116,0,ɔ_s
1774424846.896419,1963,0,ɔ_s
1774424846.899489,1949,0,ɔ_s
1774424846.902522,1943,0,ɔ_s
1774424846.905938,1995,0,ɔ_s
1774424846.90943,2015,0,ɔ_s
1774424846.912204,2104,0,ɔ_s
1774424846.914746,1937,0,ɔ_s
1774424846.917448,1886,0,ɔ_s
1774424846.923313,1957,0,ɔ_s
1774424846.923671,2128,0,ɔ_s
1774424846.9269278,2032,0,ɔ_s
1774424846.929541,1964,0,ɔ_s
1774424846.9323268,1942,0,ɔ_s
1774424846.9353259,1979,0,ɔ_s
1774424846.938315,1952,0,ɔ_s
1774424846.943773,2003,0,ɔ_s
1774424846.945749,2064,0,ɔ_s
1774424846.948074,2014,0,ɔ_s
1774424846.952245,1882,0,ɔ_s
1774424846.953538,1913,0,ɔ_s
1774424846.956331,2048,0,ɔ_s
1774424846.9593349,2133,0,ɔ_s
1774424846.964303,1988,0,ɔ_s
1774424846.966066,1906,0,ɔ_s
1774424846.969833,1929,0,ɔ_s
1774424846.9725828,1957,0,ɔ_s
1774424846.974331,2026,0,ɔ_s
1774424846.97733,2086,0,ɔ_s
1774424846.980288,1989,0,ɔ_s
1774424846.98503,1947,0,ɔ_s
1774424846.986378,1852,0,ɔ_s
1774424846.9902852,2017,0,ɔ_s
1774424846.992872,2113,0,ɔ_s
1774424846.995425,2044,0,ɔ_s
1774424846.998294,1932,0,ɔ_s
1774424847.0052428,1941,0,ɔ_s
1774424847.00561,1945,0,ɔ_s
1774424847.008276,2020,0,ɔ_s
1774424847.0121112,2050,0,ɔ_s
1774424847.013907,1976,0,ɔ_s
1774424847.016482,1960,0,ɔ_s
1774424847.0193348,1917,0,ɔ_s
1774424847.025322,2012,0,ɔ_s
1774424847.0260081,2026,0,ɔ_s
1774424847.029749,2071,0,ɔ_s
1774424847.0323892,1945,0,ɔ_s
1774424847.034323,1923,0,ɔ_s
1774424847.0373209,1959,0,ɔ_s
1774424847.0403242,2062,0,ɔ_s
1774424847.045398,2071,0,ɔ_s
1774424847.047215,2003,0,ɔ_s
1774424847.0512059,1958,0,ɔ_s
1774424847.053835,1908,0,ɔ_s
1774424847.055315,1979,0,ɔ_s
1774424847.0591202,2053,0,ɔ_s
1774424847.061667,2053,0,ɔ_s
1774424847.065653,1955,0,ɔ_s
1774424847.067452,1939,0,ɔ_s
1774424847.071408,1945,0,ɔ_s
1774424847.073635,2063,0,ɔ_s
1774424847.0763211,2075,0,ɔ_s
1774424847.079319,2003,0,ɔ_s
1774424847.0823412,1914,0,ɔ_s
1774424847.0863712,1906,0,ɔ_s
1774424847.089311,1974,0,ɔ_s
1774424847.09309,2063,0,ɔ_s
1774424847.094597,2067,0,ɔ_s
1774424847.097322,1935,0,ɔ_s
1774424847.100318,1935,0,ɔ_s
1774424847.106334,1939,0,ɔ_s
1774424847.1064699,2017,0,ɔ_s
1774424847.109565,2042,0,ɔ_s
1774424847.113251,2037,0,ɔ_s
1774424847.115815,1947,0,ɔ_s
1774424847.1183538,1919,0,ɔ_s
1774424847.1213288,1947,0,ɔ_s
1774424847.12719,2058,0,ɔ_s
1774424847.127538,2068,0,ɔ_s
1774424847.131159,1975,0,ɔ_s
1774424847.134037,1938,0,ɔ_s
1774424847.136648,1926,0,ɔ_s
1774424847.1393359,2011,0,ɔ_s
1774424847.142327,2073,0,ɔ_s
1774424847.146803,2031,0,ɔ_s
1774424847.148993,1948,0,ɔ_s
1774424847.152895,1920,0,ɔ_s
1774424847.155359,1942,0,ɔ_s
1774424847.157913,2041,0,ɔ_s
1774424847.16046,2064,0,ɔ_s
1774424847.1631649,1986,0,ɔ_s
1774424847.1676748,1952,0,ɔ_s
1774424847.1694221,1906,0,ɔ_s
1774424847.172244,2004,0,ɔ_s
1774424847.175732,2057,0,ɔ_s
1774424847.178287,2050,0,ɔ_s
1774424847.18121,1913,0,ɔ_s
1774424847.1880908,1933,0,ɔ_s
1774424847.189002,1948,0,ɔ_s
1774424847.1918652,2050,0,ɔ_s
1774424847.194159,2072,0,ɔ_s
1774424847.1964421,2035,0,ɔ_s
1774424847.199218,1966,0,ɔ_s
1774424847.202166,1978,0,ɔ_s
1774424847.208011,1912,0,ɔ_s
1774424847.2086499,2012,0,ɔ_s
1774424847.2116108,2039,0,ɔ_s
1774424847.215124,1963,0,ɔ_s
1774424847.2177489,1947,0,ɔ_s
1774424847.220296,1904,0,ɔ_s
1774424847.223199,2044,0,ɔ_s
1774424847.229331,1994,0,ɔ_s
1774424847.2296472,2033,0,ɔ_s
1774424847.23219,1979,0,ɔ_s
1774424847.23556,1927,0,ɔ_s
1774424847.2383292,1928,0,ɔ_s
1774424847.2411861,2084,0,ɔ_s
1774424847.244168,2038,0,ɔ_s
1774424847.248898,1931,0,ɔ_s
1774424847.250892,1919,0,ɔ_s
1774424847.253728,1975,0,ɔ_s
1774424847.25702,2032,0,ɔ_s
1774424847.259577,2015,0,ɔ_s
1774424847.2622159,2035,0,ɔ_s
1774424847.265166,1963,0,ɔ_s
1774424847.27025,1904,0,ɔ_s
1774424847.27278,1970,0,ɔ_s
1774424847.275351,2072,0,ɔ_s
1774424847.277925,2122,0,ɔ_s
1774424847.2803462,1924,0,ɔ_s
1774424847.283166,1909,0,ɔ_s
1774424847.286166,1931,0,ɔ_s
1774424847.289634,2056,0,ɔ_s
1774424847.29335,2019,0,ɔ_s
1774424847.2965171,2048,0,ɔ_s
1774424847.298198,1971,0,ɔ_s
1774424847.3011708,1909,0,ɔ_s
1774424847.3041658,1917,0,ɔ_s
1774424847.310359,2087,0,ɔ_s
1774424847.310417,2142,0,ɔ_s
1774424847.313903,1936,0,ɔ_s
1774424847.316394,1892,0,ɔ_s
1774424847.319211,1910,0,ɔ_s
1774424847.322155,2037,0,ɔ_s
1774424847.325235,2008,0,ɔ_s
1774424847.330701,2010,0,ɔ_s
1774424847.331569,1928,0,ɔ_s
1774424847.335226,1947,0,ɔ_s
1774424847.33744,1942,0,ɔ_s
1774424847.340182,2042,0,ɔ_s
1774424847.3431628,2065,0,ɔ_s
1774424847.346186,2025,0,ɔ_s
1774424847.351437,1939,0,ɔ_s
1774424847.3530822,1911,0,ɔ_s
1774424847.355951,1978,0,ɔ_s
1774424847.358176,2080,0,ɔ_s
1774424847.361195,2056,0,ɔ_s
1774424847.3641741,1949,0,ɔ_s
1774424847.367167,1932,0,ɔ_s
1774424847.370778,1939,0,ɔ_s
1774424847.374172,2050,0,ɔ_s
1774424847.376575,2060,0,ɔ_s
1774424847.379191,2030,0,ɔ_s
1774424847.382196,1944,0,ɔ_s
1774424847.3851829,1914,0,ɔ_s
1774424847.3913531,1947,0,ɔ_s
1774424847.391444,2070,0,ɔ_s
1774424847.394736,2069,0,ɔ_s
1774424847.398141,1943,0,ɔ_s
1774424847.4008162,1938,0,ɔ_s
1774424847.4033651,1938,0,ɔ_s
1774424847.406065,2020,0,ɔ_s
1774424847.4114811,2043,0,ɔ_s
1774424847.413615,2053,0,ɔ_s
1774424847.4155898,1940,0,ɔ_s
1774424847.4188402,1908,0,ɔ_s
1774424847.4214048,1934,0,ɔ_s
1774424847.424084,2058,0,ɔ_s
1774424847.4279559,2065,0,ɔ_s
1774424847.4318311,1979,0,ɔ_s
1774424847.43415,1960,0,ɔ_s
1774424847.436918,1922,0,ɔ_s
1774424847.43908,2005,0,ɔ_s
1774424847.442057,2036,0,ɔ_s
1774424847.44505,2028,0,ɔ_s
1774424847.448052,1933,0,ɔ_s
1774424847.4522612,1931,0,ɔ_s
1774424847.454367,1966,0,ɔ_s
1774424847.458148,2059,0,ɔ_s
1774424847.4607549,2058,0,ɔ_s
1774424847.4633,1979,0,ɔ_s
1774424847.4660668,1951,0,ɔ_s
1774424847.4690611,1898,0,ɔ_s
1774424847.472364,2009,0,ɔ_s
1774424847.476066,2048,0,ɔ_s
1774424847.4784389,2069,0,ɔ_s
1774424847.481096,1936,0,ɔ_s
1774424847.4840472,1928,0,ɔ_s
1774424847.487072,1948,0,ɔ_s
1774424847.4932768,2026,0,ɔ_s
1774424847.493377,2051,0,ɔ_s
1774424847.496813,2035,0,ɔ_s
1774424847.499122,1947,0,ɔ_s
1774424847.502609,1900,0,ɔ_s
1774424847.505169,1942,0,ɔ_s
1774424847.508066,2070,0,ɔ_s
1774424847.513664,2072,0,ɔ_s
1774424847.514279,1947,0,ɔ_s
1774424847.51716,1923,0,ɔ_s
1774424847.5218859,1952,0,ɔ_s
1774424847.523242,2061,0,ɔ_s
1774424847.526033,2046,0,ɔ_s
1774424847.5290308,2010,0,ɔ_s
1774424847.5337868,1951,0,ɔ_s
1774424847.53579,1929,0,ɔ_s
1774424847.538595,1949,0,ɔ_s
1774424847.5421371,2042,0,ɔ_s
1774424847.544705,2100,0,ɔ_s
1774424847.547255,1970,0,ɔ_s
1774424847.550045,1934,0,ɔ_s
1774424847.5542789,1952,0,ɔ_s
1774424847.556179,2010,0,ɔ_s
1774424847.56009,2034,0,ɔ_s
1774424847.562669,2024,0,ɔ_s
1774424847.565213,1958,0,ɔ_s
1774424847.568044,1911,0,ɔ_s
1774424847.571092,1922,0,ɔ_s
1774424847.574141,2075,0,ɔ_s
1774424847.5775921,2149,0,ɔ_s
1774424847.580918,1936,0,ɔ_s
1774424847.5836039,1894,0,ɔ_s
1774424847.5861871,1905,0,ɔ_s
1774424847.589067,2046,0,ɔ_s
1774424847.5953898,2046,0,ɔ_s
1774424847.5954711,2041,0,ɔ_s
1774424847.5986729,1949,0,ɔ_s
1774424847.60096,1954,0,ɔ_s
1774424847.604824,1893,0,ɔ_s
1774424847.607382,2056,0,ɔ_s
1774424847.609954,2109,0,ɔ_s
1774424847.616439,2011,0,ɔ_s
1774424847.61652,1907,0,ɔ_s
1774424847.619097,1895,0,ɔ_s
1774424847.622657,1998,0,ɔ_s
1774424847.6250792,2067,0,ɔ_s
1774424847.6279192,2020,0,ɔ_s
1774424847.631595,1987,0,ɔ_s
1774424847.6367922,1930,0,ɔ_s
1774424847.6381109,1917,0,ɔ_s
1774424847.640091,1983,0,ɔ_s
1774424847.6442409,2083,0,ɔ_s
1774424847.645948,2025,0,ɔ_s
1774424847.648947,1930,0,ɔ_s
1774424847.652617,1882,0,ɔ_s
1774424847.6562428,2020,0,ɔ_s
1774424847.659214,2046,0,ɔ_s
1774424847.662175,2037,0,ɔ_s
1774424847.664341,1941,0,ɔ_s
1774424847.666949,1928,0,ɔ_s
1774424847.6699579,1950,0,ɔ_s
1774424847.672957,2025,0,ɔ_s
1774424847.676366,2093,0,ɔ_s
1774424847.6801002,2040,0,ɔ_s
1774424847.682174,1938,0,ɔ_s
1774424847.685589,1910,0,ɔ_s
1774424847.688138,1946,0,ɔ_s
1774424847.690946,2051,0,ɔ_s
1774424847.696933,2100,0,ɔ_s
1774424847.6972811,1971,0,ɔ_s
1774424847.700555,1940,0,ɔ_s
1774424847.704044,1919,0,ɔ_s
1774424847.705945,2025,0,ɔ_s
1774424847.708908,2027,0,ɔ_s
1774424847.711945,2038,0,ɔ_s
1774424847.7169259,1950,0,ɔ_s
1774424847.7191072,1944,0,ɔ_s
1774424847.721293,1959,0,ɔ_s
1774424847.7254431,2037,0,ɔ_s
1774424847.726944,2069,0,ɔ_s
1774424847.729961,2001,0,ɔ_s
1774424847.732919,1956,0,ɔ_s
1774424847.737493,1881,0,ɔ_s
1774424847.7392871,1981,0,ɔ_s
1774424847.742154,2048,0,ɔ_s
1774424847.745567,2064,0,ɔ_s
1774424847.748109,1937,0,ɔ_s
1774424847.750914,1941,0,ɔ_s
1774424847.753951,1959,0,ɔ_s
1774424847.758102,2046,0,ɔ_s
1774424847.760119,2065,0,ɔ_s
1774424847.76399,2000,0,ɔ_s
1774424847.766561,1948,0,ɔ_s
1774424847.7691038,1918,0,ɔ_s
1774424847.771949,1970,0,ɔ_s
1774424847.774988,2060,0,ɔ_s
1774424847.7782679,2071,0,ɔ_s
1774424847.781474,1939,0,ɔ_s
1774424847.785016,1927,0,ɔ_s
1774424847.7870238,1935,0,ɔ_s
1774424847.789942,2042,0,ɔ_s
1774424847.792932,2069,0,ɔ_s
1774424847.7986891,2040,0,ɔ_s
1774424847.799537,1961,0,ɔ_s
1774424847.8020759,1902,0,ɔ_s
1774424847.805635,1969,0,ɔ_s
1774424847.8083,2045,0,ɔ_s
1774424847.8109581,2083,0,ɔ_s
1774424847.8139362,1983,0,ɔ_s
1774424847.81892,1908,0,ɔ_s
1774424847.820918,1909,0,ɔ_s
1774424847.824776,2005,0,ɔ_s
1774424847.8270662,2095,0,ɔ_s
1774424847.828955,2070,0,ɔ_s
1774424847.831954,1944,0,ɔ_s
1774424847.834792,1919,0,ɔ_s
1774424847.839375,1962,0,ɔ_s
1774424847.841148,2030,0,ɔ_s
1774424847.845094,2054,0,ɔ_s
1774424847.847314,1955,0,ɔ_s
1774424847.849855,1975,0,ɔ_s
1774424847.8528042,1919,0,ɔ_s
1774424847.855788,2009,0,ɔ_s
1774424847.859469,2069,0,ɔ_s
1774424847.86185,2062,0,ɔ_s
1774424847.865927,1943,0,ɔ_s
1774424847.868221,2031,0,ɔ_s
1774424847.870828,1906,0,ɔ_s
1774424847.873943,2010,0,ɔ_s
1774424847.880033,2010,0,ɔ_s
1774424847.8803961,2018,0,ɔ_s
1774424847.883546,1930,0,ɔ_s
1774424847.8858721,1924,0,ɔ_s
1774424847.889228,2014,0,ɔ_s
1774424847.8918242,2088,0,ɔ_s
1774424847.895496,2016,0,ɔ_s
1774424847.900634,1943,0,ɔ_s
1774424847.901254,1948,0,ɔ_s
1774424847.904153,1945,0,ɔ_s
1774424847.9075189,1994,0,ɔ_s
1774424847.9101272,2076,0,ɔ_s
1774424847.9128351,2027,0,ɔ_s
1774424847.915829,1922,0,ɔ_s
1774424847.920901,1887,0,ɔ_s
1774424847.922542,2049,0,ɔ_s
1774424847.926361,2089,0,ɔ_s
1774424847.92901,1986,0,ɔ_s
1774424847.9308338,1899,0,ɔ_s
1774424847.933821,1945,0,ɔ_s
1774424847.937463,1987,0,ɔ_s
1774424847.94113,1987,0,ɔ_s
1774424847.94282,2059,0,ɔ_s
1774424847.946545,2090,0,ɔ_s
1774424847.949064,1961,0,ɔ_s
1774424847.951822,1839,0,ɔ_s
1774424847.954818,1965,0,ɔ_s
1774424847.957823,2121,0,ɔ_s
1774424847.9612741,2056,0,ɔ_s
1774424847.9650939,1876,0,ɔ_s
1774424847.968292,1920,0,ɔ_s
1774424847.969918,1967,0,ɔ_s
1774424847.972831,2013,0,ɔ_s
1774424847.975809,2037,0,ɔ_s
1774424847.981907,2032,0,ɔ_s
1774424847.9822452,1947,0,ɔ_s
1774424847.9855518,1934,0,ɔ_s
1774424847.988829,1971,0,ɔ_s
1774424847.990814,2048,0,ɔ_s
1774424847.99381,2041,0,ɔ_s
1774424847.996793,1962,0,ɔ_s
1774424848.002392,1940,0,ɔ_s
1774424848.0030699,1926,0,ɔ_s
1774424848.006741,2003,0,ɔ_s
1774424848.009032,2064,0,ɔ_s
1774424848.011791,2071,0,ɔ_s
1774424848.014789,1966,0,ɔ_s
1774424848.017791,1929,0,ɔ_s
1774424848.02304,1943,0,ɔ_s
1774424848.0254688,2031,0,ɔ_s
1774424848.027192,2052,0,ɔ_s
1774424848.030518,1984,0,ɔ_s
1774424848.033067,1942,0,ɔ_s
1774424848.035681,1930,0,ɔ_s
1774424848.039349,2004,0,ɔ_s
1774424848.042961,2074,0,ɔ_s
1774424848.0458822,2054,0,ɔ_s
1774424848.0487418,1940,0,ɔ_s
1774424848.051358,1940,0,ɔ_s
1774424848.053867,1939,0,ɔ_s
1774424848.056703,2036,0,ɔ_s
1774424848.059703,2063,0,ɔ_s
1774424848.063612,2008,0,ɔ_s
1774424848.066566,1954,0,ɔ_s
1774424848.068904,1911,0,ɔ_s
1774424848.071708,1969,0,ɔ_s
1774424848.074704,2053,0,ɔ_s
1774424848.077714,2077,0,ɔ_s
1774424848.083536,1948,0,ɔ_s
1774424848.083864,1919,0,ɔ_s
1774424848.087086,1959,0,ɔ_s
1774424848.09043,2033,0,ɔ_s
1774424848.0931132,2074,0,ɔ_s
1774424848.095658,2039,0,ɔ_s
1774424848.0987022,1965,0,ɔ_s
1774424848.1040618,1902,0,ɔ_s
1774424848.1049879,1939,0,ɔ_s
1774424848.108715,2028,0,ɔ_s
1774424848.110977,2052,0,ɔ_s
1774424848.113705,1960,0,ɔ_s
1774424848.116723,1931,0,ɔ_s
1774424848.119665,1929,0,ɔ_s
1774424848.1248,1998,0,ɔ_s
1774424848.126249,2065,0,ɔ_s
1774424848.129004,2053,0,ɔ_s
1774424848.1324759,1958,0,ɔ_s
1774424848.1350179,1937,0,ɔ_s
1774424848.1377459,1971,0,ɔ_s
1774424848.140717,2087,0,ɔ_s
1774424848.144813,2051,0,ɔ_s
1774424848.1467369,1919,0,ɔ_s
1774424848.1505868,1920,0,ɔ_s
1774424848.153147,1914,0,ɔ_s
1774424848.155692,2009,0,ɔ_s
1774424848.158688,2065,0,ɔ_s
1774424848.161709,2082,0,ɔ_s
1774424848.165208,1934,0,ɔ_s
1774424848.168591,1945,0,ɔ_s
1774424848.171871,1953,0,ɔ_s
1774424848.1737049,2037,0,ɔ_s
1774424848.176766,2072,0,ɔ_s
1774424848.1797051,1993,0,ɔ_s
1774424848.185764,1956,0,ɔ_s
1774424848.186118,1951,0,ɔ_s
1774424848.189357,1958,0,ɔ_s
1774424848.1917162,2040,0,ɔ_s
1774424848.195162,2146,0,ɔ_s
1774424848.197712,1949,0,ɔ_s
1774424848.200707,1889,0,ɔ_s
1774424848.206073,1920,0,ɔ_s
1774424848.207913,2088,0,ɔ_s
1774424848.209973,2076,0,ɔ_s
1774424848.214493,1957,0,ɔ_s
1774424848.215801,1946,0,ɔ_s
1774424848.218671,1950,0,ɔ_s
1774424848.2217112,1915,0,ɔ_s
1774424848.2262568,2035,0,ɔ_s
1774424848.228229,2085,0,ɔ_s
1774424848.2309592,2000,0,ɔ_s
1774424848.2343109,1876,0,ɔ_s
1774424848.2368598,1903,0,ɔ_s
1774424848.239572,2041,0,ɔ_s
1774424848.2425752,2077,0,ɔ_s
1774424848.24686,1988,0,ɔ_s
1774424848.248794,1986,0,ɔ_s
1774424848.2526562,1903,0,ɔ_s
1774424848.2549272,1931,0,ɔ_s
1774424848.257602,2017,0,ɔ_s
1774424848.2605739,2100,0,ɔ_s
1774424848.263571,1966,0,ɔ_s
1774424848.2671602,1923,0,ɔ_s
1774424848.269907,1873,0,ɔ_s
1774424848.273495,2054,0,ɔ_s
1774424848.276046,2036,0,ɔ_s
1774424848.2786,2041,0,ɔ_s
1774424848.2815669,1941,0,ɔ_s
1774424848.2873862,1995,0,ɔ_s
1774424848.288071,1900,0,ɔ_s
1774424848.291261,1998,0,ɔ_s
1774424848.293642,2069,0,ɔ_s
1774424848.297104,2046,0,ɔ_s
1774424848.299662,1903,0,ɔ_s
1774424848.302578,1890,0,ɔ_s
1774424848.3089669,1972,0,ɔ_s
1774424848.309076,2030,0,ɔ_s
1774424848.31196,2064,0,ɔ_s
1774424848.315288,1952,0,ɔ_s
1774424848.31796,1943,0,ɔ_s
1774424848.32055,1970,0,ɔ_s
1774424848.3235872,2052,0,ɔ_s
1774424848.328319,2058,0,ɔ_s
1774424848.330122,1985,0,ɔ_s
1774424848.332839,1947,0,ɔ_s
1774424848.3363662,1908,0,ɔ_s
1774424848.338905,1988,0,ɔ_s
1774424848.341589,2059,0,ɔ_s
1774424848.344579,2063,0,ɔ_s
1774424848.348602,1954,0,ɔ_s
1774424848.351948,1934,0,ɔ_s
1774424848.354611,1957,0,ɔ_s
1774424848.357188,2040,0,ɔ_s
1774424848.359762,2056,0,ɔ_s
1774424848.362572,1999,0,ɔ_s
1774424848.365579,1939,0,ɔ_s
1774424848.3689432,1919,0,ɔ_s
1774424848.372705,1947,0,ɔ_s
1774424848.374828,2075,0,ɔ_s
1774424848.3775702,2091,0,ɔ_s
1774424848.3805408,1954,0,ɔ_s
1774424848.383578,1926,0,ɔ_s
1774424848.389248,1929,0,ɔ_s
1774424848.39022,2029,0,ɔ_s
1774424848.393285,2061,0,ɔ_s
1774424848.396414,2028,0,ɔ_s
1774424848.3990898,1954,0,ɔ_s
1774424848.401637,1925,0,ɔ_s
1774424848.404592,1949,0,ɔ_s
1774424848.4098601,2050,0,ɔ_s
1774424848.412759,2062,0,ɔ_s
1774424848.4147,1972,0,ɔ_s
1774424848.4167979,1952,0,ɔ_s
1774424848.419582,1909,0,ɔ_s
1774424848.4225779,1994,0,ɔ_s
1774424848.425538,2070,0,ɔ_s
1774424848.4302359,2065,0,ɔ_s
1774424848.4322581,1925,0,ɔ_s
1774424848.436116,1910,0,ɔ_s
1774424848.438615,1967,0,ɔ_s
1774424848.4411662,2069,0,ɔ_s
1774424848.443719,2064,0,ɔ_s
1774424848.446547,1962,0,ɔ_s
1774424848.450811,1956,0,ɔ_s
1774424848.453432,1929,0,ɔ_s
1774424848.4561942,1986,0,ɔ_s
1774424848.458796,2042,0,ɔ_s
1774424848.4615738,2085,0,ɔ_s
1774424848.4645681,1934,0,ɔ_s
1774424848.470901,1934,0,ɔ_s
1774424848.470999,1945,0,ɔ_s
1774424848.4744372,2059,0,ɔ_s
1774424848.476732,2039,0,ɔ_s
1774424848.480204,1993,0,ɔ_s
1774424848.482749,1941,0,ɔ_s
1774424848.4854531,1910,0,ɔ_s
1774424848.4914272,1983,0,ɔ_s
1774424848.492096,2082,0,ɔ_s
1774424848.494889,2086,0,ɔ_s
1774424848.4982889,1931,0,ɔ_s
1774424848.500951,1930,0,ɔ_s
1774424848.503496,1915,0,ɔ_s
1774424848.506492,2027,0,ɔ_s
1774424848.512012,2067,0,ɔ_s
1774424848.512665,2001,0,ɔ_s
1774424848.515551,1979,0,ɔ_s
1774424848.520236,1893,0,ɔ_s
1774424848.521527,1972,0,ɔ_s
1774424848.524466,2031,0,ɔ_s
1774424848.527416,2103,0,ɔ_s
1774424848.532348,1996,0,ɔ_s
1774424848.534076,1906,0,ɔ_s
1774424848.536841,1887,0,ɔ_s
1774424848.540243,2052,0,ɔ_s
1774424848.542788,2060,0,ɔ_s
1774424848.545473,2019,0,ɔ_s
1774424848.548447,1918,0,ɔ_s
1774424848.552479,1933,0,ɔ_s
1774424848.5553129,1970,0,ɔ_s
1774424848.558859,2008,0,ɔ_s
1774424848.560457,2050,0,ɔ_s
1774424848.563447,2046,0,ɔ_s
1774424848.566414,1948,0,ɔ_s
1774424848.572711,1867,0,ɔ_s
1774424848.573662,1983,0,ɔ_s
1774424848.576342,2094,0,ɔ_s
1774424848.579913,2061,0,ɔ_s
1774424848.581459,1884,0,ɔ_s
1774424848.584426,1948,0,ɔ_s
1774424848.587469,2006,0,ɔ_s
1774424848.594024,2007,0,ɔ_s
1774424848.594358,1994,0,ɔ_s
1774424848.5967329,1972,0,ɔ_s
1774424848.6002162,2011,0,ɔ_s
1774424848.602895,1892,0,ɔ_s
1774424848.605452,1949,0,ɔ_s
1774424848.608432,2075,0,ɔ_s
1774424848.613586,2089,0,ɔ_s
1774424848.615286,1909,0,ɔ_s
1774424848.617952,1914,0,ɔ_s
1774424848.621587,1929,0,ɔ_s
1774424848.623432,2026,0,ɔ_s
1774424848.6264489,2069,0,ɔ_s
1774424848.6301591,2038,0,ɔ_s
1774424848.633965,1946,0,ɔ_s
1774424848.635605,1900,0,ɔ_s
1774424848.639315,1977,0,ɔ_s
1774424848.64159,2064,0,ɔ_s
1774424848.644445,2064,0,ɔ_s
1774424848.6474419,1937,0,ɔ_s
1774424848.650462,1947,0,ɔ_s
1774424848.653984,1965,0,ɔ_s
1774424848.657417,2040,0,ɔ_s
1774424848.659909,2051,0,ɔ_s
1774424848.662509,2005,0,ɔ_s
1774424848.6654458,1955,0,ɔ_s
1774424848.668458,1913,0,ɔ_s
1774424848.674347,1977,0,ɔ_s
1774424848.6746502,2064,0,ɔ_s
1774424848.677918,2060,0,ɔ_s
1774424848.6814442,1963,0,ɔ_s
1774424848.684087,1932,0,ɔ_s
1774424848.686635,1913,0,ɔ_s
1774424848.6893098,2005,0,ɔ_s
1774424848.695275,2065,0,ɔ_s
1774424848.6958752,2041,0,ɔ_s
1774424848.6987991,1950,0,ɔ_s
1774424848.7032561,1909,0,ɔ_s
1774424848.704572,1943,0,ɔ_s
1774424848.70732,2083,0,ɔ_s
1774424848.710785,2081,0,ɔ_s
1774424848.715411,1969,0,ɔ_s
1774424848.717359,1951,0,ɔ_s
1774424848.7212439,1920,0,ɔ_s
1774424848.723829,1989,0,ɔ_s
1774424848.725364,2038,0,ɔ_s
1774424848.728342,2064,0,ɔ_s
1774424848.731294,1930,0,ɔ_s
1774424848.735704,1940,0,ɔ_s
1774424848.737538,1989,0,ɔ_s
1774424848.7414038,2043,0,ɔ_s
1774424848.743664,2033,0,ɔ_s
1774424848.746471,1954,0,ɔ_s
1774424848.749336,1970,0,ɔ_s
1774424848.752342,1925,0,ɔ_s
1774424848.755798,2001,0,ɔ_s
1774424848.759414,2058,0,ɔ_s
1774424848.761514,2056,0,ɔ_s
1774424848.7649028,1928,0,ɔ_s
1774424848.767454,1911,0,ɔ_s
1774424848.770327,1946,0,ɔ_s
1774424848.775657,2054,0,ɔ_s
1774424848.776717,2079,0,ɔ_s
1774424848.7796092,2028,0,ɔ_s
1774424848.783097,1951,0,ɔ_s
1774424848.7857249,1908,0,ɔ_s
1774424848.788328,1963,0,ɔ_s
1774424848.791311,2063,0,ɔ_s
1774424848.797611,2076,0,ɔ_s
1774424848.797732,1960,0,ɔ_s
1774424848.801497,1930,0,ɔ_s
1774424848.80378,1967,0,ɔ_s
1774424848.8064342,2043,0,ɔ_s
1774424848.809293,2015,0,ɔ_s
1774424848.81236,2066,0,ɔ_s
1774424848.8174798,1929,0,ɔ_s
1774424848.819147,1959,0,ɔ_s
1774424848.823977,2033,0,ɔ_s
1774424848.824329,2031,0,ɔ_s
1774424848.827297,2006,0,ɔ_s
1774424848.830286,2005,0,ɔ_s
1774424848.83329,1988,0,ɔ_s
1774424848.837802,1885,0,ɔ_s
1774424848.839392,1948,0,ɔ_s
1774424848.843487,2038,0,ɔ_s
1774424848.845981,2073,0,ɔ_s
1774424848.8485272,1912,0,ɔ_s
1774424848.8512928,1910,0,ɔ_s
1774424848.854322,2001,0,ɔ_s
1774424848.8579369,2072,0,ɔ_s
1774424848.861402,1997,0,ɔ_s
1774424848.864179,1946,0,ɔ_s
1774424848.86673,1988,0,ɔ_s
1774424848.8693361,1977,0,ɔ_s
1774424848.8723142,1925,0,ɔ_s
1774424848.8786619,2060,0,ɔ_s
1774424848.878737,2048,0,ɔ_s
1774424848.882192,1940,0,ɔ_s
1774424848.885382,1929,0,ɔ_s
1774424848.887352,1985,0,ɔ_s
1774424848.890337,2042,0,ɔ_s
1774424848.893319,2047,0,ɔ_s
1774424848.8986292,1965,0,ɔ_s
1774424848.900515,2012,0,ɔ_s
1774424848.902962,1905,0,ɔ_s
1774424848.9057121,1982,0,ɔ_s
1774424848.9082592,2049,0,ɔ_s
1774424848.911167,2109,0,ɔ_s
1774424848.9150422,1891,0,ɔ_s
1774424848.9187899,1923,0,ɔ_s
1774424848.920506,1949,0,ɔ_s
1774424848.9244921,2143,0,ɔ_s
1774424848.926823,1969,0,ɔ_s
1774424848.929373,1944,0,ɔ_s
1774424848.9591858,1926,0,ɔ_s
1774424848.960622,1907,0,ɔ_s
1774424848.960653,2013,0,ɔ_s
1774424848.960738,2102,0,ɔ_s
1774424848.960767,2015,0,ɔ_s
1774424848.96079,1936,0,ɔ_s
1774424848.960813,1933,0,ɔ_s
1774424848.960834,1964,0,ɔ_s
1774424848.960856,2022,0,ɔ_s
1774424848.960877,2079,0,ɔ_s
1774424848.962195,2039,0,ɔ_s
1774424848.968487,1951,0,ɔ_s
1774424848.968564,1926,0,ɔ_s
1774424848.971191,1974,0,ɔ_s
1774424848.9742222,2069,0,ɔ_s
1774424848.9771829,2093,0,ɔ_s
1774424848.981815,1971,0,ɔ_s
1774424848.983937,1930,0,ɔ_s
1774424848.986645,1896,0,ɔ_s
1774424848.990069,2005,0,ɔ_s
1774424848.992631,2053,0,ɔ_s
1774424848.995214,2079,0,ɔ_s
1774424848.998295,1951,0,ɔ_s
1774424849.001685,1930,0,ɔ_s
1774424849.005301,1942,0,ɔ_s
1774424849.007896,2043,0,ɔ_s
1774424849.01046,2064,0,ɔ_s
1774424849.013201,1967,0,ɔ_s
1774424849.016222,1936,0,ɔ_s
1774424849.021972,1898,0,ɔ_s
1774424849.022295,2011,0,ɔ_s
1774424849.0255868,2069,0,ɔ_s
1774424849.028988,2059,0,ɔ_s
1774424849.031668,1934,0,ɔ_s
1774424849.03423,1926,0,ɔ_s
1774424849.0371919,1960,0,ɔ_s
1774424849.0424268,2058,0,ɔ_s
1774424849.043957,2056,0,ɔ_s
1774424849.046759,1983,0,ɔ_s
1774424849.050092,1940,0,ɔ_s
1774424849.052639,1919,0,ɔ_s
1774424849.055198,1978,0,ɔ_s
1774424849.058156,2050,0,ɔ_s
1774424849.0625,2067,0,ɔ_s
1774424849.06461,1934,0,ɔ_s
1774424849.068633,1950,0,ɔ_s
1774424849.0712,1937,0,ɔ_s
1774424849.073743,2027,0,ɔ_s
1774424849.076284,2053,0,ɔ_s
1774424849.0790348,2015,0,ɔ_s
1774424849.083589,1931,0,ɔ_s
1774424849.086163,1922,0,ɔ_s
1774424849.088968,1971,0,ɔ_s
1774424849.091464,2041,0,ɔ_s
1774424849.0941298,2078,0,ɔ_s
1774424849.097096,1949,0,ɔ_s
1774424849.1033459,1966,0,ɔ_s
1774424849.1034381,1938,0,ɔ_s
1774424849.106497,2002,0,ɔ_s
1774424849.110024,2060,0,ɔ_s
1774424849.112702,2039,0,ɔ_s
1774424849.115254,1954,0,ɔ_s
1774424849.118093,1915,0,ɔ_s
1774424849.123882,1941,0,ɔ_s
1774424849.124213,2060,0,ɔ_s
1774424849.1273952,2054,0,ɔ_s
1774424849.130809,1967,0,ɔ_s
1774424849.133506,1949,0,ɔ_s
1774424849.136062,1941,0,ɔ_s
1774424849.139062,2014,0,ɔ_s
1774424849.144319,2056,0,ɔ_s
1774424849.145854,2036,0,ɔ_s
1774424849.149693,1913,0,ɔ_s
1774424849.152225,1918,0,ɔ_s
1774424849.154067,2002,0,ɔ_s
1774424849.157076,2008,0,ɔ_s
1774424849.160057,2058,0,ɔ_s
1774424849.164893,2050,0,ɔ_s
1774424849.166732,1962,0,ɔ_s
1774424849.1695528,1864,0,ɔ_s
1774424849.1731489,1981,0,ɔ_s
1774424849.1757061,2103,0,ɔ_s
1774424849.178249,2049,0,ɔ_s
1774424849.1810849,1882,0,ɔ_s
1774424849.185678,1950,0,ɔ_s
1774424849.18842,1975,0,ɔ_s
1774424849.1901472,2023,0,ɔ_s
1774424849.193562,1983,0,ɔ_s
1774424849.196108,2040,0,ɔ_s
1774424849.199189,2006,0,ɔ_s
1774424849.202089,1872,0,ɔ_s
1774424849.206134,1892,0,ɔ_s
1774424849.209297,2091,0,ɔ_s
1774424849.211215,2038,0,ɔ_s
1774424849.214704,1936,0,ɔ_s
1774424849.217244,1920,0,ɔ_s
1774424849.220076,2033,0,ɔ_s
1774424849.226219,2066,0,ɔ_s
1774424849.227445,1991,0,ɔ_s
1774424849.229884,1998,0,ɔ_s
1774424849.2334259,1996,0,ɔ_s
1774424849.2350621,1917,0,ɔ_s
1774424849.238034,1935,0,ɔ_s
1774424849.241079,2044,0,ɔ_s
1774424849.246874,2096,0,ɔ_s
1774424849.2478259,1909,0,ɔ_s
1774424849.250192,1926,0,ɔ_s
1774424849.253628,1960,0,ɔ_s
1774424849.256206,2069,0,ɔ_s
1774424849.259066,2031,0,ɔ_s
1774424849.262047,2033,0,ɔ_s
1774424849.267067,1943,0,ɔ_s
1774424849.270008,1881,0,ɔ_s
1774424849.272819,1944,0,ɔ_s
1774424849.274135,2042,0,ɔ_s
1774424849.276948,2072,0,ɔ_s
1774424849.279924,1983,0,ɔ_s
1774424849.283005,1942,0,ɔ_s
1774424849.288629,1917,0,ɔ_s
1774424849.291923,1998,0,ɔ_s
1774424849.292377,2050,0,ɔ_s
1774424849.296122,2077,0,ɔ_s
1774424849.298037,1929,0,ɔ_s
1774424849.30094,1922,0,ɔ_s
1774424849.303987,1959,0,ɔ_s
1774424849.3121622,2057,0,ɔ_s
1774424849.313581,2056,0,ɔ_s
1774424849.315603,1989,0,ɔ_s
1774424849.3163562,1956,0,ɔ_s
1774424849.320159,1912,0,ɔ_s
1774424849.3219981,1983,0,ɔ_s
1774424849.3249018,2031,0,ɔ_s
1774424849.3279092,2075,0,ɔ_s
1774424849.333726,1935,0,ɔ_s
1774424849.334123,1937,0,ɔ_s
1774424849.3374279,1938,0,ɔ_s
1774424849.340856,2066,0,ɔ_s
1774424849.343554,2059,0,ɔ_s
1774424849.346112,2000,0,ɔ_s
1774424849.348917,1973,0,ɔ_s
1774424849.353825,1888,0,ɔ_s
1774424849.3553972,1964,0,ɔ_s
1774424849.359519,2038,0,ɔ_s
1774424849.3618078,2056,0,ɔ_s
1774424849.3643599,1955,0,ɔ_s
1774424849.3669271,1931,0,ɔ_s
1774424849.36991,1945,0,ɔ_s
1774424849.373963,2024,0,ɔ_s
1774424849.375962,2064,0,ɔ_s
1774424849.3798468,2019,0,ɔ_s
1774424849.382338,1937,0,ɔ_s
1774424849.384918,1909,0,ɔ_s
1774424849.387915,1954,0,ɔ_s
1774424849.390927,2070,0,ɔ_s
1774424849.394401,2074,0,ɔ_s
1774424849.3973088,1966,0,ɔ_s
1774424849.400739,1932,0,ɔ_s
1774424849.403473,1945,0,ɔ_s
1774424849.406074,2023,0,ɔ_s
1774424849.4089322,2038,0,ɔ_s
1774424849.415305,2054,0,ɔ_s
1774424849.415424,1958,0,ɔ_s
1774424849.418586,1922,0,ɔ_s
1774424849.422139,1932,0,ɔ_s
1774424849.423924,2051,0,ɔ_s
1774424849.426944,2067,0,ɔ_s
1774424849.429941,1985,0,ɔ_s
1774424849.43585,1965,0,ɔ_s
1774424849.436203,1894,0,ɔ_s
1774424849.4392,1988,0,ɔ_s
1774424849.442456,2056,0,ɔ_s
1774424849.445083,2052,0,ɔ_s
1774424849.4479518,1946,0,ɔ_s
1774424849.4508412,1909,0,ɔ_s
1774424849.456403,1950,0,ɔ_s
1774424849.458004,2090,0,ɔ_s
1774424849.459944,2088,0,ɔ_s
1774424849.464391,1974,0,ɔ_s
1774424849.4658282,1928,0,ɔ_s
1774424849.4687932,1914,0,ɔ_s
1774424849.472833,2081,0,ɔ_s
1774424849.47815,2033,0,ɔ_s
1774424849.4783008,2019,0,ɔ_s
1774424849.481131,1922,0,ɔ_s
1774424849.48474,1953,0,ɔ_s
1774424849.487285,2008,0,ɔ_s
1774424849.489834,1979,0,ɔ_s
1774424849.4928262,1999,0,ɔ_s
1774424849.4963882,2033,0,ɔ_s
1774424849.4995341,2010,0,ɔ_s
1774424849.50281,1898,0,ɔ_s
1774424849.504825,1937,0,ɔ_s
1774424849.5084102,2074,0,ɔ_s
1774424849.5109491,2127,0,ɔ_s
1774424849.516959,1874,0,ɔ_s
1774424849.517063,1934,0,ɔ_s
1774424849.5202072,1966,0,ɔ_s
1774424849.523649,2087,0,ɔ_s
1774424849.52629,1991,0,ɔ_s
1774424849.5288472,1985,0,ɔ_s
1774424849.531819,1981,0,ɔ_s
1774424849.5375202,1940,0,ɔ_s
1774424849.5381389,1921,0,ɔ_s
1774424849.541163,2091,0,ɔ_s
1774424849.545608,2071,0,ɔ_s
1774424849.5469,1949,0,ɔ_s
1774424849.549819,1886,0,ɔ_s
1774424849.552822,1932,0,ɔ_s
1774424849.5575628,2062,0,ɔ_s
1774424849.5594308,2084,0,ɔ_s
1774424849.563325,2011,0,ɔ_s
1774424849.5658398,1956,0,ɔ_s
1774424849.5683908,1896,0,ɔ_s
1774424849.5709388,1930,0,ɔ_s
1774424849.573884,2074,0,ɔ_s
1774424849.577706,2114,0,ɔ_s
1774424849.581214,1991,0,ɔ_s
1774424849.583082,1903,0,ɔ_s
1774424849.586619,1901,0,ɔ_s
1774424849.589164,2024,0,ɔ_s
1774424849.591836,2024,0,ɔ_s
1774424849.5948899,2068,0,ɔ_s
1774424849.598112,1913,0,ɔ_s
1774424849.601205,1936,0,ɔ_s
1774424849.6048572,1951,0,ɔ_s
1774424849.6068192,2033,0,ɔ_s
1774424849.6098208,2065,0,ɔ_s
1774424849.6128151,2038,0,ɔ_s
1774424849.618476,1963,0,ɔ_s
1774424849.619355,1885,0,ɔ_s
1774424849.622036,1985,0,ɔ_s
1774424849.6254258,2042,0,ɔ_s
1774424849.628072,2071,0,ɔ_s
1774424849.63067,1944,0,ɔ_s
1774424849.6340852,1925,0,ɔ_s
1774424849.638619,1959,0,ɔ_s
1774424849.640647,2074,0,ɔ_s
1774424849.644473,2050,0,ɔ_s
1774424849.6469781,2003,0,ɔ_s
1774424849.648693,1932,0,ɔ_s
1774424849.651691,1938,0,ɔ_s
1774424849.654658,1967,0,ɔ_s
1774424849.6596649,2058,0,ɔ_s
1774424849.661336,2050,0,ɔ_s
1774424849.666454,1960,0,ɔ_s
1774424849.6667662,1966,0,ɔ_s
1774424849.669703,1910,0,ɔ_s
1774424849.673345,2011,0,ɔ_s
1774424849.675891,2060,0,ɔ_s
1774424849.679935,2052,0,ɔ_s
1774424849.683294,1937,0,ɔ_s
1774424849.685479,1909,0,ɔ_s
1774424849.6880069,1949,0,ɔ_s
1774424849.6907032,2066,0,ɔ_s
1774424849.6942542,2064,0,ɔ_s
1774424849.69683,1972,0,ɔ_s
1774424849.700903,1952,0,ɔ_s
1774424849.703806,1904,0,ɔ_s
1774424849.7061918,2003,0,ɔ_s
1774424849.708704,2081,0,ɔ_s
1774424849.711715,2054,0,ɔ_s
1774424849.714689,1931,0,ɔ_s
1774424849.72033,1930,0,ɔ_s
1774424849.721044,1944,0,ɔ_s
1774424849.7239501,2059,0,ɔ_s
1774424849.727367,2068,0,ɔ_s
1774424849.73003,1985,0,ɔ_s
1774424849.7326999,1931,0,ɔ_s
1774424849.7356899,1937,0,ɔ_s
1774424849.740763,2009,0,ɔ_s
1774424849.742595,2062,0,ɔ_s
1774424849.744714,2050,0,ɔ_s
1774424849.749013,1943,0,ɔ_s
1774424849.750684,1907,0,ɔ_s
1774424849.753692,1927,0,ɔ_s
1774424849.75668,2034,0,ɔ_s
1774424849.7607749,2070,0,ɔ_s
1774424849.76286,2038,0,ɔ_s
1774424849.766783,1964,0,ɔ_s
1774424849.769373,1876,0,ɔ_s
1774424849.771918,1988,0,ɔ_s
1774424849.7747478,2043,0,ɔ_s
1774424849.777672,2050,0,ɔ_s
1774424849.7825751,1919,0,ɔ_s
1774424849.784068,1932,0,ɔ_s
1774424849.788044,1947,0,ɔ_s
1774424849.790296,2100,0,ɔ_s
1774424849.79285,2065,0,ɔ_s
1774424849.795666,2020,0,ɔ_s
1774424849.798723,1958,0,ɔ_s
1774424849.802537,1907,0,ɔ_s
1774424849.805713,1944,0,ɔ_s
1774424849.8086631,2072,0,ɔ_s
1774424849.8113039,2118,0,ɔ_s
1774424849.813848,1946,0,ɔ_s
1774424849.8166661,1915,0,ɔ_s
1774424849.822695,1950,0,ɔ_s
1774424849.823296,2039,0,ɔ_s
1774424849.826538,2009,0,ɔ_s
1774424849.829874,2043,0,ɔ_s
1774424849.831676,1963,0,ɔ_s
1774424849.8345768,1974,0,ɔ_s
1774424849.837556,1907,0,ɔ_s
1774424849.843534,2045,0,ɔ_s
1774424849.843945,2070,0,ɔ_s
1774424849.846602,1956,0,ɔ_s
1774424849.850058,1920,0,ɔ_s
1774424849.852741,1951,0,ɔ_s
1774424849.855546,2011,0,ɔ_s
1774424849.8585532,2073,0,ɔ_s
1774424849.863364,2034,0,ɔ_s
1774424849.8652081,1982,0,ɔ_s
1774424849.868172,1941,0,ɔ_s
1774424849.871594,1932,0,ɔ_s
1774424849.874144,2061,0,ɔ_s
1774424849.8766909,2064,0,ɔ_s
1774424849.8795571,1959,0,ɔ_s
1774424849.8836422,1907,0,ɔ_s
1774424849.8857028,1928,0,ɔ_s
1774424849.889822,2059,0,ɔ_s
1774424849.892398,2054,0,ɔ_s
1774424849.8949718,2005,0,ɔ_s
1774424849.897535,1962,0,ɔ_s
1774424849.9044821,1934,0,ɔ_s
1774424849.905083,1931,0,ɔ_s
1774424849.9076512,2054,0,ɔ_s
1774424849.910526,2097,0,ɔ_s
1774424849.913088,1993,0,ɔ_s
1774424849.915636,1911,0,ɔ_s
1774424849.918592,1919,0,ɔ_s
1774424849.924706,1967,0,ɔ_s
1774424849.924791,2018,0,ɔ_s
1774424849.928498,2024,0,ɔ_s
1774424849.9316428,1928,0,ɔ_s
1774424849.933567,1951,0,ɔ_s
1774424849.9365802,1983,0,ɔ_s
1774424849.939562,2070,0,ɔ_s
1774424849.945282,2075,0,ɔ_s
1774424849.945639,2057,0,ɔ_s
1774424849.9488,1983,0,ɔ_s
1774424849.953368,1926,0,ɔ_s
1774424849.9546711,1974,0,ɔ_s
1774424849.957588,2055,0,ɔ_s
1774424849.960584,2056,0,ɔ_s
1774424849.965465,1956,0,ɔ_s
1774424849.9671,1925,0,ɔ_s
1774424849.9721322,1943,0,ɔ_s
1774424849.973419,2032,0,ɔ_s
1774424849.975968,2059,0,ɔ_s
1774424849.978577,2033,0,ɔ_s
1774424849.982363,1931,0,ɔ_s
1774424849.985596,1905,0,ɔ_s
1774424849.987575,1920,0,ɔ_s
1774424849.992795,2070,0,ɔ_s
1774424849.994345,2014,0,ɔ_s
1774424849.996898,1956,0,ɔ_s
1774424849.999573,1987,0,ɔ_s
1774424850.002676,1959,0,ɔ_s
1774424850.0058439,2015,0,ɔ_s
1774424850.009085,2063,0,ɔ_s
1774424850.0127091,2075,0,ɔ_s
1774424850.0145721,1919,0,ɔ_s
1774424850.017568,1930,0,ɔ_s
1774424850.0205739,1929,0,ɔ_s
1774424850.0264509,2013,0,ɔ_s
1774424850.0268412,2056,0,ɔ_s
1774424850.029835,1985,0,ɔ_s
1774424850.033376,1977,0,ɔ_s
1774424850.036018,1948,0,ɔ_s
1774424850.038583,2011,0,ɔ_s
1774424850.041555,2004,0,ɔ_s
1774424850.047329,1971,0,ɔ_s
1774424850.047418,1980,0,ɔ_s
1774424850.050773,2007,0,ɔ_s
1774424850.0540428,1943,0,ɔ_s
1774424850.056588,2024,0,ɔ_s
1774424850.059456,2032,0,ɔ_s
1774424850.0624619,2052,0,ɔ_s
1774424850.0677881,1946,0,ɔ_s
1774424850.070483,1892,0,ɔ_s
1774424850.071954,1981,0,ɔ_s
1774424850.0755599,2093,0,ɔ_s
1774424850.078101,2046,0,ɔ_s
1774424850.080512,1921,0,ɔ_s
1774424850.0834198,1923,0,ɔ_s
1774424850.087712,1933,0,ɔ_s
1774424850.0903811,2022,0,ɔ_s
1774424850.094335,2027,0,ɔ_s
1774424850.095673,2015,0,ɔ_s
1774424850.098453,1962,0,ɔ_s
1774424850.1014469,1954,0,ɔ_s
1774424850.1044538,1974,0,ɔ_s
1774424850.10829,2039,0,ɔ_s
1774424850.111083,2053,0,ɔ_s
1774424850.114423,1964,0,ɔ_s
1774424850.116451,1922,0,ɔ_s
1774424850.119457,1914,0,ɔ_s
1774424850.122441,2017,0,ɔ_s
1774424850.1281931,2048,0,ɔ_s
1774424850.128832,2052,0,ɔ_s
1774424850.131546,1997,0,ɔ_s
1774424850.135103,1982,0,ɔ_s
1774424850.137758,1895,0,ɔ_s
1774424850.1404312,1994,0,ɔ_s
1774424850.1434581,2098,0,ɔ_s
1774424850.1485991,1970,0,ɔ_s
1774424850.1502872,1886,0,ɔ_s
1774424850.15272,1946,0,ɔ_s
1774424850.1563,1995,0,ɔ_s
1774424850.158855,2003,0,ɔ_s
1774424850.161401,2081,0,ɔ_s
1774424850.164405,1989,0,ɔ_s
1774424850.169101,1976,0,ɔ_s
1774424850.170618,1911,0,ɔ_s
1774424850.174481,2028,0,ɔ_s
1774424850.176966,2092,0,ɔ_s
1774424850.179507,1981,0,ɔ_s
1774424850.18241,1933,0,ɔ_s
1774424850.185453,1918,0,ɔ_s
1774424850.189098,1981,0,ɔ_s
1774424850.1922119,2005,0,ɔ_s
1774424850.1952052,2046,0,ɔ_s
1774424850.197471,2013,0,ɔ_s
1774424850.2004411,1960,0,ɔ_s
1774424850.2034402,1899,0,ɔ_s
1774424850.20931,1995,0,ɔ_s
1774424850.209654,2111,0,ɔ_s
1774424850.213141,1992,0,ɔ_s
1774424850.215447,1931,0,ɔ_s
1774424850.2189078,1924,0,ɔ_s
1774424850.2214751,2058,0,ɔ_s
1774424850.225035,2029,0,ɔ_s
1774424850.229762,1995,0,ɔ_s
1774424850.231833,1962,0,ɔ_s
1774424850.233919,2009,0,ɔ_s
1774424850.238154,1892,0,ɔ_s
1774424850.239439,2005,0,ɔ_s
1774424850.2424479,2050,0,ɔ_s
1774424850.2452989,2095,0,ɔ_s
1774424850.250394,1860,0,ɔ_s
1774424850.2522418,1902,0,ɔ_s
1774424850.255083,2011,0,ɔ_s
1774424850.2574348,2046,0,ɔ_s
1774424850.260334,2044,0,ɔ_s
1774424850.263324,1918,0,ɔ_s
1774424850.266295,1926,0,ɔ_s
1774424850.2707462,1945,0,ɔ_s
1774424850.2725701,2017,0,ɔ_s
1774424850.275455,2070,0,ɔ_s
1774424850.2789178,2067,0,ɔ_s
1774424850.281479,1960,0,ɔ_s
1774424850.284354,1921,0,ɔ_s
1774424850.287293,1936,0,ɔ_s
1774424850.291093,2051,0,ɔ_s
1774424850.294135,2077,0,ɔ_s
1774424850.297933,1998,0,ɔ_s
1774424850.2994602,1962,0,ɔ_s
1774424850.302322,1902,0,ɔ_s
1774424850.305294,1987,0,ɔ_s
1774424850.3113139,2046,0,ɔ_s
1774424850.311657,2064,0,ɔ_s
1774424850.315166,1961,0,ɔ_s
1774424850.317525,1948,0,ɔ_s
1774424850.32032,1960,0,ɔ_s
1774424850.323287,2055,0,ɔ_s
1774424850.3263261,2046,0,ɔ_s
1774424850.331913,1990,0,ɔ_s
1774424850.332474,1939,0,ɔ_s
1774424850.335467,1907,0,ɔ_s
1774424850.3388329,1976,0,ɔ_s
1774424850.3414972,2060,0,ɔ_s
1774424850.344287,2071,0,ɔ_s
1774424850.347309,1930,0,ɔ_s
1774424850.35204,1941,0,ɔ_s
1774424850.353846,1951,0,ɔ_s
1774424850.357858,2026,0,ɔ_s
1774424850.360408,2041,0,ɔ_s
1774424850.362962,2032,0,ɔ_s
1774424850.365514,1958,0,ɔ_s
1774424850.368299,1909,0,ɔ_s
1774424850.3725739,1953,0,ɔ_s
1774424850.375405,2074,0,ɔ_s
1774424850.3793752,2058,0,ɔ_s
1774424850.3809202,1955,0,ɔ_s
1774424850.383476,1950,0,ɔ_s
1774424850.386297,1942,0,ɔ_s
1774424850.392957,2005,0,ɔ_s
1774424850.393003,2053,0,ɔ_s
1774424850.3959968,2039,0,ɔ_s
1774424850.398873,1966,0,ɔ_s
1774424850.401532,1928,0,ɔ_s
1774424850.404285,1936,0,ɔ_s
1774424850.4072828,2040,0,ɔ_s
1774424850.413172,2053,0,ɔ_s
1774424850.4134982,1975,0,ɔ_s
1774424850.4170618,1930,0,ɔ_s
1774424850.419402,1911,0,ɔ_s
1774424850.422285,2012,0,ɔ_s
1774424850.4252748,2060,0,ɔ_s
1774424850.428289,2056,0,ɔ_s
1774424850.4337568,1925,0,ɔ_s
1774424850.434465,1931,0,ɔ_s
1774424850.437516,1972,0,ɔ_s
1774424850.441115,2070,0,ɔ_s
1774424850.443786,2039,0,ɔ_s
1774424850.446332,1983,0,ɔ_s
1774424850.449436,1957,0,ɔ_s
1774424850.4542232,1954,0,ɔ_s
1774424850.456358,2030,0,ɔ_s
1774424850.458221,2002,0,ɔ_s
1774424850.462058,2042,0,ɔ_s
1774424850.464721,1982,0,ɔ_s
1774424850.4672651,1906,0,ɔ_s
1774424850.470189,1922,0,ɔ_s
1774424850.4751291,2076,0,ɔ_s
1774424850.476753,2095,0,ɔ_s
1774424850.47966,1960,0,ɔ_s
1774424850.483233,1934,0,ɔ_s
1774424850.485781,1919,0,ɔ_s
1774424850.488343,1963,0,ɔ_s
1774424850.4911628,2032,0,ɔ_s
1774424850.4955451,2079,0,ɔ_s
1774424850.4983838,2002,0,ɔ_s
1774424850.501317,1944,0,ɔ_s
1774424850.503838,1897,0,ɔ_s
1774424850.5063932,2023,0,ɔ_s
1774424850.509228,2077,0,ɔ_s
1774424850.5153348,2000,0,ɔ_s
1774424850.5154,1942,0,ɔ_s
1774424850.518708,1908,0,ɔ_s
1774424850.522223,1982,0,ɔ_s
1774424850.5249522,2021,0,ɔ_s
1774424850.527495,2042,0,ɔ_s
1774424850.530192,2005,0,ɔ_s
1774424850.535712,1967,0,ɔ_s
1774424850.5363321,1859,0,ɔ_s
1774424850.539246,1992,0,ɔ_s
1774424850.544033,2082,0,ɔ_s
1774424850.54542,2065,0,ɔ_s
1774424850.548209,1938,0,ɔ_s
1774424850.551235,1935,0,ɔ_s
1774424850.556062,1974,0,ɔ_s
1774424850.557701,2017,0,ɔ_s
1774424850.5616782,2030,0,ɔ_s
1774424850.5641909,2007,0,ɔ_s
1774424850.56675,1965,0,ɔ_s
1774424850.5693069,1890,0,ɔ_s
1774424850.5721579,1964,0,ɔ_s
1774424850.5762482,2048,0,ɔ_s
1774424850.578197,2058,0,ɔ_s
1774424850.582237,1975,0,ɔ_s
1774424850.584518,1933,0,ɔ_s
1774424850.587191,1923,0,ɔ_s
1774424850.5901911,2028,0,ɔ_s
1774424850.593235,2052,0,ɔ_s
1774424850.596647,2039,0,ɔ_s
1774424850.5996249,1959,0,ɔ_s
1774424850.6031098,1906,0,ɔ_s
1774424850.6057448,1983,0,ɔ_s
1774424850.608288,2050,0,ɔ_s
1774424850.6111941,2070,0,ɔ_s
1774424850.61742,1937,0,ɔ_s
1774424850.617492,1928,0,ɔ_s
1774424850.620969,1967,0,ɔ_s
1774424850.6240928,2051,0,ɔ_s
1774424850.6267881,2049,0,ɔ_s
1774424850.6293519,1981,0,ɔ_s
1774424850.632195,1943,0,ɔ_s
1774424850.637556,1903,0,ɔ_s
1774424850.638499,1993,0,ɔ_s
1774424850.642327,2058,0,ɔ_s
1774424850.644377,2058,0,ɔ_s
1774424850.6471958,1952,0,ɔ_s
1774424850.65016,1952,0,ɔ_s
1774424850.653172,1939,0,ɔ_s
1774424850.6576881,2007,0,ɔ_s
1774424850.6596448,2058,0,ɔ_s
1774424850.6635919,2044,0,ɔ_s
1774424850.666093,1938,0,ɔ_s
1774424850.6686459,1906,0,ɔ_s
1774424850.671202,1935,0,ɔ_s
1774424850.674186,2084,0,ɔ_s
1774424850.677444,2069,0,ɔ_s
1774424850.681163,1956,0,ɔ_s
1774424850.683535,1935,0,ɔ_s
1774424850.686197,1931,0,ɔ_s
1774424850.689184,2027,0,ɔ_s
1774424850.692182,2046,0,ɔ_s
1774424850.698208,2038,0,ɔ_s
1774424850.699637,1949,0,ɔ_s
1774424850.7022579,1950,0,ɔ_s
1774424850.704581,1952,0,ɔ_s
1774424850.707127,2022,0,ɔ_s
1774424850.710071,2047,0,ɔ_s
1774424850.713078,1971,0,ɔ_s
1774424850.718692,1955,0,ɔ_s
1774424850.7193348,1917,0,ɔ_s
1774424850.722603,2023,0,ɔ_s
1774424850.725825,2069,0,ɔ_s
1774424850.7284632,2061,0,ɔ_s
1774424850.731076,1914,0,ɔ_s
1774424850.7340531,1913,0,ɔ_s
1774424850.738719,1954,0,ɔ_s
1774424850.740514,2062,0,ɔ_s
1774424850.7446651,2057,0,ɔ_s
1774424850.746877,2000,0,ɔ_s
1774424850.749326,1962,0,ɔ_s
1774424850.752071,1932,0,ɔ_s
1774424850.7550452,1978,0,ɔ_s
1774424850.761271,2058,0,ɔ_s
1774424850.761405,2042,0,ɔ_s
1774424850.765301,1940,0,ɔ_s
1774424850.7675588,1891,0,ɔ_s
1774424850.770111,1968,0,ɔ_s
1774424850.773073,2084,0,ɔ_s
1774424850.7760682,2037,0,ɔ_s
1774424850.7792609,1983,0,ɔ_s
1774424850.782691,1935,0,ɔ_s
1774424850.786174,1959,0,ɔ_s
1774424850.788068,2034,0,ɔ_s
1774424850.791054,2042,0,ɔ_s
1774424850.7940621,2025,0,ɔ_s
1774424850.800143,1944,0,ɔ_s
1774424850.800541,1959,0,ɔ_s
1774424850.803749,1934,0,ɔ_s
1774424850.8070662,2027,0,ɔ_s
1774424850.809072,2130,0,ɔ_s
1774424850.8120708,2000,0,ɔ_s
1774424850.81507,1876,0,ɔ_s
1774424850.820838,1891,0,ɔ_s
1774424850.821224,2012,0,ɔ_s
1774424850.824149,2087,0,ɔ_s
1774424850.828753,2041,0,ɔ_s
1774424850.8301,1931,0,ɔ_s
1774424850.833071,1945,0,ɔ_s
1774424850.836073,1906,0,ɔ_s
1774424850.840598,2031,0,ɔ_s
1774424850.842496,2083,0,ɔ_s
1774424850.845251,2102,0,ɔ_s
1774424850.848796,1912,0,ɔ_s
1774424850.851338,1919,0,ɔ_s
1774424850.854048,1935,0,ɔ_s
1774424850.857034,2101,0,ɔ_s
1774424850.8609679,2019,0,ɔ_s
1774424850.863136,2002,0,ɔ_s
1774424850.8671849,1954,0,ɔ_s
1774424850.86991,1913,0,ɔ_s
1774424850.8724601,1968,0,ɔ_s
1774424850.875059,2084,0,ɔ_s
1774424850.878047,2118,0,ɔ_s
1774424850.881345,1944,0,ɔ_s
1774424850.884584,1891,0,ɔ_s
1774424850.8881018,1968,0,ɔ_s
1774424850.890075,2010,0,ɔ_s
1774424850.893068,2035,0,ɔ_s
1774424850.8960419,1971,0,ɔ_s
1774424850.902028,1952,0,ɔ_s
1774424850.9029639,1917,0,ɔ_s
1774424850.9053838,1978,0,ɔ_s
1774424850.909004,2054,0,ɔ_s
1774424850.911051,2064,0,ɔ_s
1774424850.9140532,1947,0,ɔ_s
1774424850.917056,1925,0,ɔ_s
1774424850.922273,1938,0,ɔ_s
1774424850.9242089,2022,0,ɔ_s
1774424850.926563,2075,0,ɔ_s
1774424850.930751,2029,0,ɔ_s
1774424850.932033,1952,0,ɔ_s
1774424850.935075,1925,0,ɔ_s
1774424850.938074,1983,0,ɔ_s
1774424850.943394,2035,0,ɔ_s
1774424850.94485,2042,0,ɔ_s
1774424850.948831,1936,0,ɔ_s
1774424850.951262,1936,0,ɔ_s
1774424850.953093,1926,0,ɔ_s
1774424850.956023,2034,0,ɔ_s
1774424850.959074,2063,0,ɔ_s
1774424850.96309,2056,0,ɔ_s
1774424850.965184,1943,0,ɔ_s
1774424850.968263,1912,0,ɔ_s
1774424850.971832,1931,0,ɔ_s
1774424850.9744818,2040,0,ɔ_s
1774424850.9770792,2070,0,ɔ_s
1774424850.9833658,1958,0,ɔ_s
1774424850.983479,1937,0,ɔ_s
1774424850.987039,1928,0,ɔ_s
1774424850.9895282,2020,0,ɔ_s
1774424850.992147,2062,0,ɔ_s
1774424850.9949162,2048,0,ɔ_s
1774424850.998743,1943,0,ɔ_s
1774424851.003509,1928,0,ɔ_s
1774424851.0041459,1950,0,ɔ_s
1774424851.007091,2027,0,ɔ_s
1774424851.011959,2042,0,ɔ_s
1774424851.0132449,1987,0,ɔ_s
1774424851.015949,1950,0,ɔ_s
1774424851.018948,1915,0,ɔ_s
1774424851.023652,2005,0,ɔ_s
1774424851.025447,2108,0,ɔ_s
1774424851.028343,2072,0,ɔ_s
1774424851.031828,1913,0,ɔ_s
1774424851.034375,1922,0,ɔ_s
1774424851.03696,1945,0,ɔ_s
1774424851.03992,2042,0,ɔ_s
1774424851.044972,2054,0,ɔ_s
1774424851.046317,1996,0,ɔ_s
1774424851.050231,1964,0,ɔ_s
1774424851.0528371,1919,0,ɔ_s
1774424851.0553348,1975,0,ɔ_s
1774424851.057947,2034,0,ɔ_s
1774424851.0609548,2069,0,ɔ_s
1774424851.065127,1959,0,ɔ_s
1774424851.067903,1925,0,ɔ_s
1774424851.07181,1930,0,ɔ_s
1774424851.0732338,2026,0,ɔ_s
1774424851.075993,2074,0,ɔ_s
1774424851.078948,2028,0,ɔ_s
1774424851.085173,1958,0,ɔ_s
1774424851.086074,1915,0,ɔ_s
1774424851.0886898,1956,0,ɔ_s
1774424851.0922508,2074,0,ɔ_s
1774424851.09394,2039,0,ɔ_s
1774424851.096936,1942,0,ɔ_s
1774424851.099935,1952,0,ɔ_s
1774424851.1054668,1983,0,ɔ_s
1774424851.1061041,2062,0,ɔ_s
1774424851.1091,2009,0,ɔ_s
1774424851.113546,2030,0,ɔ_s
1774424851.114934,1941,0,ɔ_s
1774424851.11792,1979,0,ɔ_s
1774424851.120949,1983,0,ɔ_s
1774424851.126208,2018,0,ɔ_s
1774424851.127708,2023,0,ɔ_s
1774424851.131608,2004,0,ɔ_s
1774424851.134196,1952,0,ɔ_s
1774424851.13594,1880,0,ɔ_s
1774424851.138929,2008,0,ɔ_s
1774424851.141917,2113,0,ɔ_s
1774424851.1457589,2038,0,ɔ_s
1774424851.14801,1879,0,ɔ_s
1774424851.151819,1917,0,ɔ_s
1774424851.154078,2045,0,ɔ_s
1774424851.1569421,2030,0,ɔ_s
1774424851.159945,1991,0,ɔ_s
1774424851.166891,1967,0,ɔ_s
1774424851.1675289,1993,0,ɔ_s
1774424851.1701949,1909,0,ɔ_s
1774424851.172964,1963,0,ɔ_s
1774424851.1755788,2087,0,ɔ_s
1774424851.17815,2095,0,ɔ_s
1774424851.180945,1896,0,ɔ_s
1774424851.187042,1914,0,ɔ_s
1774424851.187451,1958,0,ɔ_s
1774424851.1903129,2035,0,ɔ_s
1774424851.193857,2031,0,ɔ_s
1774424851.196588,2004,0,ɔ_s
1774424851.199137,1943,0,ɔ_s
1774424851.201944,1899,0,ɔ_s
1774424851.207107,1964,0,ɔ_s
1774424851.209045,2119,0,ɔ_s
1774424851.211284,2092,0,ɔ_s
1774424851.21556,1877,0,ɔ_s
1774424851.216987,1912,0,ɔ_s
1774424851.219925,1946,0,ɔ_s
1774424851.222908,2026,0,ɔ_s
1774424851.2274072,2037,0,ɔ_s
1774424851.229255,2021,0,ɔ_s
1774424851.233175,1957,0,ɔ_s
1774424851.235751,1919,0,ɔ_s
1774424851.238305,1979,0,ɔ_s
1774424851.240961,2056,0,ɔ_s
1774424851.2439182,2066,0,ɔ_s
1774424851.248668,1941,0,ɔ_s
1774424851.250283,1919,0,ɔ_s
1774424851.254196,1912,0,ɔ_s
