timestamp,ch1,ch2,label
1779266501.016024,1973,2107,æ
1779266501.0162401,2126,2078,æ
1779266501.01632,2088,2014,æ
1779266501.016386,2050,1992,æ
1779266501.016449,2048,2038,æ
1779266501.01651,2016,2088,æ
1779266501.0165708,2048,2046,æ
1779266501.0167198,2060,2029,æ
1779266501.016823,2089,2160,æ
1779266501.01689,2023,2125,æ
1779266501.016953,2005,1993,æ
1779266501.017015,2040,1989,æ
1779266501.017078,2079,2061,æ
1779266501.017141,2040,2062,æ
1779266501.017206,2075,2138,æ
1779266501.017267,2054,2077,æ
1779266501.017328,2155,2090,æ
1779266501.017389,2026,2048,æ
1779266501.01745,1897,1990,æ
1779266501.017518,1965,1960,æ
1779266501.017578,2098,1989,æ
1779266501.017639,2049,2093,æ
1779266501.017699,2019,2126,æ
1779266501.0177689,2024,2173,æ
1779266501.017837,2026,2175,æ
1779266501.017898,2026,2182,æ
1779266501.017958,1954,2034,æ
1779266501.0180218,1990,1945,æ
1779266501.018081,2169,1921,æ
1779266501.018193,2193,1954,æ
1779266501.018271,2009,2021,æ
1779266501.0183392,2017,2019,æ
1779266501.018949,2065,2008,æ
1779266501.025594,2093,2110,æ
1779266501.029421,2000,2128,æ
1779266501.0298,1939,2080,æ
1779266501.030967,2072,2021,æ
1779266501.036797,2078,2084,æ
1779266501.038033,2036,2078,æ
1779266501.04087,2020,2074,æ
1779266501.043233,2076,2048,æ
1779266501.048584,2069,2108,æ
1779266501.049186,2083,2013,æ
1779266501.0493498,2043,1942,æ
1779266501.049443,2020,1903,æ
1779266501.049527,2062,1974,æ
1779266501.049654,2051,2117,æ
1779266501.049872,1995,2160,æ
1779266501.049958,2002,2042,æ
1779266501.050038,2144,2068,æ
1779266501.050109,2077,2171,æ
1779266501.050177,1970,2113,æ
1779266501.050281,2028,2019,æ
1779266501.050427,2065,2037,æ
1779266501.0505111,2108,2018,æ
1779266501.050705,1971,2087,æ
1779266501.050892,1913,2090,æ
1779266501.050988,2015,2096,æ
1779266501.051063,2141,2154,æ
1779266501.051321,2062,2124,æ
1779266501.0517309,2051,2037,æ
1779266501.0519629,1979,1937,æ
1779266501.063949,2063,2082,æ
1779266501.076637,2099,2082,æ
1779266501.076951,2071,2057,æ
1779266501.077039,2076,2017,æ
1779266501.077111,2058,2138,æ
1779266501.077183,1954,2149,æ
1779266501.077251,1995,2100,æ
1779266501.0773199,2070,1983,æ
1779266501.077486,2084,2048,æ
1779266501.077578,2077,2114,æ
1779266501.077653,2070,2160,æ
1779266501.0777159,2031,2124,æ
1779266501.0777779,2019,2116,æ
1779266501.0778408,2049,2191,æ
1779266501.0779798,2020,2107,æ
1779266501.078054,2047,2033,æ
1779266501.0781178,2043,1998,æ
1779266501.078181,2069,2062,æ
1779266501.078249,2084,2088,æ
1779266501.079673,2086,2071,æ
1779266501.0810392,2080,2058,æ
1779266501.0841112,2045,2187,æ
1779266501.107764,2045,2124,æ
1779266501.112483,1983,2032,æ
1779266501.113153,1932,1936,æ
1779266501.113255,2069,2081,æ
1779266501.113388,2083,2114,æ
1779266501.113471,2069,2054,æ
1779266501.113538,1988,1990,æ
1779266501.113601,2069,2091,æ
1779266501.113665,2156,2134,æ
1779266501.113774,1983,2074,æ
1779266501.113856,1987,1982,æ
1779266501.11393,2085,1989,æ
1779266501.1139982,2084,2060,æ
1779266501.114066,1977,2188,æ
1779266501.1141708,2048,2062,æ
1779266501.115424,2118,2004,æ
1779266501.124328,2054,2079,æ
1779266501.1290581,2030,2060,æ
1779266501.132929,1965,1979,æ
1779266501.1341598,1992,2006,æ
1779266501.136489,2180,2027,æ
1779266501.138915,2110,2163,æ
1779266501.139688,2015,2098,æ
1779266501.140181,1990,2098,æ
1779266501.140934,2065,2191,æ
1779266501.1413429,2047,2171,æ
1779266501.1419032,2015,2086,æ
1779266501.145209,2034,1940,æ
1779266501.145552,2034,2016,æ
1779266501.147016,1981,2123,æ
1779266501.14713,2080,2088,æ
1779266501.147213,2146,2053,æ
1779266501.150044,2105,2142,æ
1779266501.1514611,2037,2084,æ
1779266501.152843,2077,2079,æ
1779266501.164024,1859,1939,æ
1779266501.166729,1964,2030,æ
1779266501.1671119,2111,2089,æ
1779266501.170026,2100,2116,æ
1779266501.170402,1886,2114,æ
1779266501.1708128,1914,2178,æ
1779266501.1711628,2095,2202,æ
1779266501.175667,2078,2071,æ
1779266501.180338,2155,1992,æ
1779266501.180749,2246,1982,æ
1779266501.181196,2066,2128,æ
1779266501.181663,2093,2100,æ
1779266501.1820211,2105,2033,æ
1779266501.18273,2016,2035,æ
1779266501.187388,1937,2232,æ
1779266501.187495,2110,2123,æ
1779266501.187635,2083,1958,æ
1779266501.189706,1936,1993,æ
1779266501.1912808,2032,2083,æ
1779266501.2013829,2049,2114,æ
1779266501.2082298,2057,2123,æ
1779266501.209505,1991,2029,æ
1779266501.211964,2027,2105,æ
1779266501.214693,2081,2154,æ
1779266501.2150831,2012,2023,æ
1779266501.2153862,1993,1924,æ
1779266501.215782,2060,2041,æ
1779266501.2163079,2051,2157,æ
1779266501.217164,2075,2105,æ
1779266501.221968,2089,2098,æ
1779266501.222137,2074,2091,æ
1779266501.222218,2038,2164,æ
1779266501.222493,2017,2014,æ
1779266501.222592,2049,2003,æ
1779266501.2240992,2037,2011,æ
1779266501.225655,2052,2038,æ
1779266501.227181,2102,2056,æ
1779266501.2302861,2110,2033,æ
1779266501.239207,2047,2048,æ
1779266501.241971,2100,2081,æ
1779266501.24307,2056,2088,æ
1779266501.244364,2017,2041,æ
1779266501.247489,2027,2026,æ
1779266501.248062,2093,2094,æ
1779266501.2570019,2117,2142,æ
1779266501.262358,2045,2145,æ
1779266501.262521,2007,2054,æ
1779266501.2628238,2023,2127,æ
1779266501.2630022,1976,2190,æ
1779266501.2631161,1859,2111,æ
1779266501.263226,2038,1906,æ
1779266501.2634282,2199,1955,æ
1779266501.263542,2125,2044,æ
1779266501.2636118,2075,2176,æ
1779266501.263699,2054,2148,æ
1779266501.265087,2082,2051,æ
1779266501.292931,2124,2025,æ
1779266501.2932758,2071,2047,æ
1779266501.2934048,2024,1946,æ
1779266501.293544,2055,1948,æ
1779266501.2936141,2019,2034,æ
1779266501.293675,2006,2058,æ
1779266501.2937431,2028,2088,æ
1779266501.293812,2033,2142,æ
1779266501.293878,2074,2190,æ
1779266501.293949,2038,2127,æ
1779266501.2941482,2006,2028,æ
1779266501.294511,1997,1995,æ
1779266501.2945979,2044,2124,æ
1779266501.294673,2076,2039,æ
1779266501.294844,2033,2088,æ
1779266501.297556,2033,2020,æ
1779266501.299205,2052,2082,æ
1779266501.309987,2037,2080,æ
1779266501.317941,2064,2082,æ
1779266501.322301,2041,2055,æ
1779266501.326636,2119,2130,æ
1779266501.330594,2053,2185,æ
1779266501.3309162,2044,2131,æ
1779266501.335818,2013,2000,æ
1779266501.3363378,2059,2003,æ
1779266501.336436,2036,2079,æ
1779266501.3365178,2091,2000,æ
1779266501.3365939,2059,1900,æ
1779266501.336798,2049,1953,æ
1779266501.336874,2038,2092,æ
1779266501.3369431,2034,2214,æ
1779266501.3370082,2051,2127,æ
1779266501.3370738,2055,2059,æ
1779266501.337138,2103,2138,æ
1779266501.3372061,2063,2077,æ
1779266501.3372679,1944,1966,æ
1779266501.339036,2003,2002,æ
1779266501.356915,2064,2002,æ
1779266501.358767,2066,2006,æ
1779266501.361257,2044,2054,æ
1779266501.3656352,2051,2065,æ
1779266501.369896,2067,2153,æ
1779266501.370446,2030,2183,æ
1779266501.370531,2014,2083,æ
1779266501.370611,2027,1981,æ
1779266501.370686,2090,2089,æ
1779266501.3707619,2086,2089,æ
1779266501.370831,2072,2063,æ
1779266501.370892,2042,2037,æ
1779266501.370951,2049,2118,æ
1779266501.371024,2037,2195,æ
1779266501.3711848,2004,2039,æ
1779266501.371265,2022,1975,æ
1779266501.373951,2057,2085,æ
1779266501.375304,2062,2125,æ
1779266501.3780422,2053,2106,æ
1779266501.3800051,2051,2052,æ
1779266501.387491,2042,2028,æ
1779266501.3890429,2050,2128,æ
1779266501.39029,2046,2017,æ
1779266501.393881,2067,1964,æ
1779266501.394099,2057,1936,æ
1779266501.39451,2086,1982,æ
1779266501.394644,2067,1973,æ
1779266501.397883,2045,2061,æ
1779266501.399046,2049,2042,æ
1779266501.3994088,1991,2096,æ
1779266501.401942,2028,2112,æ
1779266501.410451,2291,2150,æ
1779266501.4120681,2092,2044,æ
1779266501.4130461,2010,2027,æ
1779266501.413315,1992,2082,æ
1779266501.413573,2187,2158,æ
1779266501.413651,2134,2032,æ
1779266501.430284,1994,2113,æ
1779266501.4338078,2008,2123,æ
1779266501.4371269,2072,2079,æ
1779266501.437525,2111,1964,æ
1779266501.4378738,1970,1940,æ
1779266501.4425669,2040,2059,æ
1779266501.444048,2119,2112,æ
1779266501.444151,2284,2034,æ
1779266501.444236,2078,2056,æ
1779266501.444312,1912,2138,æ
1779266501.4444292,2038,2041,æ
1779266501.444586,2125,2046,æ
1779266501.444782,1961,1992,æ
1779266501.44486,2096,2064,æ
1779266501.4449248,2039,2063,æ
1779266501.4449868,1962,2161,æ
1779266501.44777,2162,2082,æ
1779266501.449207,2216,2153,æ
1779266501.4519072,2034,2175,æ
1779266501.467625,2134,2023,æ
1779266501.4683251,2149,1940,æ
1779266501.4753091,2062,1937,æ
1779266501.4852061,2179,2093,æ
1779266501.486028,2031,2179,æ
1779266501.486308,1979,2037,æ
1779266501.486453,2122,2210,æ
1779266501.486548,2141,2086,æ
1779266501.486623,2026,2049,æ
1779266501.4866939,1971,2097,æ
1779266501.486781,1780,2188,æ
1779266501.486867,1719,2150,æ
1779266501.48694,3164,2251,æ
1779266501.487017,2269,2001,æ
1779266501.4870908,1784,1954,æ
1779266501.487165,2205,2169,æ
1779266501.487239,2234,2131,æ
1779266501.4873118,1932,1957,æ
1779266501.502943,2487,1852,æ
1779266501.50317,2357,2082,æ
1779266501.503684,1567,2163,æ
1779266501.506927,1807,2147,æ
1779266501.510325,2253,2052,æ
1779266501.517283,2214,2213,æ
1779266501.51858,2106,2222,æ
1779266501.5187352,1416,2096,æ
1779266501.5188758,1928,2038,æ
1779266501.5189571,3279,2132,æ
1779266501.5190248,2699,2142,æ
1779266501.51909,1728,2269,æ
1779266501.519155,1759,2102,æ
1779266501.5192199,2370,2046,æ
1779266501.519284,1958,2271,æ
1779266501.519344,2689,2294,æ
1779266501.5220852,2121,1933,æ
1779266501.523529,1733,2010,æ
1779266501.525005,1834,2110,æ
1779266501.534546,2001,2085,æ
1779266501.534942,1972,2070,æ
1779266501.537121,2011,2174,æ
1779266501.539268,2228,2230,æ
1779266501.5471628,2239,2170,æ
1779266501.5538251,1871,2089,æ
1779266501.554118,2104,2077,æ
1779266501.559405,2194,2214,æ
1779266501.5595021,1748,2157,æ
1779266501.559576,2252,2144,æ
1779266501.559645,2091,2059,æ
1779266501.55971,2124,2036,æ
1779266501.55993,1809,2220,æ
1779266501.560077,1474,2097,æ
1779266501.560158,2448,2002,æ
1779266501.5602229,2449,2152,æ
1779266501.56029,2023,2262,æ
1779266501.561884,2170,2305,æ
1779266501.5632792,1949,2275,æ
1779266501.59138,2035,2242,æ
1779266501.592961,2418,2319,æ
1779266501.59306,2102,2258,æ
1779266501.59314,1874,2159,æ
1779266501.593451,1891,2019,æ
1779266501.593547,2028,2128,æ
1779266501.593612,2123,2177,æ
1779266501.593769,2077,2205,æ
1779266501.593846,2163,2275,æ
1779266501.59391,2546,2322,æ
1779266501.593979,1603,2207,æ
1779266501.5941482,1708,2227,æ
1779266501.5943239,2140,2092,æ
1779266501.594493,2901,2327,æ
1779266501.594652,1976,2402,æ
1779266501.5962172,1970,2457,æ
1779266501.597611,1746,2439,æ
1779266501.599041,2106,2692,æ
1779266501.602536,2610,2600,æ
1779266501.6198888,2376,2474,æ
1779266501.624897,1908,2388,æ
1779266501.629198,1888,2721,æ
1779266501.635523,1922,2747,æ
1779266501.636302,2241,2707,æ
1779266501.636393,2821,2606,æ
1779266501.636506,2152,2609,æ
1779266501.636844,1996,2783,æ
1779266501.6369169,1719,2834,æ
1779266501.636981,1861,2956,æ
1779266501.637077,2102,2919,æ
1779266501.637355,1894,2907,æ
1779266501.637491,2879,3049,æ
1779266501.637562,1677,3458,æ
1779266501.637633,1903,3782,æ
1779266501.637696,2419,3675,æ
1779266501.637758,2512,3712,æ
1779266501.6378188,1905,3869,æ
1779266501.639161,2029,4095,æ
1779266501.651675,1899,4095,æ
1779266501.651982,2156,4095,æ
1779266501.655957,1527,4095,æ
1779266501.667684,2318,4095,æ
1779266501.6733189,2430,3953,æ
1779266501.673436,1826,3887,æ
1779266501.673653,2004,3923,æ
1779266501.6737301,2319,4031,æ
1779266501.673801,2155,4095,æ
1779266501.6740868,1905,4095,æ
1779266501.6741781,2185,4095,æ
1779266501.6746721,1930,4095,æ
1779266501.6748621,1979,4049,æ
1779266501.674947,1329,3993,æ
1779266501.6750138,2268,3984,æ
1779266501.675076,3554,4024,æ
1779266501.675136,1547,4077,æ
1779266501.675196,2726,3900,æ
1779266501.677883,2154,3893,æ
1779266501.6805198,1899,4095,æ
1779266501.690012,2067,4067,æ
1779266501.690185,2297,3990,æ
1779266501.694487,1943,3967,æ
1779266501.698347,2086,3994,æ
1779266501.70294,2074,3246,æ
1779266501.70336,2103,2373,æ
1779266501.7058592,2519,1769,æ
1779266501.7062778,2365,1659,æ
1779266501.710874,2332,1730,æ
1779266501.711467,2030,3249,æ
1779266501.712497,1835,2950,æ
1779266501.717835,2535,1984,æ
1779266501.7180648,2236,1146,æ
1779266501.718144,2255,1008,æ
1779266501.7182841,1870,1062,æ
1779266501.718375,1974,1509,æ
1779266501.7184482,2068,1635,æ
1779266501.718636,2463,911,æ
1779266501.718852,2046,1593,æ
1779266501.718953,1576,1393,æ
1779266501.7360032,1902,606,æ
1779266501.736616,1956,444,æ
1779266501.737043,1918,993,æ
1779266501.7410402,1485,977,æ
1779266501.742176,2249,488,æ
1779266501.7452312,2817,259,æ
1779266501.756015,2105,903,æ
1779266501.756576,2119,691,æ
1779266501.7566679,2017,0,æ
1779266501.756812,1805,163,æ
1779266501.756916,1980,779,æ
1779266501.756982,1397,925,æ
1779266501.7571342,2582,599,æ
1779266501.75724,2426,30,æ
1779266501.75732,1329,389,æ
1779266501.757523,1244,248,æ
1779266501.7576058,2564,0,æ
1779266501.7577112,2687,0,æ
1779266501.757876,1636,458,æ
1779266501.759243,1991,724,æ
1779266501.7619321,1454,598,æ
1779266501.7635899,1910,200,æ
1779266501.765014,2318,2,æ
1779266501.775307,1871,403,æ
1779266501.780736,1774,118,æ
1779266501.784072,2110,0,æ
1779266501.787756,2196,209,æ
1779266501.78815,2335,524,æ
1779266501.792984,2071,537,æ
1779266501.793441,2117,287,æ
1779266501.794376,1963,0,æ
1779266501.799708,2193,401,æ
1779266501.800603,1923,62,æ
1779266501.80085,2115,0,æ
1779266501.8010828,2301,54,æ
1779266501.801152,1934,348,æ
1779266501.8012228,2034,429,æ
1779266501.801606,2024,289,æ
1779266501.8016908,2257,29,æ
1779266501.801905,2262,0,æ
1779266501.802041,1891,189,æ
1779266501.803349,1633,0,æ
1779266501.8217669,2427,0,æ
1779266501.841826,3123,167,æ
1779266501.842069,1947,307,æ
1779266501.842156,2126,277,æ
1779266501.842226,2259,116,æ
1779266501.8422909,2311,137,æ
1779266501.842795,2211,811,æ
1779266501.842954,2093,362,æ
1779266501.8430269,1996,64,æ
1779266501.8435469,2262,117,æ
1779266501.8440168,2349,343,æ
1779266501.844251,1727,386,æ
1779266501.844596,2030,209,æ
1779266501.845205,3001,284,æ
1779266501.859873,2295,719,æ
1779266501.867123,1994,553,æ
1779266501.873259,2271,385,æ
1779266501.893549,1634,201,æ
1779266501.904187,2076,461,æ
1779266501.91051,2486,452,æ
1779266501.9168751,1743,589,æ
1779266501.917278,2479,623,æ
1779266501.917405,2478,866,æ
1779266501.918551,2105,908,æ
1779266501.9205928,2509,509,æ
1779266501.924117,2390,797,æ
1779266501.925767,1734,714,æ
1779266501.925855,2217,869,æ
1779266501.959543,2262,1099,æ
1779266501.960334,1861,1085,æ
1779266501.960452,2280,1499,æ
1779266501.960638,2093,1296,æ
1779266501.960952,1987,1323,æ
1779266501.961025,1959,1185,æ
1779266501.961171,2083,1140,æ
1779266501.961401,2604,1406,æ
1779266501.961602,2486,1327,æ
1779266501.9616792,2390,1074,æ
1779266501.963573,1575,1655,æ
1779266501.970946,1578,1708,æ
1779266501.984683,2465,1381,æ
1779266501.99008,2359,1322,æ
1779266501.991067,2041,1489,æ
1779266501.9969869,2053,1729,æ
1779266501.997438,1397,1785,æ
1779266501.997659,3158,1675,æ
1779266501.997736,2484,1641,æ
1779266501.998345,2139,1634,æ
1779266501.9984992,2062,1723,æ
1779266501.9985878,1664,1665,æ
1779266501.998664,2621,1488,æ
1779266501.998771,2273,1846,æ
1779266501.9989681,1774,1700,æ
1779266501.999261,2343,1876,æ
1779266501.9993548,1971,1793,æ
1779266501.99947,2371,1820,æ
1779266501.999729,2052,1685,æ
1779266501.999994,2104,1616,æ
1779266502.0000708,2053,1718,æ
1779266502.0001438,2169,1684,æ
1779266502.000321,2282,1980,æ
1779266502.000416,1965,1969,æ
1779266502.000511,1836,1761,æ
1779266502.000611,1744,1939,æ
1779266502.000694,2576,1794,æ
1779266502.000768,2261,1660,æ
1779266502.000837,2132,1379,æ
1779266502.000947,2156,1535,æ
1779266502.001051,1526,2163,æ
1779266502.00116,1803,1925,æ
1779266502.0012329,3055,2071,æ
1779266502.001428,1763,1671,æ
1779266502.001696,2178,2034,æ
1779266502.001965,2177,2113,æ
1779266502.002242,1842,1873,æ
1779266502.002323,2155,1817,æ
1779266502.002561,2208,1896,æ
1779266502.002795,2332,2170,æ
1779266502.002867,1996,2132,æ
1779266502.0029309,1948,1687,æ
1779266502.003027,2236,1998,æ
1779266502.003159,2084,1998,æ
1779266502.003276,1398,2029,æ
1779266502.0033548,1780,1847,æ
1779266502.0038679,2877,1800,æ
1779266502.003941,2817,1815,æ
1779266502.004004,1907,2042,æ
1779266502.004064,1820,1955,æ
1779266502.004124,2444,1858,æ
1779266502.004245,2185,2229,æ
1779266502.004568,2065,1492,æ
1779266502.004759,2044,1559,æ
1779266502.0048509,1850,2047,æ
1779266502.0049212,1694,1960,æ
1779266502.004988,2361,2106,æ
1779266502.0051122,2462,2132,æ
1779266502.0052228,1809,1796,æ
1779266502.005439,1996,2192,æ
1779266502.006191,2473,1953,æ
1779266502.023967,2351,1790,æ
1779266502.039247,2249,1949,æ
1779266502.039371,2325,1577,æ
1779266502.039443,2250,1811,æ
1779266502.0395079,1760,2036,æ
1779266502.039569,2216,1810,æ
1779266502.0397382,2433,1870,æ
1779266502.040021,2123,1749,æ
1779266502.040094,2058,1996,æ
1779266502.0401862,2067,1489,æ
1779266502.040336,2255,1614,æ
1779266502.040607,2121,1852,æ
1779266502.040917,2115,1747,æ
1779266502.040992,2243,1685,æ
1779266502.041204,2204,1645,æ
1779266502.041279,2091,1635,æ
1779266502.0417411,2088,1566,æ
1779266502.041879,2391,1627,æ
1779266502.048667,2068,1689,æ
1779266502.0650408,1824,1665,æ
1779266502.070216,2491,1858,æ
1779266502.070338,2222,1751,æ
1779266502.070413,2139,1677,æ
1779266502.071151,2337,1657,æ
1779266502.0712802,2047,1575,æ
1779266502.071357,2312,1545,æ
1779266502.0714219,2005,1729,æ
1779266502.0715032,2150,1705,æ
1779266502.0715919,2296,1918,æ
1779266502.071664,1788,1653,æ
1779266502.0718029,1932,1452,æ
1779266502.071868,1906,1503,æ
1779266502.071933,2529,1500,æ
1779266502.072122,1959,1515,æ
1779266502.072195,1398,1656,æ
1779266502.073557,2208,1301,æ
1779266502.075018,2510,1621,æ
1779266502.090095,2024,1628,æ
1779266502.0947561,2027,1643,æ
1779266502.1025028,1738,1383,æ
1779266502.1072278,3332,1355,æ
1779266502.1075,2220,1732,æ
1779266502.107682,700,1866,æ
1779266502.107788,1617,1684,æ
1779266502.107858,2786,1701,æ
1779266502.107923,2634,1716,æ
1779266502.10802,1953,1833,æ
1779266502.108319,1687,1808,æ
1779266502.10862,1940,1841,æ
1779266502.108753,1947,1718,æ
1779266502.1088278,1982,1673,æ
1779266502.108937,2394,1523,æ
1779266502.109065,2160,1759,æ
1779266502.1091409,1977,1695,æ
1779266502.118261,1929,1881,æ
1779266502.127897,1915,1810,æ
1779266502.128428,1744,1849,æ
1779266502.1345448,2213,1561,æ
1779266502.135096,2922,1575,æ
1779266502.135228,1607,1877,æ
1779266502.140409,1786,1595,æ
1779266502.1405282,2193,1900,æ
1779266502.1406069,2231,1839,æ
1779266502.140712,2064,1839,æ
1779266502.140788,1776,1788,æ
1779266502.140887,2421,1841,æ
1779266502.140967,2061,1732,æ
1779266502.1410902,1871,1797,æ
1779266502.141155,2068,1838,æ
1779266502.141221,1868,1852,æ
1779266502.1438851,2563,1757,æ
1779266502.145671,2181,1725,æ
1779266502.147109,1916,1792,æ
1779266502.1643121,2136,1814,æ
1779266502.1780019,1749,1985,æ
1779266502.178816,1949,1576,æ
1779266502.1789498,2061,1916,æ
1779266502.17966,2151,2119,æ
1779266502.1802251,2030,1857,æ
1779266502.180434,2016,1865,æ
1779266502.180539,1974,1878,æ
1779266502.1806579,2060,1983,æ
1779266502.181906,2020,1959,æ
1779266502.189604,2041,1961,æ
1779266502.1919832,1871,1942,æ
1779266502.20721,1841,1938,æ
1779266502.212151,2626,2062,æ
1779266502.212254,2210,1888,æ
1779266502.212331,1800,2026,æ
1779266502.2124329,2050,1990,æ
1779266502.212584,2144,2023,æ
1779266502.212786,1922,1949,æ
1779266502.212908,2006,2005,æ
1779266502.213093,1998,2047,æ
1779266502.213278,2071,2018,æ
1779266502.213373,2110,1873,æ
1779266502.213449,1895,2302,æ
1779266502.213621,2163,1991,æ
1779266502.2137978,2052,1962,æ
1779266502.2138932,2097,1894,æ
1779266502.213971,1784,1983,æ
1779266502.214049,1808,2103,æ
1779266502.214128,2124,1952,æ
1779266502.214206,2749,2084,æ
1779266502.2142751,1833,2308,æ
1779266502.2143428,1337,2170,æ
1779266502.2155662,1605,2112,æ
1779266502.216987,1400,2067,æ
1779266502.21986,4061,2072,æ
1779266502.239626,2168,2136,æ
1779266502.2508428,1616,2089,æ
1779266502.251107,1921,2084,æ
1779266502.25123,2033,1947,æ
1779266502.2514079,2030,2119,æ
1779266502.2515352,2310,2367,æ
1779266502.251661,2032,2220,æ
1779266502.251812,1812,1912,æ
1779266502.251926,1756,2109,æ
1779266502.252005,1829,2239,æ
1779266502.2520719,1930,2109,æ
1779266502.2522528,2184,1965,æ
1779266502.252346,2179,1867,æ
1779266502.2524118,1994,2018,æ
1779266502.252474,2105,2042,æ
1779266502.252691,2130,2032,æ
1779266502.252776,1826,2021,æ
1779266502.2817862,1883,2041,æ
1779266502.282336,2103,2148,æ
1779266502.282607,2064,2163,æ
1779266502.282743,2097,2153,æ
1779266502.2829351,2024,1967,æ
1779266502.2830322,1959,2269,æ
1779266502.283265,2018,2055,æ
1779266502.283405,2036,2025,æ
1779266502.2836459,1951,2075,æ
1779266502.284139,1988,2120,æ
1779266502.284214,2073,2238,æ
1779266502.284354,2055,2263,æ
1779266502.284608,1914,1923,æ
1779266502.2848792,1978,2061,æ
1779266502.2852218,2139,2276,æ
1779266502.285303,2024,2382,æ
1779266502.286808,1828,2365,æ
1779266502.289226,1946,2002,æ
1779266502.298917,2180,2226,æ
1779266502.300034,2200,2148,æ
1779266502.300301,2066,2246,æ
1779266502.301496,1896,2291,æ
1779266502.305377,2009,2117,æ
1779266502.305729,2087,2121,æ
1779266502.308248,1988,2143,æ
1779266502.3094559,2013,2047,æ
1779266502.319286,2028,2155,æ
1779266502.319705,1945,2232,æ
1779266502.320513,1967,2168,æ
1779266502.3209212,2106,2227,æ
1779266502.321218,2139,2236,æ
1779266502.324904,1995,2201,æ
1779266502.326398,2022,2101,æ
1779266502.326543,1994,2203,æ
1779266502.326841,1987,2475,æ
1779266502.327004,2009,2293,æ
1779266502.327127,2006,2326,æ
1779266502.330039,1938,2155,æ
1779266502.33856,2061,2288,æ
1779266502.349429,2138,2267,æ
1779266502.361637,1995,2245,æ
1779266502.3617449,2039,2047,æ
1779266502.36182,2103,2464,æ
1779266502.361996,2017,2159,æ
1779266502.3620899,1971,2138,æ
1779266502.3621628,2074,2244,æ
1779266502.362339,2069,2390,æ
1779266502.362557,2089,2382,æ
1779266502.3627782,2034,2358,æ
1779266502.362998,2012,2257,æ
1779266502.363082,2099,2359,æ
1779266502.36325,2123,2385,æ
1779266502.363335,2110,2412,æ
1779266502.363403,2080,2420,æ
1779266502.363471,2048,2294,æ
1779266502.364842,2106,2749,æ
1779266502.367641,2062,1970,æ
1779266502.3689442,2040,2635,æ
1779266502.38043,1938,2336,æ
1779266502.388919,2054,2439,æ
1779266502.3990662,2090,2515,æ
1779266502.404469,2054,2522,æ
1779266502.404897,2053,2532,æ
1779266502.404989,2037,2640,æ
1779266502.405087,2018,2654,æ
1779266502.405151,2008,2658,æ
1779266502.405249,2088,2547,æ
1779266502.4053252,2131,2396,æ
1779266502.405392,2066,2449,æ
1779266502.405458,2065,2436,æ
1779266502.4055219,2122,2360,æ
1779266502.4055848,2044,2722,æ
1779266502.405646,2068,2699,æ
1779266502.405709,2086,2374,æ
1779266502.4058611,2026,2481,æ
1779266502.405956,2045,2639,æ
1779266502.4083042,2067,2463,æ
1779266502.425762,2059,2608,æ
1779266502.440081,2048,2743,æ
1779266502.440289,2111,2684,æ
1779266502.440477,2101,2673,æ
1779266502.4406242,2086,2386,æ
1779266502.440783,2027,2646,æ
1779266502.440968,2007,2620,æ
1779266502.441129,2063,2566,æ
1779266502.441341,2113,2285,æ
1779266502.441416,2085,2585,æ
1779266502.441509,2065,2589,æ
1779266502.4416718,2072,2725,æ
1779266502.4419389,2160,1857,æ
1779266502.4420218,2049,2355,æ
1779266502.442087,2009,2459,æ
1779266502.442237,2052,2444,æ
1779266502.4423292,2186,2598,æ
1779266502.443747,2097,2440,æ
1779266502.445281,2073,2379,æ
1779266502.446762,2011,2287,æ
1779266502.49001,2104,2308,æ
1779266502.490289,2145,2345,æ
1779266502.4903748,1944,2299,æ
1779266502.490447,1944,2348,æ
1779266502.490517,2179,2353,æ
1779266502.490587,2223,2108,æ
1779266502.490655,1983,2249,æ
1779266502.490724,2053,2052,æ
1779266502.491013,2120,2080,æ
1779266502.491104,2086,2196,æ
1779266502.498152,2025,2196,æ
1779266502.4983401,2005,2215,æ
1779266502.4985988,2073,2279,æ
1779266502.49873,2145,2232,æ
1779266502.498983,2124,2243,æ
1779266502.49905,1909,2168,æ
1779266502.499111,1961,2227,æ
1779266502.499171,1987,2175,æ
1779266502.500431,1848,2014,æ
1779266502.500593,2025,2219,æ
1779266502.500702,2098,1735,æ
1779266502.50077,2053,2137,æ
1779266502.500832,2219,2158,æ
1779266502.500892,2045,2111,æ
1779266502.500983,1992,2039,æ
1779266502.502849,2194,1960,æ
1779266502.502982,2154,1874,æ
1779266502.503049,2057,1871,æ
1779266502.536289,2122,2007,æ
1779266502.536393,2033,2056,æ
1779266502.536469,1889,2044,æ
1779266502.539735,2034,1937,æ
1779266502.570915,2149,2019,æ
1779266502.571025,2092,1940,æ
1779266502.571156,1987,1921,æ
1779266502.5712278,1958,1912,æ
1779266502.571295,2007,2431,æ
1779266502.5713558,1992,2667,æ
1779266502.571417,2015,2338,æ
1779266502.5714781,2220,2144,æ
1779266502.571538,1953,2089,æ
1779266502.5716019,1830,2187,æ
1779266502.572155,1996,1904,æ
1779266502.572238,1825,2188,æ
1779266502.5723011,1746,2251,æ
1779266502.572364,2524,1926,æ
1779266502.572427,2649,2101,æ
1779266502.5724878,1883,2080,æ
1779266502.572605,2048,2218,æ
1779266502.572719,2028,2261,æ
1779266502.573015,1979,2166,æ
1779266502.573111,2154,2289,æ
1779266502.573256,2113,2657,æ
1779266502.5733461,1826,2590,æ
1779266502.5734131,1850,2391,æ
1779266502.57357,1943,2183,æ
1779266502.573985,1937,2739,æ
1779266502.574115,1881,2360,æ
1779266502.5743518,1977,2144,æ
1779266502.574446,1945,2028,æ
1779266502.574521,2263,1736,æ
1779266502.5746791,2081,1916,æ
1779266502.574807,1819,2036,æ
1779266502.575177,1922,1952,æ
1779266502.576892,2049,1489,æ
1779266502.5801861,2129,1635,æ
1779266502.600427,2226,2085,æ
1779266502.6077518,2013,1799,æ
1779266502.613318,1896,1722,æ
1779266502.613499,1771,1790,æ
1779266502.613597,1913,1793,æ
1779266502.6136692,1883,1845,æ
1779266502.6137369,1830,1816,æ
1779266502.613995,1785,1857,æ
1779266502.614078,1918,2261,æ
1779266502.614145,2000,2016,æ
1779266502.614209,1979,1974,æ
1779266502.614274,1903,1982,æ
1779266502.614341,1961,2022,æ
1779266502.6144052,1937,2033,æ
1779266502.614469,1931,1933,æ
1779266502.614573,1914,1760,æ
1779266502.6152341,1907,1922,æ
1779266502.615493,1967,1907,æ
1779266502.636686,1916,1702,æ
1779266502.6432462,1903,1786,æ
1779266502.64874,1926,1962,æ
1779266502.648886,2008,2147,æ
1779266502.648972,2068,2075,æ
1779266502.6490371,1940,1960,æ
1779266502.649098,1920,1827,æ
1779266502.64916,1983,1870,æ
1779266502.64922,2037,1886,æ
1779266502.6492832,1966,1881,æ
1779266502.649344,1905,2071,æ
1779266502.649413,1890,2311,æ
1779266502.649513,2025,2173,æ
1779266502.649673,2221,2081,æ
1779266502.6497412,2074,2044,æ
1779266502.649808,2036,2093,æ
1779266502.649871,1993,2045,æ
1779266502.651277,1917,1914,æ
1779266502.652776,1961,1838,æ
1779266502.655766,1854,2034,æ
1779266502.6573708,1694,2067,æ
1779266502.672859,1950,2006,æ
1779266502.674017,2266,1940,æ
1779266502.693318,1904,1970,æ
1779266502.6934242,2212,2014,æ
1779266502.693503,2319,1952,æ
1779266502.6936462,1831,1946,æ
1779266502.693723,1763,1994,æ
1779266502.693795,2001,2080,æ
1779266502.693869,2000,2047,æ
1779266502.694027,1764,1947,æ
1779266502.69412,1710,1981,æ
1779266502.704363,1973,1974,æ
1779266502.709308,1935,1841,æ
1779266502.7101371,1968,1855,æ
1779266502.726857,2014,1819,æ
1779266502.7272608,1977,1883,æ
1779266502.727687,2057,1998,æ
1779266502.727871,2189,1976,æ
1779266502.727998,1964,1896,æ
1779266502.728256,1869,1895,æ
1779266502.728468,2018,1635,æ
1779266502.728696,2142,1697,æ
1779266502.728839,1898,1793,æ
1779266502.728999,1951,2004,æ
1779266502.729249,2254,1914,æ
1779266502.729419,2048,1925,æ
1779266502.729513,1633,1877,æ
1779266502.729588,1733,1871,æ
1779266502.729719,2215,1734,æ
1779266502.7298172,2122,1774,æ
1779266502.729886,1953,1836,æ
1779266502.729953,1872,1893,æ
1779266502.730059,1982,1837,æ
1779266502.730159,2073,1719,æ
1779266502.73029,2037,1670,æ
1779266502.7303739,1939,1768,æ
1779266502.731869,1884,1689,æ
1779266502.733706,1868,1615,æ
1779266502.73546,1817,1659,æ
1779266502.744805,1830,1839,æ
1779266502.749704,1904,1833,æ
1779266502.753761,1996,1669,æ
1779266502.757979,1958,1649,æ
1779266502.764225,1897,1695,æ
1779266502.765266,1863,1792,æ
1779266502.7700522,1858,1748,æ
1779266502.770159,1833,1764,æ
1779266502.770237,1864,1880,æ
1779266502.7703738,1910,1988,æ
1779266502.770657,1927,1862,æ
1779266502.7707589,1987,1858,æ
1779266502.7708359,1973,1735,æ
1779266502.7709088,1910,1813,æ
1779266502.7709801,1906,1791,æ
1779266502.771051,1996,1754,æ
1779266502.771123,1941,1829,æ
1779266502.77124,1965,1940,æ
1779266502.772768,2087,1938,æ
1779266502.8000572,1989,1869,æ
1779266502.800973,1867,1817,æ
1779266502.8054929,1914,1861,æ
1779266502.805589,2073,1846,æ
1779266502.805665,2010,1859,æ
1779266502.8057358,1876,1837,æ
1779266502.805961,1782,1958,æ
1779266502.8060548,1995,1914,æ
1779266502.8061252,2101,1862,æ
1779266502.8062441,2089,1814,æ
1779266502.8064551,1932,1744,æ
1779266502.806606,1965,1813,æ
1779266502.806804,1909,1712,æ
1779266502.806886,1950,1829,æ
1779266502.807067,2070,2006,æ
1779266502.807179,2187,1999,æ
1779266502.8073459,1920,1716,æ
1779266502.808741,1904,1848,æ
1779266502.811407,2030,1788,æ
1779266502.8126779,2063,1876,æ
1779266502.825294,1958,1845,æ
1779266502.829942,1917,1730,æ
1779266502.837217,1966,1728,æ
1779266502.837713,1981,2007,æ
1779266502.837965,2037,1964,æ
1779266502.843966,2015,1832,æ
1779266502.844743,1999,1788,æ
1779266502.845137,1968,1809,æ
1779266502.85043,2040,1898,æ
1779266502.8507252,2038,1883,æ
1779266502.850833,2012,1775,æ
1779266502.850923,1943,1840,æ
1779266502.851,2023,1943,æ
1779266502.8511438,2049,1883,æ
1779266502.851315,1961,1806,æ
1779266502.851399,1982,1790,æ
1779266502.8514712,2018,1750,æ
1779266502.851605,2034,1648,æ
1779266502.8516722,1964,1667,æ
1779266502.853079,1913,1831,æ
1779266502.871438,1919,1999,æ
1779266502.881108,1988,1913,æ
1779266502.882576,2035,1773,æ
1779266502.888572,2005,1841,æ
1779266502.888688,1991,1904,æ
1779266502.888764,2004,1938,æ
1779266502.88883,1973,1947,æ
1779266502.8888938,1927,2076,æ
1779266502.8889668,1887,2159,æ
1779266502.889031,1962,2201,æ
1779266502.8890991,1954,2094,æ
1779266502.889164,1934,2072,æ
1779266502.88923,1934,2120,æ
1779266502.889302,2022,2121,æ
1779266502.889371,1989,2110,æ
1779266502.889434,1934,2163,æ
1779266502.889504,1922,2260,æ
1779266502.889569,1986,2223,æ
1779266502.891253,2004,2128,æ
1779266502.8929431,2008,2078,æ
1779266502.8958,1996,2089,æ
1779266502.906146,1983,2103,æ
1779266502.908631,1997,2077,æ
1779266502.925344,1960,2148,æ
1779266502.925973,1959,2187,æ
1779266502.9264882,2032,2228,æ
1779266502.926964,2057,2216,æ
1779266502.92769,2018,2173,æ
1779266502.927945,2019,2059,æ
1779266502.932673,1932,2018,æ
1779266502.9329212,2082,2131,æ
1779266502.9330099,2084,2168,æ
1779266502.933077,1863,2178,æ
1779266502.9331388,1955,2179,æ
1779266502.9332008,2227,2167,æ
1779266502.933263,1888,2213,æ
1779266502.933326,1772,2112,æ
1779266502.933387,2170,2150,æ
1779266502.9334478,2264,1965,æ
1779266502.9335098,2054,1988,æ
1779266502.934813,1763,2256,æ
1779266502.9367738,1958,2247,æ
1779266502.945749,2204,2117,æ
1779266502.9480152,2135,2139,æ
1779266502.959539,1938,2122,æ
1779266502.9600399,2021,2079,æ
1779266502.960455,2013,2106,æ
1779266502.966248,1951,2005,æ
1779266502.9670038,2111,1957,æ
1779266502.967798,2004,2108,æ
1779266502.9681852,2029,2195,æ
1779266502.971761,2065,2057,æ
1779266502.973249,2038,1977,æ
1779266502.973398,2075,1972,æ
1779266502.973483,2029,2145,æ
1779266502.9735649,1960,2063,æ
1779266502.9736419,1907,2026,æ
1779266502.973716,1908,2165,æ
1779266502.9737768,2026,2347,æ
1779266502.973841,2031,2265,æ
1779266502.975225,1967,2130,æ
1779266502.976695,2045,2074,æ
1779266502.9793768,2012,2098,æ
1779266502.9807749,2037,2160,æ
1779266502.994647,2026,2095,æ
1779266502.999478,2002,2092,æ
1779266502.999815,1995,2216,æ
1779266503.000138,1978,2268,æ
1779266503.000583,2004,2175,æ
1779266503.003726,2025,2119,æ
1779266503.013207,2008,2150,æ
1779266503.014165,2021,2207,æ
1779266503.014477,2053,2125,æ
1779266503.01498,2054,2115,æ
1779266503.0157802,2033,2217,æ
1779266503.0162408,1923,2259,æ
1779266503.016553,2022,2185,æ
1779266503.016937,2043,2102,æ
1779266503.022045,1987,2088,æ
1779266503.022173,1989,2076,æ
1779266503.022254,1991,2086,æ
1779266503.02233,1978,2034,æ
1779266503.0224152,2042,2056,æ
1779266503.022493,2016,2177,æ
1779266503.022641,2055,2187,æ
1779266503.025414,2057,2035,æ
1779266503.0333161,2033,2042,æ
1779266503.036024,2041,2133,æ
1779266503.037847,2053,2057,æ
1779266503.041766,2053,1887,æ
1779266503.042012,2004,1962,æ
1779266503.042227,1968,2187,æ
1779266503.04256,2040,2256,æ
1779266503.0450938,2077,2094,æ
1779266503.045463,2039,1909,æ
1779266503.049721,1989,1987,æ
1779266503.0557508,1961,2082,æ
1779266503.056683,2038,2069,æ
1779266503.057255,2089,2118,æ
1779266503.057815,1976,2227,æ
1779266503.062569,1943,2286,æ
1779266503.062751,2053,2146,æ
1779266503.063166,2096,2048,æ
1779266503.063482,2047,2150,æ
1779266503.0636091,1976,2259,æ
1779266503.064984,1960,2198,æ
1779266503.067876,2145,2053,æ
1779266503.069386,2008,2072,æ
1779266503.0707939,1839,2178,æ
1779266503.091889,2081,2190,æ
1779266503.095909,2248,2184,æ
1779266503.09632,2159,2090,æ
1779266503.10173,2052,1983,æ
1779266503.106644,2032,2108,æ
1779266503.1074162,2047,2058,æ
1779266503.107583,1974,2093,æ
1779266503.107717,1971,2239,æ
1779266503.107878,2062,2297,æ
1779266503.10795,2129,2174,æ
1779266503.108023,1776,1995,æ
1779266503.108088,2073,2039,æ
1779266503.108151,2230,2073,æ
1779266503.108216,1853,2057,æ
1779266503.108279,2003,2069,æ
1779266503.1083431,1896,2221,æ
1779266503.108453,2067,2367,æ
1779266503.108551,2060,2226,æ
1779266503.108633,2073,2035,æ
1779266503.134637,2312,2105,æ
1779266503.139792,2111,2188,æ
1779266503.140337,1970,2276,æ
1779266503.1404622,2006,2200,æ
1779266503.1407309,2090,2183,æ
1779266503.1408498,2258,2379,æ
1779266503.140935,2250,2257,æ
1779266503.14104,1782,2206,æ
1779266503.141144,2005,2127,æ
1779266503.141282,1874,2209,æ
1779266503.1414342,1975,2261,æ
1779266503.1415098,2105,2186,æ
1779266503.1416051,2022,2186,æ
1779266503.141681,2020,2295,æ
1779266503.1417758,2029,2319,æ
1779266503.141855,2017,2234,æ
1779266503.143332,2041,2185,æ
1779266503.1449971,2011,2227,æ
1779266503.147867,2023,2314,æ
1779266503.149531,2013,2241,æ
1779266503.167851,2092,2149,æ
1779266503.1772459,2047,2180,æ
1779266503.1832168,2040,2280,æ
1779266503.1833742,2052,2224,æ
1779266503.183507,2019,2176,æ
1779266503.18379,1985,2122,æ
1779266503.184016,2008,2231,æ
1779266503.184139,2143,2197,æ
1779266503.184336,2081,2139,æ
1779266503.184617,2009,2252,æ
1779266503.184712,1980,2371,æ
1779266503.184992,2078,2315,æ
1779266503.185071,2055,2246,æ
1779266503.185251,1983,2156,æ
1779266503.185319,2011,2205,æ
1779266503.185528,2129,2245,æ
1779266503.18562,2094,2176,æ
1779266503.1857622,2039,2174,æ
1779266503.187397,2051,2265,æ
1779266503.196955,2074,2282,æ
1779266503.2029362,2022,2246,æ
1779266503.20339,2054,2131,æ
1779266503.2083561,2028,2141,æ
1779266503.216855,2034,2144,æ
1779266503.2175019,2043,2104,æ
1779266503.2220988,1943,2091,æ
1779266503.2238002,1911,2184,æ
1779266503.2239811,2105,2253,æ
1779266503.224174,2125,2172,æ
1779266503.2243042,2090,2082,æ
1779266503.224378,2034,2117,æ
1779266503.2245052,2015,2105,æ
1779266503.224687,2005,2048,æ
1779266503.22478,1973,1999,æ
1779266503.224882,1957,2060,æ
1779266503.2249799,2162,2210,æ
1779266503.225089,2130,2210,æ
1779266503.225195,2008,2177,æ
1779266503.226641,2094,2107,æ
1779266503.22931,2134,2013,æ
1779266503.2306628,2139,2072,æ
1779266503.240866,2093,2150,æ
1779266503.243975,2047,2075,æ
1779266503.248414,2032,2129,æ
1779266503.248904,2058,2172,æ
1779266503.249227,2011,2117,æ
1779266503.2540538,2009,2048,æ
1779266503.257312,2041,2066,æ
1779266503.262363,2055,2131,æ
1779266503.263757,2070,2084,æ
1779266503.267613,2043,2077,æ
1779266503.269304,1992,2128,æ
1779266503.269581,2023,2144,æ
1779266503.2696981,2064,2105,æ
1779266503.2698839,2040,2042,æ
1779266503.269956,2018,2043,æ
1779266503.27002,1997,2079,æ
1779266503.2700832,2081,2079,æ
1779266503.270145,2111,2032,æ
1779266503.2702599,2030,2125,æ
1779266503.271689,2010,2274,æ
1779266503.273491,2029,2206,æ
1779266503.288225,2041,2113,æ
1779266503.291709,2017,2016,æ
1779266503.295219,2151,2077,æ
1779266503.301179,2158,2109,æ
1779266503.301722,2033,2001,æ
1779266503.3025541,1981,2054,æ
1779266503.307307,1992,2246,æ
1779266503.307482,2017,2206,æ
1779266503.307706,2075,2098,æ
1779266503.3079228,2038,2090,æ
1779266503.308056,2053,2101,æ
1779266503.308269,1996,2102,æ
1779266503.3084748,2083,2018,æ
1779266503.3085701,2041,2039,æ
1779266503.30865,2300,2199,æ
1779266503.308782,1996,2265,æ
1779266503.3088682,1915,2133,æ
1779266503.3089721,2280,2059,æ
1779266503.311629,2312,2064,æ
1779266503.3130748,1994,2097,æ
1779266503.3145752,1764,2161,æ
1779266503.325896,1817,2067,æ
1779266503.331588,1613,2123,æ
1779266503.332022,2275,2106,æ
1779266503.3327858,2889,2138,æ
1779266503.3393521,1953,2141,æ
1779266503.350049,1505,1988,æ
1779266503.35045,2321,1949,æ
1779266503.351698,2870,2208,æ
1779266503.353088,1756,2113,æ
1779266503.35318,1946,2086,æ
1779266503.3532538,1695,2211,æ
1779266503.353445,1468,2010,æ
1779266503.354124,3730,1965,æ
1779266503.36303,1921,2249,æ
1779266503.370937,892,2061,æ
1779266503.3844612,2030,1978,æ
1779266503.3864498,2101,2000,æ
1779266503.3866298,2297,1981,æ
1779266503.387155,2912,2046,æ
1779266503.3873138,2045,2310,æ
1779266503.387444,1430,2216,æ
1779266503.387528,1996,2021,æ
1779266503.3876019,2144,2071,æ
1779266503.38775,2104,2105,æ
1779266503.387968,2103,1997,æ
1779266503.388222,2441,1934,æ
1779266503.388632,2248,2055,æ
1779266503.388766,1890,2260,æ
1779266503.388851,1884,2284,æ
1779266503.388919,2083,2007,æ
1779266503.389125,2095,1938,æ
1779266503.389196,2450,1977,æ
1779266503.389262,1757,2141,æ
1779266503.389378,1529,1995,æ
1779266503.389452,2755,2132,æ
1779266503.389515,2126,2232,æ
1779266503.389581,1946,2224,æ
1779266503.390903,2243,2052,æ
1779266503.3928409,2040,1955,æ
1779266503.403031,2306,2016,æ
1779266503.409258,2347,2086,æ
1779266503.416543,2333,2056,æ
1779266503.422137,1888,2131,æ
1779266503.427686,1624,2197,æ
1779266503.4279208,2260,2200,æ
1779266503.428017,2268,2120,æ
1779266503.4280949,2158,2099,æ
1779266503.428166,2231,2180,æ
1779266503.428319,2172,2245,æ
1779266503.428483,2220,2135,æ
1779266503.428642,2238,2074,æ
1779266503.428811,2268,2140,æ
1779266503.428979,2255,2245,æ
1779266503.4290628,2185,2220,æ
1779266503.429131,2243,2099,æ
1779266503.429198,2278,2097,æ
1779266503.4292638,2251,2086,æ
1779266503.430992,2201,2112,æ
1779266503.444544,1826,2003,æ
1779266503.4553652,2711,2033,æ
1779266503.456652,2724,2215,æ
1779266503.461437,1501,2243,æ
1779266503.461604,2566,2061,æ
1779266503.461694,2719,2158,æ
1779266503.461772,1662,2182,æ
1779266503.461896,2031,2237,æ
1779266503.461965,2301,2142,æ
1779266503.462029,2113,2144,æ
1779266503.4621801,1947,2311,æ
1779266503.4624152,1894,2409,æ
1779266503.4627252,2140,2246,æ
1779266503.463122,2157,2264,æ
1779266503.463201,1720,2356,æ
1779266503.4633758,2039,2395,æ
1779266503.4648461,2377,2413,æ
1779266503.4676712,2318,2278,æ
1779266503.469059,3065,2398,æ
1779266503.471015,2249,2421,æ
1779266503.4934459,1349,2663,æ
1779266503.494512,1473,2454,æ
1779266503.4985511,2374,2263,æ
1779266503.498661,2388,2404,æ
1779266503.49873,2159,2755,æ
1779266503.498794,1854,2730,æ
1779266503.4990091,1864,2654,æ
1779266503.499085,1791,2567,æ
1779266503.499153,1845,2618,æ
1779266503.4992151,2208,2637,æ
1779266503.499348,2366,2454,æ
1779266503.499417,3183,2533,æ
1779266503.49948,1876,2628,æ
1779266503.499545,2178,2609,æ
1779266503.501278,1900,2774,æ
1779266503.5218828,2008,2809,æ
1779266503.526165,2194,2851,æ
1779266503.526669,2476,2738,æ
1779266503.5268989,2261,2615,æ
1779266503.527055,2193,2594,æ
1779266503.5273001,1762,2958,æ
1779266503.527463,1496,2970,æ
1779266503.527595,2070,2742,æ
1779266503.5276659,2304,2767,æ
1779266503.527731,2162,3076,æ
1779266503.5277922,2130,2922,æ
1779266503.527853,1942,2902,æ
1779266503.527916,2206,3313,æ
1779266503.529526,2351,3600,æ
1779266503.530955,2339,3872,æ
1779266503.533704,2992,4027,æ
1779266503.542009,1872,4046,æ
1779266503.557117,1534,4095,æ
1779266503.5614212,2883,4095,æ
1779266503.561515,3006,4095,æ
1779266503.5616481,1874,3781,æ
1779266503.5618718,1640,3851,æ
1779266503.562001,2402,3986,æ
1779266503.5620759,2181,4002,æ
1779266503.5621388,2384,4049,æ
1779266503.562418,3320,4095,æ
1779266503.562481,1608,4095,æ
1779266503.562541,2059,4088,æ
1779266503.5626,1986,4095,æ
1779266503.562935,2214,3985,æ
1779266503.563222,2423,4039,æ
1779266503.564898,1904,4029,æ
1779266503.587219,2506,4035,æ
1779266503.592603,2241,4062,æ
1779266503.5930738,1942,4074,æ
1779266503.593179,2157,3233,æ
1779266503.593259,2270,3323,æ
1779266503.593339,2325,3602,æ
1779266503.593457,2186,3645,æ
1779266503.593536,2068,3887,æ
1779266503.593606,2411,3800,æ
1779266503.593674,1745,3706,æ
1779266503.5937438,2026,3624,æ
1779266503.5938072,2454,3132,æ
1779266503.5938702,2366,3123,æ
1779266503.593932,2174,3054,æ
1779266503.595347,2701,3047,æ
1779266503.596819,1468,3217,æ
1779266503.599518,1932,3272,æ
1779266503.608027,3135,3255,æ
1779266503.609344,1659,3075,æ
1779266503.6144261,1078,2384,æ
1779266503.626946,1846,2297,æ
1779266503.63164,2419,2662,æ
1779266503.6320388,2216,2245,æ
1779266503.632138,2025,2361,æ
1779266503.632211,2078,2691,æ
1779266503.632333,2050,2317,æ
1779266503.6324759,1897,1877,æ
1779266503.63254,2251,1556,æ
1779266503.632604,2450,1606,æ
1779266503.6326668,1930,1800,æ
1779266503.63273,2096,1636,æ
1779266503.6327941,2055,1644,æ
1779266503.632855,2106,1752,æ
1779266503.6329181,2056,1669,æ
1779266503.6345,2058,1497,æ
1779266503.659916,2348,1363,æ
1779266503.6650891,2248,1492,æ
1779266503.665183,1937,1443,æ
1779266503.66525,2361,1358,æ
1779266503.665313,2381,1203,æ
1779266503.6653812,1952,1312,æ
1779266503.665448,1701,1375,æ
1779266503.665511,2648,1103,æ
1779266503.665656,2843,839,æ
1779266503.66572,1890,1184,æ
1779266503.6657841,1138,1087,æ
1779266503.665846,1603,1414,æ
1779266503.665907,3414,654,æ
1779266503.6660979,2656,916,æ
1779266503.666206,1410,1328,æ
1779266503.668163,1570,1117,æ
1779266503.6695738,1971,1005,æ
1779266503.67109,2589,666,æ
1779266503.67253,2512,790,æ
1779266503.692343,2066,1100,æ
1779266503.698569,1603,1348,æ
1779266503.702572,1796,1008,æ
1779266503.7035189,2642,561,æ
1779266503.704009,2351,690,æ
1779266503.704093,1844,740,æ
1779266503.704163,2134,476,æ
1779266503.7042282,1822,486,æ
1779266503.704305,2106,665,æ
1779266503.704368,2083,820,æ
1779266503.704431,2649,661,æ
1779266503.704488,2163,649,æ
1779266503.7045481,2024,1010,æ
1779266503.704604,1845,953,æ
1779266503.704659,2368,763,æ
1779266503.704714,2756,810,æ
1779266503.708062,2105,1040,æ
1779266503.7168279,2274,1310,æ
1779266503.723934,2458,1342,æ
1779266503.725796,2307,1153,æ
1779266503.733431,1921,1114,æ
1779266503.734058,2166,1126,æ
1779266503.7342982,2481,889,æ
1779266503.734724,1966,622,æ
1779266503.7352698,3211,1415,æ
1779266503.740125,1797,1195,æ
1779266503.740698,1765,1627,æ
1779266503.740802,2523,778,æ
1779266503.740875,1772,1427,æ
1779266503.7409449,2175,1131,æ
1779266503.741014,3093,1097,æ
1779266503.741087,1875,1308,æ
1779266503.741151,1619,1319,æ
1779266503.741209,2497,1121,æ
1779266503.7426078,2524,1287,æ
1779266503.7451231,2211,1052,æ
1779266503.7465348,2179,1037,æ
1779266503.757118,1956,1064,æ
1779266503.7582378,2154,1144,æ
1779266503.7585359,2042,1174,æ
1779266503.75869,1576,1265,æ
1779266503.759726,2252,1327,æ
1779266503.7617002,2551,1431,æ
1779266503.764679,2625,1670,æ
1779266503.768095,2056,870,æ
1779266503.7715058,2392,1361,æ
1779266503.771841,2105,1240,æ
1779266503.776962,1681,799,æ
1779266503.7776,2190,943,æ
1779266503.7779279,2916,1009,æ
1779266503.7783082,2103,1471,æ
1779266503.778929,1402,1199,æ
1779266503.779247,1873,1391,æ
1779266503.78383,2032,1502,æ
1779266503.78403,2776,1162,æ
1779266503.785492,2504,1180,æ
1779266503.7873762,1771,1103,æ
1779266503.7950778,1958,1304,æ
1779266503.798499,2198,1259,æ
1779266503.798787,2442,1204,æ
1779266503.801655,2066,1578,æ
1779266503.8020349,1685,1491,æ
1779266503.8025012,2390,1115,æ
1779266503.805577,2174,1209,æ
1779266503.807085,2319,1239,æ
1779266503.809588,2211,1538,æ
1779266503.816013,2205,1521,æ
1779266503.8211992,1956,1379,æ
1779266503.821811,2643,1258,æ
1779266503.821898,2114,1840,æ
1779266503.82197,1957,1167,æ
1779266503.822033,2169,1400,æ
1779266503.8220952,2804,1310,æ
1779266503.822156,2591,1350,æ
1779266503.823561,1834,1789,æ
1779266503.825003,2084,1675,æ
1779266503.826429,2266,1282,æ
1779266503.8290298,2396,1631,æ
1779266503.830775,2208,1698,æ
1779266503.8392289,2003,1434,æ
1779266503.847755,2446,1533,æ
1779266503.8492641,1913,1661,æ
1779266503.8522618,2248,1442,æ
1779266503.8583272,2232,1508,æ
1779266503.85917,2084,1671,æ
1779266503.859612,2253,1653,æ
1779266503.8643,2114,1714,æ
1779266503.8644621,2418,1650,æ
1779266503.8646002,2186,1470,æ
1779266503.8646662,1371,1746,æ
1779266503.8647301,1464,1958,æ
1779266503.8647912,2791,1858,æ
1779266503.864852,2731,1849,æ
1779266503.86501,2067,1832,æ
1779266503.865088,1871,1730,æ
1779266503.865153,1906,1690,æ
1779266503.866567,2271,1843,æ
1779266503.8875258,2217,1348,æ
1779266503.893983,1892,1864,æ
1779266503.8992782,2440,1955,æ
1779266503.899382,2141,2104,æ
1779266503.899456,1599,1866,æ
1779266503.899526,1666,1881,æ
1779266503.899681,2531,1774,æ
1779266503.899755,2386,1921,æ
1779266503.9000452,1751,1541,æ
1779266503.900209,2343,1797,æ
1779266503.9002812,2085,1847,æ
1779266503.9004722,2052,1776,æ
1779266503.900672,2066,1755,æ
1779266503.900788,2099,1812,æ
1779266503.9008598,2079,1934,æ
1779266503.9009259,1810,1771,æ
1779266503.9009888,2259,1785,æ
1779266503.9026291,2367,1739,æ
1779266503.905504,1768,1957,æ
1779266503.906983,1995,2097,æ
1779266503.908575,2027,1706,æ
1779266503.923944,2192,1661,æ
1779266503.931128,2156,1813,æ
1779266503.938234,1712,1634,æ
1779266503.9386659,2815,1686,æ
1779266503.943108,1894,1803,æ
1779266503.944892,2034,1788,æ
1779266503.9450061,1839,1742,æ
1779266503.945151,2049,1798,æ
1779266503.945334,2111,1791,æ
1779266503.945471,2202,1854,æ
1779266503.945704,2141,1746,æ
1779266503.945782,1846,1700,æ
1779266503.945869,1866,1638,æ
1779266503.946034,2071,1616,æ
1779266503.9461,2056,1767,æ
1779266503.9463549,2124,1772,æ
1779266503.9464262,2231,1891,æ
1779266503.9464881,2049,1930,æ
1779266503.9466171,2144,1916,æ
1779266503.962667,1994,1816,æ
1779266503.9633029,2373,1802,æ
1779266503.963611,1956,2025,æ
1779266503.9767182,2114,1652,æ
1779266503.982583,1890,1890,æ
1779266503.982904,2051,1676,æ
1779266503.9836411,1847,1825,æ
1779266503.983779,2115,1889,æ
1779266503.9838562,1927,1915,æ
1779266503.983923,1985,1728,æ
1779266503.983985,1964,1726,æ
1779266503.984045,1889,1975,æ
1779266503.984107,2739,1899,æ
1779266503.984281,2445,1880,æ
1779266503.9843469,1911,1907,æ
1779266503.984407,1901,1807,æ
1779266503.984601,2736,1711,æ
1779266503.984705,1944,2080,æ
1779266503.9847722,1113,1715,æ
1779266503.986378,2175,2009,æ
1779266503.989223,1608,2013,æ
1779266503.990657,2121,2215,æ
1779266503.9924648,2366,1626,æ
1779266504.007133,2693,1954,æ
1779266504.019169,1436,1916,æ
1779266504.0233011,2276,1919,æ
1779266504.024405,2460,1518,æ
1779266504.025072,2056,1894,æ
1779266504.025153,2088,1905,æ
1779266504.025223,1951,2058,æ
1779266504.025322,1908,1923,æ
1779266504.025524,1964,1881,æ
1779266504.025665,1928,1945,æ
1779266504.025731,2067,1982,æ
1779266504.025792,2376,1809,æ
1779266504.0259001,2202,1870,æ
1779266504.02598,1988,1988,æ
1779266504.026051,1977,1869,æ
1779266504.026121,2431,1826,æ
1779266504.0274749,2088,1924,æ
1779266504.036814,1907,1821,æ
1779266504.037251,1865,1735,æ
1779266504.0390542,2686,2078,æ
1779266504.042163,2071,1993,æ
1779266504.042485,1906,2171,æ
1779266504.045619,2025,1842,æ
1779266504.0491362,2025,2052,æ
1779266504.0495942,2046,2003,æ
1779266504.055615,2080,1878,æ
1779266504.056086,1868,2024,æ
1779266504.0565162,1911,1927,æ
1779266504.057216,1937,1957,æ
1779266504.057423,2095,1884,æ
1779266504.057699,2811,2139,æ
1779266504.062015,1837,2083,æ
1779266504.062708,1936,1843,æ
1779266504.062796,2080,1965,æ
1779266504.06287,2317,1767,æ
1779266504.064317,2002,1994,æ
1779266504.066998,1796,2001,æ
1779266504.0685382,1810,1947,æ
1779266504.084448,1825,2043,æ
1779266504.095975,2118,1997,æ
1779266504.096583,2252,2170,æ
1779266504.097256,1739,1917,æ
1779266504.097764,1490,2104,æ
1779266504.098481,1556,1933,æ
1779266504.1018062,3042,1918,æ
1779266504.103431,2216,1827,æ
1779266504.103895,2324,2038,æ
1779266504.103984,1320,2184,æ
1779266504.104055,1943,1910,æ
1779266504.104178,2332,1921,æ
1779266504.1042922,1828,2139,æ
1779266504.104372,2048,2150,æ
1779266504.104495,1681,2040,æ
1779266504.104578,1856,2001,æ
1779266504.10465,1558,2129,æ
1779266504.1047192,1597,2109,æ
1779266504.107275,3194,1994,æ
1779266504.1139588,1927,2153,æ
1779266504.115108,1718,2026,æ
1779266504.118772,2287,2035,æ
1779266504.121814,2281,1978,æ
1779266504.122137,1497,1892,æ
1779266504.1249568,2076,2171,æ
1779266504.12697,1955,2171,æ
1779266504.135663,1878,2025,æ
1779266504.1366038,1991,1929,æ
1779266504.1373582,2100,2182,æ
1779266504.138159,2226,1980,æ
1779266504.138484,2052,1994,æ
1779266504.139275,2070,1943,æ
1779266504.143074,2135,1943,æ
1779266504.143292,1997,2172,æ
1779266504.144392,1933,2109,æ
1779266504.145094,1912,2005,æ
1779266504.1452448,2044,2107,æ
1779266504.14547,2004,2087,æ
1779266504.146837,1888,2224,æ
1779266504.149621,2014,2091,æ
1779266504.1511822,2051,2063,æ
1779266504.1535091,2217,2178,æ
1779266504.16711,2199,2148,æ
1779266504.182816,1902,2006,æ
1779266504.1890361,1969,2030,æ
1779266504.1891332,1889,2018,æ
1779266504.1892,1922,2062,æ
1779266504.189263,1996,2047,æ
1779266504.189323,1973,2127,æ
1779266504.189385,1740,2097,æ
1779266504.189446,2090,2096,æ
1779266504.189523,2083,2005,æ
1779266504.189583,2247,2174,æ
1779266504.189643,1754,1897,æ
1779266504.189703,1839,2197,æ
1779266504.189814,2115,2085,æ
1779266504.189892,2218,2061,æ
1779266504.189983,2003,1949,æ
1779266504.190055,1880,2137,æ
1779266504.190281,1680,2185,æ
1779266504.190434,2011,2106,æ
1779266504.201683,2414,2135,æ
1779266504.2176902,1926,1957,æ
1779266504.2229881,1955,2132,æ
1779266504.223737,2100,2089,æ
1779266504.224755,2050,2151,æ
1779266504.224867,1918,2075,æ
1779266504.2253351,1658,2153,æ
1779266504.225735,2124,2262,æ
1779266504.226039,1810,2212,æ
1779266504.226326,1903,2028,æ
1779266504.226401,2115,2041,æ
1779266504.2266,2049,2308,æ
1779266504.22693,1933,2564,æ
1779266504.227166,2116,2310,æ
1779266504.22738,2019,2225,æ
1779266504.2320168,2019,2165,æ
1779266504.232657,1964,2234,æ
1779266504.233273,1925,2189,æ
1779266504.234018,1927,2374,æ
1779266504.248608,2021,2387,æ
1779266504.2492511,2007,2240,æ
1779266504.2693398,1974,2139,æ
1779266504.269459,1944,2539,æ
1779266504.269533,1960,2471,æ
1779266504.269598,1925,2583,æ
1779266504.269686,2007,2454,æ
1779266504.269757,2043,2337,æ
1779266504.269822,2123,2514,æ
1779266504.2698839,2091,2401,æ
1779266504.2699468,2003,2392,æ
1779266504.27001,2010,2480,æ
1779266504.270077,2086,2507,æ
1779266504.2702348,2104,2459,æ
1779266504.270438,2084,2554,æ
1779266504.27054,1983,2624,æ
1779266504.270603,2024,2603,æ
1779266504.270669,2058,2595,æ
1779266504.270731,2021,2466,æ
1779266504.2709372,1938,2484,æ
1779266504.271017,1969,2538,æ
1779266504.303217,2040,2346,æ
1779266504.309077,2040,2408,æ
1779266504.31081,2052,2555,æ
1779266504.3115578,2004,2407,æ
1779266504.31176,2002,2432,æ
1779266504.313967,1900,2394,æ
1779266504.3141298,2028,2453,æ
1779266504.314386,2015,2622,æ
1779266504.3149009,2039,2534,æ
1779266504.315178,2114,2383,æ
1779266504.31532,2187,2325,æ
1779266504.315447,2136,2422,æ
1779266504.315569,2081,2454,æ
1779266504.315716,2142,2285,æ
1779266504.317067,2042,2335,æ
1779266504.317226,1956,2313,æ
1779266504.317457,1967,2503,æ
1779266504.317607,2113,2525,æ
1779266504.317703,2080,2167,æ
1779266504.317777,2116,2082,æ
1779266504.317852,2091,2261,æ
1779266504.317922,1925,2262,æ
1779266504.3180218,2046,2264,æ
1779266504.319852,2135,2089,æ
1779266504.343877,2203,2136,æ
1779266504.356255,1952,2266,æ
1779266504.357195,2024,2154,æ
1779266504.3575099,2037,2192,æ
1779266504.357687,1998,2113,æ
1779266504.357805,2080,1964,æ
1779266504.358001,2026,2066,æ
1779266504.358179,1970,2222,æ
1779266504.358326,1837,2216,æ
1779266504.358447,1793,2128,æ
1779266504.358577,2134,2093,æ
1779266504.358658,2217,2174,æ
1779266504.358848,1932,2131,æ
1779266504.358928,2017,2113,æ
1779266504.359036,2075,2087,æ
1779266504.359149,2058,2159,æ
1779266504.359221,2047,2226,æ
1779266504.359426,2007,2253,æ
1779266504.359515,2144,2189,æ
1779266504.359592,2105,2068,æ
1779266504.395422,1901,2223,æ
1779266504.3958,1958,2202,æ
1779266504.397103,1934,2278,æ
1779266504.39736,1877,2244,æ
1779266504.3975182,1865,2252,æ
1779266504.397732,1903,2225,æ
1779266504.39781,2008,2281,æ
1779266504.397921,1917,2251,æ
1779266504.3983,2003,2294,æ
1779266504.3983831,2024,2408,æ
1779266504.3984482,2009,2434,æ
1779266504.39851,1904,2330,æ
1779266504.398572,1765,2177,æ
1779266504.398635,2059,2077,æ
1779266504.398699,2330,2190,æ
1779266504.398765,2209,2378,æ
1779266504.398827,2239,2436,æ
1779266504.399005,1861,2101,æ
1779266504.399149,1960,2194,æ
1779266504.39922,2344,2299,æ
1779266504.401021,2199,2390,æ
1779266504.402478,1993,2388,æ
1779266504.425272,2176,2291,æ
1779266504.435361,1787,2316,æ
1779266504.441204,1787,2376,æ
1779266504.44138,1954,2498,æ
1779266504.441452,2127,2362,æ
1779266504.441719,1842,2472,æ
1779266504.4418108,1597,2359,æ
1779266504.442044,1375,2543,æ
1779266504.442183,2217,2546,æ
1779266504.442566,2422,2659,æ
1779266504.442637,2045,2439,æ
1779266504.442701,1875,2151,æ
1779266504.442762,1951,2247,æ
1779266504.442825,2177,2706,æ
1779266504.442889,2295,2662,æ
1779266504.4432662,2119,2432,æ
1779266504.443398,1887,2321,æ
1779266504.443466,2021,2561,æ
1779266504.4436018,2031,2634,æ
1779266504.44369,1938,2643,æ
1779266504.4531782,1876,2493,æ
1779266504.453444,1967,2481,æ
1779266504.471751,2245,2403,æ
1779266504.4731982,1995,2484,æ
1779266504.4780521,1899,2403,æ
1779266504.4781718,1979,2450,æ
1779266504.478595,2002,2472,æ
1779266504.478761,1967,2353,æ
1779266504.478845,1958,2557,æ
1779266504.479456,1949,2371,æ
1779266504.479809,1891,2414,æ
1779266504.479945,1944,2516,æ
1779266504.480021,2157,2644,æ
1779266504.480151,2044,2610,æ
1779266504.480383,2005,2525,æ
1779266504.480588,2110,2539,æ
1779266504.480756,1998,2529,æ
1779266504.481051,1887,2641,æ
1779266504.482008,2065,2580,æ
1779266504.48441,1863,2627,æ
1779266504.485009,2017,2613,æ
1779266504.486418,2020,2451,æ
1779266504.49953,1918,2554,æ
1779266504.5025148,1998,2528,æ
1779266504.502677,2067,2704,æ
1779266504.507009,2064,2638,æ
1779266504.5072808,2101,2553,æ
1779266504.510512,2035,2534,æ
1779266504.5171041,2073,2404,æ
1779266504.51774,1955,2502,æ
1779266504.518249,1966,2686,æ
1779266504.518594,2011,2900,æ
1779266504.5190148,2049,2499,æ
1779266504.519243,2077,2609,æ
1779266504.5231512,1977,2876,æ
1779266504.524819,1923,2780,æ
1779266504.524937,1896,2619,æ
1779266504.525012,1981,2794,æ
1779266504.5250812,1697,3017,æ
1779266504.525142,1794,2917,æ
1779266504.52526,2349,2727,æ
1779266504.526647,2048,2721,æ
1779266504.535902,1899,2600,æ
1779266504.538084,1902,2585,æ
1779266504.5391319,2016,2707,æ
1779266504.540304,2203,2564,æ
1779266504.54384,2022,2694,æ
1779266504.5443358,2015,2400,æ
1779266504.551121,1767,2576,æ
1779266504.5518541,2165,2525,æ
1779266504.558109,2240,2396,æ
1779266504.55842,1770,2457,æ
1779266504.5586932,1847,2335,æ
1779266504.5590138,2182,2349,æ
1779266504.559406,2132,2379,æ
1779266504.559673,1730,2297,æ
1779266504.559923,1962,2290,æ
1779266504.5603058,2164,2190,æ
1779266504.560808,1807,2292,æ
1779266504.5645812,1996,2273,æ
1779266504.565631,2095,2125,æ
1779266504.567085,2064,2088,æ
1779266504.568445,2052,1966,æ
1779266504.571201,2082,2061,æ
1779266504.57263,1845,2078,æ
1779266504.582722,1761,2044,æ
1779266504.5839932,1706,2033,æ
1779266504.588995,2148,1913,æ
1779266504.5964968,1807,1855,æ
1779266504.646355,2094,2065,æ
1779266504.668331,1915,1868,æ
1779266504.69853,2163,1850,æ
1779266504.6986518,1843,1951,æ
1779266504.698733,1636,1924,æ
1779266504.698806,2251,1893,æ
1779266504.6988769,2206,1819,æ
1779266504.698945,2052,1744,æ
1779266504.6990132,1872,1635,æ
1779266504.69915,1816,1633,æ
1779266504.699243,1922,1735,æ
1779266504.6993449,2101,1882,æ
1779266504.699413,2126,1789,æ
1779266504.699483,2040,1809,æ
1779266504.699553,1935,1728,æ
1779266504.699617,1889,1645,æ
1779266504.699681,1841,1740,æ
1779266504.699744,1918,1918,æ
1779266504.69981,2181,1972,æ
1779266504.699873,1887,1953,æ
1779266504.699937,1721,2006,æ
1779266504.700078,2170,1998,æ
1779266504.700184,1981,1839,æ
1779266504.700263,1881,1819,æ
1779266504.700326,1837,1774,æ
1779266504.7003882,1796,1736,æ
1779266504.700448,1938,1797,æ
1779266504.7005062,1849,1904,æ
1779266504.700565,1826,2040,æ
1779266504.700623,1792,1960,æ
1779266504.700683,1862,1804,æ
1779266504.700742,1881,1999,æ
1779266504.700802,1833,2031,æ
1779266504.700861,2030,1721,æ
1779266504.7009192,1901,1668,æ
1779266504.7009768,1766,1772,æ
1779266504.701034,1886,1967,æ
1779266504.7010932,1957,1743,æ
1779266504.701153,1703,1732,æ
1779266504.701217,1740,1696,æ
1779266504.701488,2040,1754,æ
1779266504.702152,1956,1556,æ
1779266504.711123,1676,1500,æ
1779266504.713297,2046,1644,æ
1779266504.716803,1813,1833,æ
1779266504.7197819,2128,1843,æ
1779266504.7240078,2088,1766,æ
1779266504.7338738,1984,1761,æ
1779266504.735133,1945,1854,æ
1779266504.735539,1945,1838,æ
1779266504.735631,1873,1731,æ
1779266504.7357051,1855,1751,æ
1779266504.735775,1877,1894,æ
1779266504.7358441,1987,1962,æ
1779266504.735913,2011,1872,æ
1779266504.73598,1938,1834,æ
1779266504.7360482,1894,1830,æ
1779266504.736237,1904,1802,æ
1779266504.7363389,1881,1730,æ
1779266504.7364101,1844,1790,æ
1779266504.736554,1873,1915,æ
1779266504.736639,1922,1943,æ
1779266504.736726,1985,1856,æ
1779266504.736795,1973,1696,æ
1779266504.7368588,1941,1675,æ
1779266504.7369258,1923,1651,æ
1779266504.73699,1992,1573,æ
1779266504.737082,1943,1517,æ
1779266504.737205,1797,1684,æ
1779266504.73738,1961,1786,æ
1779266504.73748,2101,1725,æ
1779266504.7375512,2003,1648,æ
1779266504.7376142,1968,1658,æ
1779266504.737756,1949,1724,æ
1779266504.737824,2045,1709,æ
1779266504.73789,1986,1548,æ
1779266504.7379541,1969,1640,æ
1779266504.738019,1926,1870,æ
1779266504.739419,1980,1826,æ
1779266504.7408051,1982,1763,æ
1779266504.742528,1940,1725,æ
1779266504.746397,1946,1687,æ
1779266504.75365,1994,1638,æ
1779266504.754712,2009,1561,æ
1779266504.755787,1965,1573,æ
1779266504.764928,1940,1712,æ
1779266504.765124,1998,1863,æ
1779266504.7685618,2019,1797,æ
1779266504.780062,2008,1749,æ
1779266504.7808058,2064,1730,æ
1779266504.780896,2028,1832,æ
1779266504.780967,2031,1832,æ
1779266504.781046,2048,1829,æ
1779266504.781117,2014,1885,æ
1779266504.781232,1965,2043,æ
1779266504.781418,2011,1841,æ
1779266504.781496,1942,1880,æ
1779266504.7815628,1688,1740,æ
1779266504.7816262,1882,1697,æ
1779266504.781688,2329,1720,æ
1779266504.7830431,2036,1619,æ
1779266504.784489,2098,1665,æ
1779266504.793036,1965,1861,æ
1779266504.79834,1908,1848,æ
1779266504.8019788,2094,1770,æ
1779266504.805583,1965,1661,æ
1779266504.812243,1852,1648,æ
1779266504.817324,2193,1681,æ
1779266504.81789,2007,1587,æ
1779266504.817971,1930,1587,æ
1779266504.818232,2126,1938,æ
1779266504.8183098,2075,2084,æ
1779266504.818411,2060,1922,æ
1779266504.818617,2028,1713,æ
1779266504.8187919,1878,1877,æ
1779266504.819325,2133,1950,æ
1779266504.819396,2082,1792,æ
1779266504.819461,1886,1699,æ
1779266504.8195221,1877,1915,æ
1779266504.820895,1916,1996,æ
1779266504.822239,2011,1849,æ
1779266504.8250911,2034,1725,æ
1779266504.8325021,2067,1729,æ
1779266504.8354402,2064,1915,æ
1779266504.83655,2014,1806,æ
1779266504.8368058,1839,1826,æ
1779266504.841259,1834,1960,æ
1779266504.846178,1956,2085,æ
1779266504.910683,2060,2021,æ
1779266504.910978,2065,1818,æ
1779266504.911071,2109,1788,æ
1779266504.911225,2014,1878,æ
1779266504.911438,1995,1878,æ
1779266504.911525,1973,1859,æ
1779266504.911597,1916,1943,æ
1779266504.911663,1925,2029,æ
1779266504.911793,1873,2051,æ
1779266504.91187,1975,1985,æ
1779266504.9120069,2101,1848,æ
1779266504.9121878,2298,1889,æ
1779266504.912283,1992,1987,æ
1779266504.9123561,1981,1811,æ
1779266504.912427,2022,1822,æ
1779266504.9125,2030,2045,æ
1779266504.912571,2043,2158,æ
1779266504.912746,2036,2047,æ
1779266504.9128242,2008,1925,æ
1779266504.912915,1983,1933,æ
1779266504.9129841,1981,1924,æ
1779266504.913048,2071,1867,æ
1779266504.913111,1990,1783,æ
1779266504.913263,1973,1884,æ
1779266504.913325,1999,2107,æ
1779266504.9135418,2084,2042,æ
1779266504.91362,2087,1870,æ
1779266504.913684,1984,1844,æ
1779266504.9137468,1834,1984,æ
1779266504.913845,2014,1947,æ
1779266504.913909,2042,1800,æ
1779266504.913971,2033,1876,æ
1779266504.9140701,1837,2100,æ
1779266504.9142349,1878,2174,æ
1779266504.914324,2157,1976,æ
1779266504.914391,2053,1829,æ
1779266504.914455,1879,1862,æ
1779266504.914521,2095,1952,æ
1779266504.914624,2091,1862,æ
1779266504.917334,2002,1924,æ
1779266504.92015,2023,2114,æ
1779266504.920249,2093,2206,æ
1779266504.958963,2136,2098,æ
1779266504.959935,2101,1914,æ
1779266504.960376,2080,1831,æ
1779266504.960468,1894,1956,æ
1779266504.960545,1959,2074,æ
1779266504.960741,1857,1973,æ
1779266504.9608388,2305,2009,æ
1779266504.961028,1849,2217,æ
1779266504.9614458,2067,2130,æ
1779266504.9615219,2036,2005,æ
1779266504.961592,1957,2056,æ
1779266504.961767,2054,2050,æ
1779266504.961847,2142,1995,æ
1779266504.961914,2038,1968,æ
1779266504.961983,2000,2080,æ
1779266504.962276,2004,2259,æ
1779266504.9623868,2049,2262,æ
1779266504.962486,2041,2179,æ
1779266504.962635,2018,2078,æ
1779266504.9627368,2021,2154,æ
1779266504.962841,2078,2158,æ
1779266504.9642649,2052,2013,æ
1779266504.967267,2025,2041,æ
1779266504.968748,1997,2234,æ
1779266504.970272,2016,2323,æ
1779266504.9736378,2048,2104,æ
1779266504.975117,2061,2017,æ
1779266504.976531,2031,2041,æ
1779266504.9894311,2071,2141,æ
1779266504.993095,2025,2062,æ
1779266504.9972632,2011,2047,æ
1779266505.0052989,1954,2153,æ
1779266505.005833,2020,2185,æ
1779266505.006618,2078,2202,æ
1779266505.011274,2055,2038,æ
1779266505.011392,2025,1987,æ
1779266505.011474,2000,2086,æ
1779266505.0115461,2109,2122,æ
1779266505.0116742,2018,2010,æ
1779266505.011752,1939,2042,æ
1779266505.011816,2017,2243,æ
1779266505.01188,2147,2332,æ
1779266505.013,2091,2050,æ
1779266505.013588,2030,1994,æ
1779266505.013799,2020,2085,æ
1779266505.0141351,1997,2139,æ
1779266505.0224168,2082,1870,æ
1779266505.03278,2056,1949,æ
1779266505.0417302,1943,2163,æ
1779266505.0418298,1985,2332,æ
1779266505.0419,2059,2233,æ
1779266505.041964,2043,2077,æ
1779266505.0421288,1984,1987,æ
1779266505.04731,2084,2146,æ
1779266505.04747,2078,2139,æ
1779266505.04761,2070,2041,æ
1779266505.047762,1989,2177,æ
1779266505.047842,1983,2322,æ
1779266505.04791,2078,2240,æ
1779266505.047976,2151,2086,æ
1779266505.048222,1984,2091,æ
1779266505.0483918,1931,2166,æ
1779266505.048463,2011,2110,æ
1779266505.048528,2068,1949,æ
1779266505.051254,2075,2044,æ
1779266505.052723,1991,2249,æ
1779266505.0559108,1988,2286,æ
1779266505.0723908,2084,2066,æ
1779266505.072651,2053,1973,æ
1779266505.072775,2032,2051,æ
1779266505.077138,2039,2100,æ
1779266505.0923588,2036,1961,æ
1779266505.093157,2004,2081,æ
1779266505.093338,1998,2247,æ
1779266505.093466,2025,2341,æ
1779266505.093547,2092,2131,æ
1779266505.09362,2010,2051,æ
1779266505.0936902,1944,2040,æ
1779266505.093759,1977,2114,æ
1779266505.0939012,2073,1975,æ
1779266505.093995,2128,2023,æ
1779266505.094275,1971,2154,æ
1779266505.094351,1988,2345,æ
1779266505.094422,2112,2220,æ
1779266505.094492,2031,2029,æ
1779266505.094636,2071,2010,æ
1779266505.094722,2146,2096,æ
1779266505.1225998,1919,2067,æ
1779266505.133492,1927,2015,æ
1779266505.1336231,2005,2027,æ
1779266505.133764,1985,2207,æ
1779266505.133835,2163,2204,æ
1779266505.133924,2069,2087,æ
1779266505.134099,1855,1985,æ
1779266505.134242,2151,2048,æ
1779266505.134311,2173,2105,æ
1779266505.134376,2112,2138,æ
1779266505.134437,2128,2077,æ
1779266505.1346781,1919,2267,æ
1779266505.134781,1743,2309,æ
1779266505.1348858,2283,2137,æ
1779266505.1349618,2166,2047,æ
1779266505.1350322,1951,2118,æ
1779266505.135266,2049,2062,æ
1779266505.135438,2109,1822,æ
1779266505.135537,1961,1891,æ
1779266505.135612,2062,2098,æ
1779266505.137213,2142,2309,æ
1779266505.138777,2119,2165,æ
1779266505.140895,2094,2004,æ
1779266505.142376,2032,1950,æ
1779266505.1668968,1939,2123,æ
1779266505.186947,2000,2193,æ
1779266505.2141702,2041,1930,æ
1779266505.214283,2007,2019,æ
1779266505.214459,2006,2245,æ
1779266505.214587,2076,2214,æ
1779266505.214668,2024,2065,æ
1779266505.214803,1979,2006,æ
1779266505.215001,2077,2055,æ
1779266505.215107,2086,2084,æ
1779266505.215185,2110,1975,æ
1779266505.215255,2018,1959,æ
1779266505.215322,1960,2188,æ
1779266505.215389,2039,2356,æ
1779266505.215465,2068,2119,æ
1779266505.215588,2072,1988,æ
1779266505.215849,2044,2029,æ
1779266505.2159302,2035,2138,æ
1779266505.2159948,2089,1967,æ
1779266505.2163122,2014,2000,æ
1779266505.216396,2005,2163,æ
1779266505.2165601,2014,2318,æ
1779266505.216645,2079,2160,æ
1779266505.2171452,2066,2045,æ
1779266505.2172291,2032,1988,æ
1779266505.217654,2002,2071,æ
1779266505.21782,2028,2025,æ
1779266505.217933,1998,1943,æ
1779266505.218334,2005,2016,æ
1779266505.218724,2064,2193,æ
1779266505.218869,2056,2241,æ
1779266505.219212,2058,2029,æ
1779266505.219397,2080,1964,æ
1779266505.219883,2066,2014,æ
1779266505.219956,2082,1991,æ
1779266505.220107,2107,1873,æ
1779266505.2202098,2044,1923,æ
1779266505.220277,2014,2137,æ
1779266505.220343,2041,2253,æ
1779266505.223039,2034,2121,æ
1779266505.22496,2015,2042,æ
1779266505.236249,1989,2061,æ
1779266505.2540002,2022,2136,æ
1779266505.2559419,2062,2021,æ
1779266505.2565708,2050,1934,æ
1779266505.257115,2020,2023,æ
1779266505.2572658,2024,2197,æ
1779266505.257717,2069,2066,æ
1779266505.2579148,2099,1859,æ
1779266505.258253,2047,1930,æ
1779266505.25928,2016,1981,æ
1779266505.276445,2048,1960,æ
1779266505.27685,2012,1888,æ
1779266505.2891378,2037,2026,æ
1779266505.289665,2016,2198,æ
1779266505.289761,2039,2144,æ
1779266505.289964,2012,2054,æ
1779266505.290123,2063,1914,æ
1779266505.290198,2032,1827,æ
1779266505.290275,2035,1760,æ
1779266505.290337,2076,1632,æ
1779266505.290398,1991,1683,æ
1779266505.2904582,2143,1891,æ
1779266505.29052,2089,1881,æ
1779266505.290586,2042,1718,æ
1779266505.290688,2064,1619,æ
1779266505.290763,2072,1745,æ
1779266505.290835,2012,1783,æ
1779266505.2909691,2045,1692,æ
1779266505.291116,2161,1560,æ
1779266505.291187,2113,1728,æ
1779266505.291253,1931,1982,æ
1779266505.291321,1931,1875,æ
1779266505.291383,1969,1721,æ
1779266505.2933261,1902,1639,æ
1779266505.295826,2068,1742,æ
1779266505.297238,2229,1754,æ
1779266505.3060758,2097,1722,æ
1779266505.312168,2096,1798,æ
1779266505.319267,2115,2016,æ
1779266505.319582,2001,2016,æ
1779266505.324849,2023,1834,æ
1779266505.325412,2183,1776,æ
1779266505.325772,2120,1852,æ
1779266505.326232,2019,1867,æ
1779266505.3264902,1967,1718,æ
1779266505.326827,1972,1761,æ
1779266505.3272169,2098,1926,æ
1779266505.327494,2196,2208,æ
1779266505.331069,1967,2029,æ
1779266505.332334,1917,1863,æ
1779266505.332494,2271,1872,æ
1779266505.332587,2121,1946,æ
1779266505.33266,2012,1813,æ
1779266505.332732,1943,1831,æ
1779266505.335606,2110,1982,æ
1779266505.3507462,2088,2222,æ
1779266505.351721,2147,2002,æ
1779266505.356021,2201,1778,æ
1779266505.364473,2133,1805,æ
1779266505.364876,1989,1875,æ
1779266505.365249,2204,1842,æ
1779266505.366179,1994,1691,æ
1779266505.366512,2033,1845,æ
1779266505.371146,1708,2092,æ
1779266505.3715498,1897,2128,æ
1779266505.371637,2377,1979,æ
1779266505.371712,2414,1896,æ
1779266505.371808,2367,1959,æ
1779266505.371881,2157,2026,æ
1779266505.371949,2120,1812,æ
1779266505.372033,2104,1987,æ
1779266505.3721442,2129,2134,æ
1779266505.372288,2246,2169,æ
1779266505.3723688,2156,1934,æ
1779266505.375307,2043,1814,æ
1779266505.376995,2019,1915,æ
1779266505.378697,1970,1895,æ
1779266505.3948212,2280,1840,æ
1779266505.401572,2286,1822,æ
1779266505.4075,2303,1992,æ
1779266505.407821,2012,2198,æ
1779266505.408385,1913,2028,æ
1779266505.408732,2539,1820,æ
1779266505.4092958,2784,1767,æ
1779266505.409655,1993,2048,æ
1779266505.413904,2001,1930,æ
1779266505.414072,2096,1838,æ
1779266505.414219,2284,1951,æ
1779266505.414315,2285,2293,æ
1779266505.4144158,2115,2249,æ
1779266505.4144902,2245,1995,æ
1779266505.4145658,2194,1946,æ
1779266505.414665,2194,1921,æ
1779266505.415029,2388,1974,æ
1779266505.415214,2400,1877,æ
1779266505.4171782,2614,2092,æ
1779266505.4360902,2254,2072,æ
1779266505.436434,2657,2195,æ
1779266505.441684,2130,2087,æ
1779266505.442271,2503,1907,æ
1779266505.442667,2099,2008,æ
1779266505.447079,2144,2046,æ
1779266505.447443,2372,2005,æ
1779266505.447909,2096,1992,æ
1779266505.447998,2346,2110,æ
1779266505.448073,2353,2293,æ
1779266505.448151,2010,2218,æ
1779266505.448222,1657,1959,æ
1779266505.44829,3175,2029,æ
1779266505.448352,2543,2131,æ
1779266505.448415,2465,2153,æ
1779266505.4484758,2196,1961,æ
1779266505.451166,1569,2241,æ
1779266505.453202,1942,2451,æ
1779266505.454605,1944,2349,æ
1779266505.465426,2889,2243,æ
1779266505.4657469,2289,2214,æ
1779266505.466762,1657,2342,æ
1779266505.467104,1758,2419,æ
1779266505.468142,2877,2303,æ
1779266505.471103,2009,2458,æ
1779266505.4715111,2669,2615,æ
1779266505.471881,3010,2702,æ
1779266505.475013,2053,2591,æ
1779266505.478691,1966,2428,æ
1779266505.4893591,2317,2563,æ
1779266505.489689,2303,2561,æ
1779266505.48984,2193,2419,æ
1779266505.490012,1757,2517,æ
1779266505.4901462,2028,2615,æ
1779266505.4902241,2487,2744,æ
1779266505.490318,1236,2664,æ
1779266505.49038,1787,2445,æ
1779266505.50587,3906,2684,æ
1779266505.517987,2068,2753,æ
1779266505.5187001,1730,2879,æ
1779266505.523105,2037,2761,æ
1779266505.523339,2373,3205,æ
1779266505.523506,2391,3363,æ
1779266505.523586,2266,3232,æ
1779266505.52365,1998,3000,æ
1779266505.523711,2253,3009,æ
1779266505.52387,1868,3041,æ
1779266505.523964,2062,3326,æ
1779266505.524039,2274,3484,æ
1779266505.524283,2230,3137,æ
1779266505.524373,2281,3407,æ
1779266505.524437,2012,3277,æ
1779266505.524498,3232,3246,æ
1779266505.524558,2435,3025,æ
1779266505.526939,1772,3580,æ
1779266505.528384,1272,3908,æ
1779266505.531299,1808,4095,æ
1779266505.539393,2335,4095,æ
1779266505.53959,1978,4095,æ
1779266505.5409741,1303,4095,æ
1779266505.5431008,3470,4051,æ
1779266505.546738,2227,3907,æ
1779266505.550239,1720,3868,æ
1779266505.553806,2229,3936,æ
1779266505.5595899,2387,4062,æ
1779266505.560072,1785,4095,æ
1779266505.5652459,2443,4095,æ
1779266505.565356,2549,4095,æ
1779266505.5654368,2269,4095,æ
1779266505.565504,1712,4018,æ
1779266505.565897,1503,3970,æ
1779266505.566139,1812,3983,æ
1779266505.566219,2502,4036,æ
1779266505.5662851,2034,4095,æ
1779266505.566349,2748,4095,æ
1779266505.582914,1351,4095,æ
1779266505.597562,2316,4095,æ
1779266505.599297,2100,3845,æ
1779266505.5994,1797,3889,æ
1779266505.599482,2048,3846,æ
1779266505.59956,2425,4018,æ
1779266505.599803,1986,4025,æ
1779266505.599943,2421,4038,æ
1779266505.600063,2165,4028,æ
1779266505.600132,2443,3185,æ
1779266505.6002932,1803,2722,æ
1779266505.600367,1792,2786,æ
1779266505.600437,2656,2954,æ
1779266505.600511,2240,2922,æ
1779266505.600575,1787,2982,æ
1779266505.6006389,3372,3419,æ
1779266505.600703,2224,3190,æ
1779266505.6033669,1389,2854,æ
1779266505.60472,1836,2937,æ
1779266505.607418,2214,2731,æ
1779266505.625202,2397,2296,æ
1779266505.634219,2138,2476,æ
1779266505.634718,2059,2799,æ
1779266505.639868,1844,2775,æ
1779266505.640048,2565,2529,æ
1779266505.6402218,2222,2081,æ
1779266505.6403031,1787,2004,æ
1779266505.640369,1684,1957,æ
1779266505.640437,3196,2016,æ
1779266505.6405041,2248,1901,æ
1779266505.640568,615,1936,æ
1779266505.640636,3948,1767,æ
1779266505.6407628,2487,1629,æ
1779266505.640851,1458,1484,æ
1779266505.640927,2098,1452,æ
1779266505.6409988,2122,1308,æ
1779266505.641067,1909,1315,æ
1779266505.6426501,2335,1316,æ
1779266505.660225,2601,869,æ
1779266505.668489,1455,1475,æ
1779266505.673728,659,1290,æ
1779266505.673933,1968,996,æ
1779266505.674017,2441,710,æ
1779266505.674094,2285,721,æ
1779266505.674162,3123,949,æ
1779266505.67424,1897,1037,æ
1779266505.674378,1910,1130,æ
1779266505.6744561,2395,1076,æ
1779266505.6746109,2122,1085,æ
1779266505.6746979,1752,933,æ
1779266505.674762,2401,631,æ
1779266505.674828,2908,1211,æ
1779266505.6748931,1964,1237,æ
1779266505.6749592,1341,1399,æ
1779266505.676577,2079,1168,æ
1779266505.6798458,3103,1198,æ
1779266505.68124,1817,1308,æ
1779266505.693144,2182,1254,æ
1779266505.696617,2029,1050,æ
1779266505.699819,2146,1013,æ
1779266505.703488,1855,1479,æ
1779266505.703804,2103,1460,æ
1779266505.70969,2317,1003,æ
1779266505.7103019,2279,1122,æ
1779266505.714989,1988,1157,æ
1779266505.7151291,2494,1135,æ
1779266505.715373,2094,966,æ
1779266505.71557,2913,1043,æ
1779266505.715782,1314,1075,æ
1779266505.715949,1922,1214,æ
1779266505.716065,3210,1174,æ
1779266505.716202,1870,1298,æ
1779266505.716395,2161,1160,æ
1779266505.716637,2571,975,æ
1779266505.716715,2377,1398,æ
1779266505.7182379,1861,1338,æ
1779266505.741149,2001,1321,æ
1779266505.74178,2254,1523,æ
1779266505.7468421,2447,1560,æ
1779266505.746986,2384,1309,æ
1779266505.747146,2633,1307,æ
1779266505.747234,1925,1883,æ
1779266505.747298,1684,1335,æ
1779266505.747361,2340,1132,æ
1779266505.747423,2647,1217,æ
1779266505.747484,2124,1408,æ
1779266505.747544,2109,1456,æ
1779266505.747605,2545,1495,æ
1779266505.747666,2449,1420,æ
1779266505.747734,1451,1710,æ
1779266505.749161,2123,1359,æ
1779266505.750716,2605,1931,æ
1779266505.753461,1460,1300,æ
1779266505.754859,2306,1527,æ
1779266505.7705731,2420,1883,æ
1779266505.773611,1910,1793,æ
1779266505.7753441,2019,1827,æ
1779266505.7783198,2433,1751,æ
1779266505.784058,2239,1923,æ
1779266505.784621,2411,1372,æ
1779266505.785079,1578,1431,æ
1779266505.785522,2460,1532,æ
1779266505.7859352,3656,1784,æ
1779266505.786415,1496,1968,æ
1779266505.791567,1501,1825,æ
1779266505.792007,2201,1614,æ
1779266505.792172,3112,1976,æ
1779266505.792307,1982,1798,æ
1779266505.792371,2062,1544,æ
1779266505.792432,2152,1712,æ
1779266505.792493,2554,1752,æ
1779266505.792555,2163,1825,æ
1779266505.7926269,2004,1769,æ
1779266505.795846,2369,1688,æ
1779266505.8058,2126,1840,æ
1779266505.80944,2237,1654,æ
1779266505.815615,2061,1625,æ
1779266505.8263,2786,1574,æ
1779266505.826754,2335,1645,æ
1779266505.826848,2239,1661,æ
1779266505.827209,2103,1826,æ
1779266505.8273,1939,1508,æ
1779266505.827442,2364,1518,æ
1779266505.827609,1758,1620,æ
1779266505.827714,2579,1449,æ
1779266505.827785,3094,1501,æ
1779266505.827852,1786,1621,æ
1779266505.8279219,1907,1693,æ
1779266505.8279848,1912,1768,æ
1779266505.828115,2183,1646,æ
1779266505.8282409,3007,1282,æ
1779266505.83101,2499,1385,æ
1779266505.8326669,1644,1954,æ
1779266505.834214,1401,1353,æ
1779266505.846067,2543,1530,æ
1779266505.8643851,1960,1302,æ
1779266505.866126,2502,1441,æ
1779266505.866246,2304,1725,æ
1779266505.86642,1773,1815,æ
1779266505.866496,1594,1800,æ
1779266505.86659,2723,1476,æ
1779266505.866692,2720,1485,æ
1779266505.866771,1827,1528,æ
1779266505.866838,1924,1785,æ
1779266505.866907,1859,2020,æ
1779266505.86697,2120,1822,æ
1779266505.867038,2203,1756,æ
1779266505.8671029,3306,1700,æ
1779266505.867172,2030,2169,æ
1779266505.867243,1213,1942,æ
1779266505.868628,2330,1839,æ
1779266505.889156,2401,2154,æ
1779266505.889798,1890,2088,æ
1779266505.89632,2475,1721,æ
1779266505.901671,2080,1904,æ
1779266505.901948,1707,1829,æ
1779266505.902117,1943,1992,æ
1779266505.9022431,2300,1724,æ
1779266505.90231,1918,1635,æ
1779266505.9023738,2429,1859,æ
1779266505.9024372,2365,1897,æ
1779266505.902503,2011,2001,æ
1779266505.902606,2050,1760,æ
1779266505.902669,1754,1815,æ
1779266505.902731,2258,2112,æ
1779266505.902792,2714,1829,æ
1779266505.902853,2092,1493,æ
1779266505.902914,1999,1771,æ
1779266505.904426,1910,1991,æ
1779266505.907,1967,1952,æ
1779266505.908412,2438,1762,æ
1779266505.9193652,2635,1954,æ
1779266505.9197388,1587,2407,æ
1779266505.9260302,1101,1945,æ
1779266505.9264472,2498,1976,æ
1779266505.92703,2309,1738,æ
1779266505.927702,1953,2004,æ
1779266505.9352582,1827,2081,æ
1779266505.935476,2467,1967,æ
1779266505.9418309,2124,2037,æ
1779266505.942442,2214,1932,æ
1779266505.942623,2266,1945,æ
1779266505.942971,2697,1757,æ
1779266505.9433632,2108,2113,æ
1779266505.9485,1510,1963,æ
1779266505.948606,2168,1979,æ
1779266505.948846,2603,1915,æ
1779266505.948952,2044,2084,æ
1779266505.9490292,1993,1844,æ
1779266505.949187,2245,1972,æ
1779266505.949253,2109,1928,æ
1779266505.95067,2092,1897,æ
1779266505.952592,2081,1837,æ
1779266505.967061,2064,1893,æ
1779266505.973551,2222,1924,æ
1779266505.9808471,2167,1980,æ
1779266505.986326,2232,1869,æ
1779266505.986454,2143,1940,æ
1779266505.986536,2146,1791,æ
1779266505.986617,1934,1954,æ
1779266505.9866838,1653,1766,æ
1779266505.9867468,2730,1994,æ
1779266505.9868119,1971,2290,æ
1779266505.9868748,1514,1644,æ
1779266505.986943,2362,2128,æ
1779266505.987026,2570,1997,æ
1779266505.987088,1898,1981,æ
1779266505.987191,1808,1874,æ
1779266505.987254,2060,1917,æ
1779266505.987316,2431,1934,æ
1779266505.9886231,2360,2180,æ
1779266505.991355,1795,2009,æ
1779266505.993084,2135,1872,æ
1779266505.994593,1994,2048,æ
1779266506.028138,1931,2246,æ
1779266506.0334709,2078,2212,æ
1779266506.033664,2055,2133,æ
1779266506.033878,2014,1701,æ
1779266506.034187,2128,2092,æ
1779266506.034272,2261,1899,æ
1779266506.034359,1465,2115,æ
1779266506.034535,2411,2109,æ
1779266506.034625,2533,2150,æ
1779266506.0347798,1742,2120,æ
1779266506.034945,1727,1985,æ
1779266506.035021,2406,1996,æ
1779266506.035172,2051,1995,æ
1779266506.035424,2168,2210,æ
1779266506.0356429,2084,2271,æ
1779266506.0357351,1648,1955,æ
1779266506.035918,2082,2131,æ
1779266506.0360498,2277,1972,æ
1779266506.036136,1894,1989,æ
1779266506.0362072,1837,2064,æ
1779266506.036277,1861,2190,æ
1779266506.047754,2373,2190,æ
1779266506.0518742,2029,1762,æ
1779266506.056903,1919,2212,æ
1779266506.0599182,1512,1998,æ
1779266506.0671492,1429,2083,æ
1779266506.067626,2091,1909,æ
1779266506.068233,3103,2014,æ
1779266506.068557,1995,2105,æ
1779266506.072256,1835,2043,æ
1779266506.074152,2007,2061,æ
1779266506.074255,2281,2141,æ
1779266506.074392,2110,1937,æ
1779266506.074537,2108,2013,æ
1779266506.074699,2232,2025,æ
1779266506.074819,1989,2085,æ
1779266506.0748951,1688,1869,æ
1779266506.0750499,1776,2181,æ
1779266506.075186,1805,2096,æ
1779266506.075315,2088,2021,æ
1779266506.0767071,2207,1857,æ
1779266506.0794392,1913,2016,æ
1779266506.0808718,2148,2160,æ
1779266506.08234,2584,2125,æ
1779266506.0929978,1917,2187,æ
1779266506.110133,1828,1989,æ
1779266506.1113758,2151,2108,æ
1779266506.111941,2238,2182,æ
1779266506.117734,2038,2276,æ
1779266506.117982,2159,1954,æ
1779266506.118142,1959,2207,æ
1779266506.118281,1877,2101,æ
1779266506.118612,1848,2057,æ
1779266506.1188831,1930,2101,æ
1779266506.1189618,2100,2057,æ
1779266506.1194,2156,2287,æ
1779266506.119475,2193,1949,æ
1779266506.120249,1714,2075,æ
1779266506.120348,1881,2184,æ
1779266506.120419,2315,1969,æ
1779266506.120495,2391,2228,æ
1779266506.1207628,2077,1802,æ
1779266506.1208582,2062,2158,æ
1779266506.131731,1625,2239,æ
1779266506.154837,2054,2178,æ
1779266506.155036,2199,2216,æ
1779266506.1551309,2100,2213,æ
1779266506.155384,1986,1911,æ
1779266506.1554508,1874,2118,æ
1779266506.155512,1866,2202,æ
1779266506.155573,1982,2201,æ
1779266506.1556349,2017,2010,æ
1779266506.1556969,2092,1928,æ
1779266506.155841,2090,2120,æ
1779266506.1559129,2044,2022,æ
1779266506.156043,2007,2294,æ
1779266506.156352,1830,2163,æ
1779266506.1564312,1992,2071,æ
1779266506.156747,1853,2003,æ
1779266506.1569679,2019,2200,æ
1779266506.157045,2286,2143,æ
1779266506.158425,2185,2119,æ
1779266506.161189,1892,2112,æ
1779266506.162573,2009,2193,æ
1779266506.181615,2549,2094,æ
1779266506.191296,1997,2038,æ
1779266506.191604,1579,2243,æ
1779266506.197218,1325,2062,æ
1779266506.197407,3210,1898,æ
1779266506.1974962,2262,2064,æ
1779266506.197588,1601,2336,æ
1779266506.1976619,1654,2079,æ
1779266506.19774,2118,2173,æ
1779266506.197803,1729,2154,æ
1779266506.198147,2340,1966,æ
1779266506.198273,2318,2186,æ
1779266506.198348,1857,1917,æ
1779266506.1984158,2058,2266,æ
1779266506.1984901,2081,2327,æ
1779266506.198557,2049,1939,æ
1779266506.198636,2024,2031,æ
1779266506.1987,2195,1977,æ
1779266506.214491,1977,2183,æ
1779266506.220864,1788,2091,æ
1779266506.232746,1902,2069,æ
1779266506.232915,1961,2157,æ
1779266506.233001,2190,2046,æ
1779266506.233367,2013,2085,æ
1779266506.233441,1992,2039,æ
1779266506.233542,2057,2195,æ
1779266506.2336519,2042,2170,æ
1779266506.233727,1804,2024,æ
1779266506.2338161,1990,1934,æ
1779266506.233896,2130,2191,æ
1779266506.23396,2190,2157,æ
1779266506.234105,1972,2045,æ
1779266506.234282,1914,2111,æ
1779266506.234459,2027,2191,æ
1779266506.234595,2078,2115,æ
1779266506.234684,1975,2063,æ
1779266506.237385,2000,2152,æ
1779266506.238771,1921,2120,æ
1779266506.24034,1869,2168,æ
1779266506.2554722,1950,2158,æ
1779266506.2638059,2080,2157,æ
1779266506.268022,2166,2289,æ
1779266506.2682838,2163,2179,æ
1779266506.268373,2150,2157,æ
1779266506.268478,1922,2134,æ
1779266506.268699,2031,2184,æ
1779266506.2688088,2044,2386,æ
1779266506.268884,1833,2326,æ
1779266506.2689521,1904,2130,æ
1779266506.269017,2024,2223,æ
1779266506.2690802,2050,2183,æ
1779266506.269142,1981,2325,æ
1779266506.269322,1998,2274,æ
1779266506.271414,1991,2361,æ
1779266506.280092,2098,2242,æ
1779266506.283458,2107,2265,æ
1779266506.28771,1894,2125,æ
1779266506.2956412,2003,2262,æ
1779266506.296351,2041,2183,æ
1779266506.297007,1941,2175,æ
1779266506.297415,1794,2230,æ
1779266506.301687,1970,2257,æ
1779266506.3022878,2067,2343,æ
1779266506.3024151,2109,2383,æ
1779266506.302506,1960,2157,æ
1779266506.302573,1950,2300,æ
1779266506.302707,2098,2431,æ
1779266506.302783,2088,2204,æ
1779266506.302847,2126,2122,æ
1779266506.3029099,1621,2253,æ
1779266506.304308,1436,2269,æ
1779266506.30703,2304,2238,æ
1779266506.308568,2292,2155,æ
1779266506.3177679,1972,2107,æ
1779266506.3198988,1956,2280,æ
1779266506.3333309,1986,2289,æ
1779266506.3346481,2059,2560,æ
1779266506.338442,2088,2322,æ
1779266506.338571,2150,2275,æ
1779266506.338656,2140,2447,æ
1779266506.338721,2053,2456,æ
1779266506.338855,1982,2383,æ
1779266506.338929,1983,2374,æ
1779266506.3390038,2014,2548,æ
1779266506.339069,2011,2506,æ
1779266506.339136,1995,2215,æ
1779266506.339373,2041,2315,æ
1779266506.3395488,2057,2407,æ
1779266506.340975,2100,2428,æ
1779266506.3563142,1914,2500,æ
1779266506.36403,1910,2619,æ
1779266506.3681128,1989,2490,æ
1779266506.369525,1994,2273,æ
1779266506.369675,1952,2209,æ
1779266506.3698418,1980,2512,æ
1779266506.369955,2024,2537,æ
1779266506.370045,2003,2427,æ
1779266506.3701189,1982,2527,æ
1779266506.3701818,1909,2392,æ
1779266506.370243,2065,2302,æ
1779266506.370304,2034,2303,æ
1779266506.370364,1992,2234,æ
1779266506.370425,1983,2222,æ
1779266506.370486,2041,2303,æ
1779266506.3732412,2043,2271,æ
1779266506.3747141,1982,2154,æ
1779266506.376199,1974,2277,æ
1779266506.383635,2029,2318,æ
1779266506.385907,2000,2191,æ
1779266506.389201,1963,2000,æ
1779266506.3897018,1952,2181,æ
1779266506.391948,1984,2298,æ
1779266506.3936582,2032,2236,æ
1779266506.3939662,2009,2218,æ
1779266506.417896,2030,2126,æ
1779266506.434649,1977,2061,æ
1779266506.435329,1874,2221,æ
1779266506.435837,1894,2376,æ
1779266506.4361851,2027,2104,æ
1779266506.436424,2044,2249,æ
1779266506.436898,2030,2064,æ
1779266506.441782,1952,2362,æ
1779266506.4421592,1965,2240,æ
1779266506.442239,2017,2262,æ
1779266506.4423091,2040,2054,æ
1779266506.442382,1992,1972,æ
1779266506.442451,1940,2432,æ
1779266506.442527,1939,2292,æ
1779266506.4425879,1885,2501,æ
1779266506.4426491,2024,2672,æ
1779266506.44271,2094,2390,æ
1779266506.44277,2087,2107,æ
1779266506.44283,2057,2636,æ
1779266506.442894,1998,2665,æ
1779266506.442954,1942,2485,æ
1779266506.443014,1887,2340,æ
1779266506.4430761,1991,2479,æ
1779266506.443136,1992,2452,æ
1779266506.443199,1805,2335,æ
1779266506.443268,1803,2203,æ
1779266506.444757,2288,2279,æ
1779266506.446248,2265,2119,æ
1779266506.448916,1945,2094,æ
1779266506.4507918,1904,2120,æ
1779266506.4606311,1822,2108,æ
1779266506.462068,2050,2150,æ
1779266506.4673548,2041,2064,æ
1779266506.468353,1942,2030,æ
1779266506.468653,1919,2304,æ
1779266506.469852,2073,2263,æ
1779266506.471006,2047,1871,æ
1779266506.473826,1928,1890,æ
1779266506.474244,1976,2056,æ
1779266506.4748201,2058,2047,æ
1779266506.4813051,2046,2215,æ
1779266506.481885,1936,2045,æ
1779266506.487489,1879,2055,æ
1779266506.487672,2017,2123,æ
1779266506.487753,1884,2190,æ
1779266506.487824,2080,1986,æ
1779266506.487894,1963,2144,æ
1779266506.487982,2055,2344,æ
1779266506.489655,1996,2331,æ
1779266506.491568,1960,2131,æ
1779266506.4997,1903,2263,æ
1779266506.501878,1792,2559,æ
1779266506.502081,2083,2425,æ
1779266506.509696,1975,2142,æ
1779266506.513328,1895,2087,æ
1779266506.5253649,1951,2267,æ
1779266506.525472,1992,2375,æ
1779266506.525546,2124,2303,æ
1779266506.5257332,1954,2023,æ
1779266506.525868,1815,2094,æ
1779266506.525944,2105,2243,æ
1779266506.526015,2016,1816,æ
1779266506.526099,1905,2176,æ
1779266506.5261729,1926,2233,æ
1779266506.526251,2052,2447,æ
1779266506.526381,1991,2109,æ
1779266506.5265238,2086,2184,æ
1779266506.526616,2048,2057,æ
1779266506.5299141,1982,1881,æ
1779266506.53155,1870,1842,æ
1779266506.533086,1860,1991,æ
1779266506.5606048,1914,2043,æ
1779266506.561307,2033,1988,æ
1779266506.5617359,2062,1825,æ
1779266506.562459,2043,1926,æ
1779266506.5629041,2058,2014,æ
1779266506.5671418,1942,2109,æ
1779266506.567735,1923,1975,æ
1779266506.567827,2137,1889,æ
1779266506.5679638,2035,2025,æ
1779266506.5680761,1798,2013,æ
1779266506.5681741,1897,1911,æ
1779266506.5682392,2113,1703,æ
1779266506.5683048,2173,1901,æ
1779266506.568377,1819,1884,æ
1779266506.5686011,1914,1703,æ
1779266506.568762,1957,1824,æ
1779266506.568854,1702,1881,æ
1779266506.568929,2036,1741,æ
1779266506.5702772,2106,1842,æ
1779266506.5784981,2018,2010,æ
1779266506.580532,1622,2030,æ
1779266506.581613,1643,1696,æ
1779266506.585145,2310,1358,æ
1779266506.585601,2157,1479,æ
1779266506.585962,1873,1576,æ
1779266506.589154,2079,1731,æ
1779266506.590375,2435,1497,æ
1779266506.5905879,2585,1604,æ
1779266506.593122,2591,1763,æ
1779266506.59341,1494,1487,æ
1779266506.5997891,1505,1554,æ
1779266506.600227,1631,1579,æ
1779266506.600516,1583,1585,æ
1779266506.600845,2154,1591,æ
1779266506.605729,1820,1785,æ
1779266506.606208,1634,1669,æ
1779266506.606297,1899,1585,æ
1779266506.6093419,1909,1578,æ
1779266506.610728,1942,1691,æ
1779266506.61226,2471,1587,æ
1779266506.621635,2210,1448,æ
1779266506.6246521,1868,1503,æ
1779266506.62583,1825,1675,æ
1779266506.6288059,1730,1758,æ
1779266506.629451,1776,1683,æ
1779266506.633168,1841,1565,æ
1779266506.63586,1984,1709,æ
1779266506.642483,2312,1646,æ
1779266506.643121,2234,1528,æ
1779266506.643758,2099,1604,æ
1779266506.644592,1833,1741,æ
1779266506.645181,1628,1742,æ
1779266506.645476,1891,1760,æ
1779266506.650105,1949,1678,æ
1779266506.650358,1990,1627,æ
1779266506.650476,1938,1772,æ
1779266506.650613,1936,1705,æ
1779266506.650728,1813,1707,æ
1779266506.650849,1805,1797,æ
1779266506.652256,1805,1876,æ
1779266506.670397,1874,1753,æ
1779266506.6730628,1881,1748,æ
1779266506.6796842,1791,1706,æ
1779266506.680407,1734,1748,æ
1779266506.6813529,1738,1733,æ
1779266506.6861088,1749,1661,æ
1779266506.6862578,1703,1775,æ
1779266506.686335,1697,1999,æ
1779266506.686406,1761,1962,æ
1779266506.686475,1783,1840,æ
1779266506.68655,1824,1741,æ
1779266506.686611,1860,1766,æ
1779266506.686672,1868,1818,æ
1779266506.686734,1877,1710,æ
1779266506.686796,1820,1711,æ
1779266506.686857,1815,1815,æ
1779266506.68692,1898,1874,æ
1779266506.688276,1900,1852,æ
1779266506.690937,1878,1740,æ
1779266506.6923048,1882,1818,æ
1779266506.6954072,1842,1785,æ
1779266506.7037508,1892,1784,æ
1779266506.7039628,1837,1781,æ
1779266506.704937,1809,1767,æ
1779266506.705778,1857,1972,æ
1779266506.7071629,1892,1832,æ
1779266506.710381,1919,1725,æ
1779266506.713291,1871,1644,æ
1779266506.714394,1855,1759,æ
1779266506.717979,1941,1721,æ
1779266506.723304,1896,1714,æ
1779266506.723892,1878,1764,æ
1779266506.724284,1921,1929,æ
1779266506.724559,1984,1946,æ
1779266506.724925,1948,1821,æ
1779266506.7253382,1938,1734,æ
1779266506.757496,1950,1849,æ
1779266506.763196,1990,1893,æ
1779266506.763408,1992,1785,æ
1779266506.7634828,1769,1768,æ
1779266506.7635462,1825,1915,æ
1779266506.7636092,2018,1956,æ
1779266506.763669,2044,1972,æ
1779266506.763807,2012,1907,æ
1779266506.7640908,1803,1906,æ
1779266506.764194,1795,1943,æ
1779266506.764263,2177,1882,æ
1779266506.764364,2058,1942,æ
1779266506.76443,1839,1993,æ
1779266506.764492,1916,2090,æ
1779266506.764587,1941,2054,æ
1779266506.764648,1933,1978,æ
1779266506.76471,2037,1937,æ
1779266506.7648242,2009,1967,æ
1779266506.766377,1946,1993,æ
1779266506.766453,1959,2079,æ
1779266506.766517,1972,2052,æ
1779266506.801673,1954,1980,æ
1779266506.8017879,1869,2084,æ
1779266506.801858,1671,2051,æ
1779266506.801924,1953,1952,æ
1779266506.802092,2339,1985,æ
1779266506.802271,2036,1973,æ
1779266506.802359,1985,1955,æ
1779266506.8024352,1936,1906,æ
1779266506.802659,2007,2082,æ
1779266506.8027341,2113,2197,æ
1779266506.802806,2105,1982,æ
1779266506.803572,1948,1882,æ
1779266506.803691,1929,1934,æ
1779266506.803763,1964,2002,æ
1779266506.803829,1875,1933,æ
1779266506.803891,1826,1981,æ
1779266506.803951,1724,2101,æ
1779266506.8152452,2057,2169,æ
1779266506.8216598,2090,2173,æ
1779266506.831616,2315,2039,æ
1779266506.83662,2043,2009,æ
1779266506.83686,1814,2117,æ
1779266506.836948,1932,2122,æ
1779266506.837117,1874,2030,æ
1779266506.837277,1806,2108,æ
1779266506.837399,1849,2201,æ
1779266506.837478,2184,2189,æ
1779266506.8375611,1998,2076,æ
1779266506.8376498,1918,1956,æ
1779266506.837733,1850,2015,æ
1779266506.837804,2048,2109,æ
1779266506.837875,2077,1979,æ
1779266506.837944,2017,1942,æ
1779266506.838014,2012,2103,æ
1779266506.8380868,1985,2187,æ
1779266506.8382459,1946,2075,æ
1779266506.841078,1967,2001,æ
1779266506.84255,1959,1981,æ
1779266506.845788,1897,2064,æ
1779266506.858849,1773,2002,æ
1779266506.8656409,1992,1983,æ
1779266506.871698,2202,2105,æ
1779266506.871973,2129,2187,æ
1779266506.872436,1941,2089,æ
1779266506.8728142,1998,2032,æ
1779266506.873518,2108,2024,æ
1779266506.876645,2035,2052,æ
1779266506.878051,2052,2018,æ
1779266506.878228,2035,1996,æ
1779266506.8783062,1953,2050,æ
1779266506.878463,1981,2213,æ
1779266506.878528,1937,2217,æ
1779266506.878592,1916,2016,æ
1779266506.878655,2237,2061,æ
1779266506.8787148,1932,2115,æ
1779266506.878774,1933,2187,æ
1779266506.8817039,2129,2029,æ
1779266506.888565,1943,2078,æ
1779266506.8914719,1940,2192,æ
1779266506.892405,1920,2247,æ
1779266506.8953621,1950,2080,æ
1779266506.8957398,2062,2046,æ
1779266506.896139,2013,2034,æ
1779266506.9022021,2031,2075,æ
1779266506.907613,2073,2051,æ
1779266506.9082189,1986,2024,æ
1779266506.908452,2088,2163,æ
1779266506.908868,2054,2313,æ
1779266506.909285,1977,2139,æ
1779266506.909726,1964,2009,æ
1779266506.910454,1928,2039,æ
1779266506.915061,1971,2048,æ
1779266506.915566,2057,1948,æ
1779266506.915667,2105,1958,æ
1779266506.9177952,1967,2092,æ
1779266506.919082,1969,2155,æ
1779266506.9204638,2085,2188,æ
1779266506.9231858,2066,2079,æ
1779266506.931724,2126,2183,æ
1779266506.9342248,1974,2134,æ
1779266506.938026,1955,2109,æ
1779266506.9386759,2020,2068,æ
1779266506.941229,1949,2100,æ
1779266506.9459178,2016,2115,æ
1779266506.9525492,2106,2164,æ
1779266506.9578571,2025,2074,æ
1779266506.9579651,2015,2028,æ
1779266506.958045,2005,2055,æ
1779266506.958345,1978,2122,æ
1779266506.9585369,2010,2067,æ
1779266506.959101,1992,2082,æ
1779266506.959179,2130,2178,æ
1779266506.95925,1859,2294,æ
1779266506.9594,1927,2201,æ
1779266506.959473,1952,2034,æ
1779266506.9799738,2049,2051,æ
1779266506.9900758,2230,2169,æ
1779266506.9966981,2271,2203,æ
1779266506.996806,1712,2116,æ
1779266506.996955,1817,2145,æ
1779266506.997036,2088,2303,æ
1779266506.997269,2113,2326,æ
1779266506.997361,2106,2201,æ
1779266506.997472,2119,2084,æ
1779266506.9975371,1930,2139,æ
1779266506.997659,1942,2218,æ
1779266506.997728,1961,2181,æ
1779266506.997793,1917,2206,æ
1779266506.9978921,2021,2184,æ
1779266506.997979,2210,2234,æ
1779266506.998107,2098,2251,æ
1779266506.9981701,1907,2196,æ
1779266506.998231,1888,2164,æ
1779266506.998382,2097,2169,æ
1779266506.998605,2094,2202,æ
1779266506.999031,1988,2217,æ
1779266507.0005271,1973,2231,æ
1779266507.003387,2000,2427,æ
1779266507.0048482,2015,2285,æ
1779266507.006586,1957,2162,æ
1779266507.039341,1961,2128,æ
1779266507.040001,2021,2193,æ
1779266507.0403059,2071,2205,æ
1779266507.040407,2035,2171,æ
1779266507.0404859,1957,2245,æ
1779266507.0405629,1957,2371,æ
1779266507.0406358,2104,2320,æ
1779266507.0407948,2049,2210,æ
1779266507.0411189,2005,2190,æ
1779266507.041215,2039,2158,æ
1779266507.041344,1915,2224,æ
1779266507.041515,1963,2182,æ
1779266507.0418649,1998,2213,æ
1779266507.042117,1868,2272,æ
1779266507.042252,1646,2237,æ
1779266507.042382,2354,2262,æ
1779266507.042455,2071,2259,æ
1779266507.04252,1854,2246,æ
1779266507.067934,2053,2269,æ
1779266507.073937,2184,2253,æ
1779266507.074715,2073,2260,æ
1779266507.076622,1978,2266,æ
1779266507.0769641,2012,2321,æ
1779266507.077161,1993,2198,æ
1779266507.077271,2017,2163,æ
1779266507.077356,1979,2144,æ
1779266507.077445,2041,2288,æ
1779266507.0775669,2020,2230,æ
1779266507.078022,2061,2171,æ
1779266507.078105,2066,2257,æ
1779266507.078294,2065,2310,æ
1779266507.078509,2026,2273,æ
1779266507.078707,1929,2239,æ
1779266507.078787,2085,2160,æ
1779266507.078856,2027,2220,æ
1779266507.079054,1884,2189,æ
1779266507.0804422,1868,2213,æ
1779266507.0915961,2158,2214,æ
1779266507.0958898,2101,2291,æ
1779266507.110064,2104,2330,æ
1779266507.1151738,2079,2362,æ
1779266507.116174,2075,2201,æ
1779266507.11641,2044,2204,æ
1779266507.1164968,2125,2213,æ
1779266507.116574,1978,2212,æ
1779266507.116642,1960,2202,æ
1779266507.116713,2057,2261,æ
1779266507.117058,2066,2281,æ
1779266507.117198,1985,2315,æ
1779266507.117281,2002,2223,æ
1779266507.117355,1936,2175,æ
1779266507.117432,1961,2155,æ
1779266507.117501,2110,2112,æ
1779266507.117569,2054,2080,æ
1779266507.1176379,1862,2128,æ
1779266507.1189928,2028,2261,æ
1779266507.120373,2239,2288,æ
1779266507.1479309,2014,2188,æ
1779266507.152823,2044,2069,æ
1779266507.1529632,2087,2114,æ
1779266507.1531892,2024,2161,æ
1779266507.153271,2049,2153,æ
1779266507.153347,1931,2174,æ
1779266507.15342,2081,2201,æ
1779266507.153485,2051,2194,æ
1779266507.153801,2034,2244,æ
1779266507.1541052,2174,2190,æ
1779266507.154189,2000,2131,æ
1779266507.154264,1855,2228,æ
1779266507.154331,2086,2157,æ
1779266507.1544058,2274,2140,æ
1779266507.1545348,2029,2205,æ
1779266507.154621,1994,2215,æ
1779266507.1547022,2074,2234,æ
1779266507.156737,1999,2167,æ
1779266507.158387,2019,2188,æ
1779266507.161022,2036,2205,æ
1779266507.1633449,2093,2135,æ
1779266507.175528,2040,2088,æ
1779266507.18503,2012,2200,æ
1779266507.1906528,1966,2323,æ
1779266507.1965928,2036,2230,æ
1779266507.196714,2028,2125,æ
1779266507.196797,2093,2005,æ
1779266507.196862,2048,2107,æ
1779266507.196998,2048,2201,æ
1779266507.19713,2026,2169,æ
1779266507.197215,1960,2102,æ
1779266507.1972868,1991,2139,æ
1779266507.197351,2045,2239,æ
1779266507.197417,2085,2151,æ
1779266507.197481,2087,2099,æ
1779266507.197547,2025,2134,æ
1779266507.19761,1999,2170,æ
1779266507.197674,2106,2133,æ
1779266507.198868,2062,2154,æ
1779266507.2252018,2039,2166,æ
1779266507.230643,2034,2300,æ
1779266507.230775,2045,2254,æ
1779266507.230856,2039,2112,æ
1779266507.230936,2008,2073,æ
1779266507.231004,2020,2073,æ
1779266507.231075,2062,2028,æ
1779266507.231221,2075,2048,æ
1779266507.231334,2021,2106,æ
1779266507.231412,1969,2221,æ
1779266507.231601,2086,2197,æ
1779266507.231719,2089,2112,æ
1779266507.231797,2087,2038,æ
1779266507.231869,2038,2102,æ
1779266507.2320168,2084,2071,æ
1779266507.232121,2051,2068,æ
1779266507.232198,1990,2111,æ
1779266507.234865,1984,2199,æ
1779266507.2362618,2054,2151,æ
1779266507.239291,2087,2167,æ
1779266507.259041,2053,2104,æ
1779266507.2721438,2032,2207,æ
1779266507.2723389,2054,2115,æ
1779266507.272427,2024,2075,æ
1779266507.272536,2045,1988,æ
1779266507.272608,2039,2105,æ
1779266507.2726731,2040,2202,æ
1779266507.272736,1887,2132,æ
1779266507.2729359,2055,2058,æ
1779266507.273011,1970,2095,æ
1779266507.273175,2077,2072,æ
1779266507.273343,2311,2088,æ
1779266507.2734149,2029,2003,æ
1779266507.273649,1812,2084,æ
1779266507.273814,2341,2130,æ
1779266507.274015,2264,2225,æ
1779266507.274341,2014,2029,æ
1779266507.274493,2165,1991,æ
1779266507.2929401,2052,2000,æ
1779266507.296606,2089,2053,æ
1779266507.3067222,1939,1992,æ
1779266507.3075142,2484,2151,æ
1779266507.307668,1933,2097,æ
1779266507.30791,1809,2018,æ
1779266507.3081028,2690,1886,æ
1779266507.308254,2384,1957,æ
1779266507.30833,1630,2168,æ
1779266507.308395,1342,2104,æ
1779266507.308465,1732,1916,æ
1779266507.308527,2997,1913,æ
1779266507.308599,2539,2138,æ
1779266507.3086631,1766,2339,æ
1779266507.308726,1758,2268,æ
1779266507.308795,2042,2077,æ
1779266507.308861,2250,2031,æ
1779266507.310282,2122,2101,æ
1779266507.31293,2016,2130,æ
1779266507.31456,2283,2070,æ
1779266507.334369,1442,2079,æ
1779266507.334752,1619,2138,æ
1779266507.3381271,2976,2244,æ
1779266507.3433259,1564,2208,æ
1779266507.3437839,3233,2249,æ
1779266507.3440251,2199,2163,æ
1779266507.344939,1791,2111,æ
1779266507.3455129,2155,1982,æ
1779266507.3463712,2117,2112,æ
1779266507.351458,1893,2222,æ
1779266507.351999,1953,2074,æ
1779266507.3524601,1927,1985,æ
1779266507.352588,2117,1962,æ
1779266507.352809,2165,2049,æ
1779266507.352921,1727,2084,æ
1779266507.35305,2188,1877,æ
1779266507.35329,2710,1999,æ
1779266507.353417,2193,2175,æ
1779266507.3534899,2536,2147,æ
1779266507.3553212,2197,2086,æ
1779266507.368734,1838,2036,æ
1779266507.369807,2122,2040,æ
1779266507.376649,1946,2068,æ
1779266507.382615,2202,1951,æ
1779266507.3839638,2262,1937,æ
1779266507.384873,1991,2110,æ
1779266507.3898208,1462,2164,æ
1779266507.3902369,2343,2135,æ
1779266507.390368,2363,2056,æ
1779266507.3904572,2338,1854,æ
1779266507.390578,2715,1904,æ
1779266507.3906639,2110,1959,æ
1779266507.390733,2050,2062,æ
1779266507.390917,2327,2082,æ
1779266507.390987,2289,2120,æ
1779266507.391094,2311,2080,æ
1779266507.391205,2123,2186,æ
1779266507.391349,2316,2037,æ
1779266507.392713,2209,2097,æ
1779266507.394392,2394,2080,æ
1779266507.397234,2398,1968,æ
1779266507.399196,2112,1990,æ
1779266507.425367,2368,2056,æ
1779266507.430933,2468,2157,æ
1779266507.431328,2181,2078,æ
1779266507.431603,1973,1962,æ
1779266507.431713,2151,1927,æ
1779266507.431844,2677,2060,æ
1779266507.432153,2172,2267,æ
1779266507.4322612,1788,2069,æ
1779266507.43248,2917,1937,æ
1779266507.4325812,2574,2354,æ
1779266507.4327931,1490,2262,æ
1779266507.432987,1646,2077,æ
1779266507.433063,1862,2109,æ
1779266507.433129,2096,1892,æ
1779266507.433216,3257,2184,æ
1779266507.433295,1947,2220,æ
1779266507.433362,1592,1865,æ
1779266507.447493,2408,2193,æ
1779266507.454008,2969,2299,æ
1779266507.464277,2663,2101,æ
1779266507.464569,2032,1975,æ
1779266507.464708,2679,1910,æ
1779266507.46518,2852,1946,æ
1779266507.4660149,2445,2258,æ
1779266507.46611,2291,2053,æ
1779266507.4661849,1780,2490,æ
1779266507.466341,1385,2262,æ
1779266507.466435,3135,2282,æ
1779266507.46652,2674,2357,æ
1779266507.466649,1793,2613,æ
1779266507.4667242,1242,2685,æ
1779266507.466848,2135,2804,æ
1779266507.467315,3684,2820,æ
1779266507.467392,2617,2970,æ
1779266507.4696221,1574,3015,æ
1779266507.4712498,2057,3056,æ
1779266507.4732742,2673,3350,æ
1779266507.50458,2607,3533,æ
1779266507.5049012,2212,3824,æ
1779266507.504982,1956,3963,æ
1779266507.505051,2404,4095,æ
1779266507.505277,1232,4095,æ
1779266507.5053718,2041,4095,æ
1779266507.505439,1928,4095,æ
1779266507.505613,2045,3998,æ
1779266507.5057569,2162,3905,æ
1779266507.5059211,3354,3948,æ
1779266507.506121,2277,4004,æ
1779266507.50621,2134,4084,æ
1779266507.506274,2197,4095,æ
1779266507.506346,831,4095,æ
1779266507.5064452,4095,4095,æ
1779266507.506512,2755,3829,æ
1779266507.506582,1465,4011,æ
1779266507.528694,2281,3829,æ
1779266507.539318,2362,4006,æ
1779266507.542041,2059,4022,æ
1779266507.54217,2414,4052,æ
1779266507.5422442,1966,4036,æ
1779266507.54231,1878,3863,æ
1779266507.542372,2162,3655,æ
1779266507.542441,2148,3127,æ
1779266507.542613,2053,3073,æ
1779266507.54269,2107,3225,æ
1779266507.542762,1929,3372,æ
1779266507.5428228,1598,3521,æ
1779266507.5428832,3299,3205,æ
1779266507.5429602,2582,2823,æ
1779266507.543072,2237,2986,æ
1779266507.5431428,2049,2773,æ
1779266507.543305,1918,2083,æ
1779266507.543457,2228,2220,æ
1779266507.544974,1965,2015,æ
1779266507.5470889,2364,2737,æ
1779266507.5486898,2554,2492,æ
1779266507.5662029,1961,1959,æ
1779266507.5728488,2159,1955,æ
1779266507.579985,1870,1903,æ
1779266507.584908,1393,2241,æ
1779266507.585034,967,1719,æ
1779266507.586688,3955,1862,æ
1779266507.586895,2440,2121,æ
1779266507.5869818,1453,1953,æ
1779266507.5870552,2238,1564,æ
1779266507.587122,2079,1396,æ
1779266507.587198,1853,1389,æ
1779266507.587262,2455,1239,æ
1779266507.587327,3162,1084,æ
1779266507.587441,2056,1660,æ
1779266507.5876338,1570,1604,æ
1779266507.5888581,1983,1131,æ
1779266507.597253,2056,1274,æ
1779266507.6145751,2409,692,æ
1779266507.6203039,2467,849,æ
1779266507.6204338,1779,965,æ
1779266507.620518,2619,1422,æ
1779266507.620587,2038,1381,æ
1779266507.6207418,2289,1181,æ
1779266507.620815,2062,1089,æ
1779266507.620874,2283,919,æ
1779266507.6209931,2006,820,æ
1779266507.621227,1956,1268,æ
1779266507.621428,2806,1095,æ
1779266507.6215959,2063,787,æ
1779266507.621747,2030,1182,æ
1779266507.621823,3063,1243,æ
1779266507.621931,2512,1245,æ
1779266507.622137,2370,1504,æ
1779266507.6222148,1164,1218,æ
1779266507.622281,2051,1225,æ
1779266507.622344,3014,1331,æ
1779266507.622405,2678,1268,æ
1779266507.625078,2167,1003,æ
1779266507.626413,2058,741,æ
1779266507.6299179,1822,1193,æ
1779266507.6546938,2086,850,æ
1779266507.655356,2103,771,æ
1779266507.660138,1935,831,æ
1779266507.660348,2715,1262,æ
1779266507.660429,2203,1451,æ
1779266507.6604931,2625,1277,æ
1779266507.660556,1197,1648,æ
1779266507.660616,1502,1487,æ
1779266507.6609201,2897,1481,æ
1779266507.661294,1695,1410,æ
1779266507.661474,2889,1034,æ
1779266507.6615732,3031,1211,æ
1779266507.6616461,1117,1462,æ
1779266507.6619148,2115,1528,æ
1779266507.662097,2388,1591,æ
1779266507.662206,2085,1456,æ
1779266507.662276,2298,1649,æ
1779266507.676359,1926,1597,æ
1779266507.690977,1806,1417,æ
1779266507.691088,2334,1412,æ
1779266507.691255,2126,1395,æ
1779266507.691351,2269,1415,æ
1779266507.6914382,1869,1354,æ
1779266507.691514,2482,1905,æ
1779266507.6915798,1616,1638,æ
1779266507.6916459,2713,1561,æ
1779266507.691791,2534,1412,æ
1779266507.69199,1885,1649,æ
1779266507.69209,2164,1778,æ
1779266507.6922581,2520,1760,æ
1779266507.6923258,1824,1769,æ
1779266507.6924522,1909,1610,æ
1779266507.69519,1903,1472,æ
1779266507.696564,2037,1504,æ
1779266507.705458,2891,1770,æ
1779266507.7101812,1835,1772,æ
1779266507.723829,1860,1291,æ
1779266507.724116,1992,1523,æ
1779266507.724313,2271,1627,æ
1779266507.724428,2247,1981,æ
1779266507.724499,2225,1396,æ
1779266507.72489,2276,1477,æ
1779266507.7250519,1744,1433,æ
1779266507.72518,2414,1284,æ
1779266507.725263,2258,1158,æ
1779266507.7253299,2313,1622,æ
1779266507.7253919,1745,1531,æ
1779266507.7254882,2917,1406,æ
1779266507.7270458,1968,1408,æ
1779266507.739765,1511,1436,æ
1779266507.747614,1714,1076,æ
1779266507.755933,3205,1148,æ
1779266507.756059,2091,1281,æ
1779266507.756265,1506,1184,æ
1779266507.756355,2007,1555,æ
1779266507.756458,2277,1343,æ
1779266507.7576241,2226,1203,æ
1779266507.7576928,2571,1404,æ
1779266507.757777,2244,1370,æ
1779266507.757838,1891,1054,æ
1779266507.758015,2499,1165,æ
1779266507.7582982,2235,1383,æ
1779266507.7583659,1913,1399,æ
1779266507.7584262,1751,1600,æ
1779266507.758487,2425,1401,æ
1779266507.7753139,2471,1412,æ
1779266507.784779,2161,1440,æ
1779266507.785441,2034,1374,æ
1779266507.7900212,1625,1437,æ
1779266507.790113,2382,1446,æ
1779266507.790178,2299,1693,æ
1779266507.790238,2603,1503,æ
1779266507.7902951,2392,1521,æ
1779266507.7903528,1828,1504,æ
1779266507.7904088,1730,1665,æ
1779266507.790465,3165,1474,æ
1779266507.790671,2112,1446,æ
1779266507.790804,1359,1545,æ
1779266507.790894,1893,1569,æ
1779266507.79096,2035,1650,æ
1779266507.7910242,2348,1643,æ
1779266507.792445,2570,1647,æ
1779266507.804887,2041,1776,æ
1779266507.813063,2360,1503,æ
1779266507.813867,2080,1837,æ
1779266507.816737,853,1765,æ
1779266507.817893,2784,1432,æ
1779266507.8183491,3048,1782,æ
1779266507.818531,1841,1728,æ
1779266507.818608,1742,1824,æ
1779266507.818779,1758,1741,æ
1779266507.818861,2948,1719,æ
1779266507.8189309,2456,1438,æ
1779266507.818995,2197,1617,æ
1779266507.819065,1858,1790,æ
1779266507.8204942,2159,1855,æ
1779266507.823321,1833,1889,æ
1779266507.824888,2080,1558,æ
1779266507.836148,2027,1809,æ
1779266507.836691,1867,1802,æ
1779266507.847467,2553,1936,æ
1779266507.8479528,2288,1661,æ
1779266507.852488,1762,1881,æ
1779266507.85258,1888,1893,æ
1779266507.852642,2338,1895,æ
1779266507.8527,2155,1580,æ
1779266507.852757,1839,1872,æ
1779266507.852813,2025,1628,æ
1779266507.85287,1898,2001,æ
1779266507.852926,1967,1713,æ
1779266507.852982,2797,1682,æ
1779266507.8534799,2323,1748,æ
1779266507.8548312,2063,2043,æ
1779266507.867049,1877,1949,æ
1779266507.87024,2249,1875,æ
1779266507.879262,2646,2080,æ
1779266507.883513,2229,1929,æ
1779266507.884098,1650,1876,æ
1779266507.8844512,1850,1807,æ
1779266507.884545,2016,1805,æ
1779266507.884612,2022,2072,æ
1779266507.884675,2604,2185,æ
1779266507.884741,1495,1991,æ
1779266507.8848078,1919,1842,æ
1779266507.884873,2738,2201,æ
1779266507.884935,2454,1644,æ
1779266507.885001,2217,1712,æ
1779266507.8850791,1209,2333,æ
1779266507.8864481,1817,1832,æ
1779266507.889267,2328,1861,æ
1779266507.890708,2386,1658,æ
1779266507.8996842,2176,2198,æ
1779266507.899947,1916,2195,æ
1779266507.901355,2391,1914,æ
1779266507.90468,2147,1885,æ
1779266507.9080598,1766,2007,æ
1779266507.90939,2593,1957,æ
1779266507.912426,2687,1944,æ
1779266507.9185941,2260,1951,æ
1779266507.918907,2104,2142,æ
1779266507.919282,1721,1814,æ
1779266507.919636,2384,1929,æ
1779266507.920206,2003,2148,æ
1779266507.920542,1675,1987,æ
1779266507.9208472,2320,2161,æ
1779266507.921164,2061,2091,æ
1779266507.926503,2106,1931,æ
1779266507.926611,2862,1996,æ
1779266507.92669,2117,2023,æ
1779266507.928134,1906,1736,æ
1779266507.943156,1881,2042,æ
1779266507.9436228,1939,1882,æ
1779266507.943934,1835,1978,æ
1779266507.9472551,1698,1985,æ
1779266507.948331,3328,1994,æ
1779266507.9486442,1921,2104,æ
1779266507.951008,1884,2103,æ
1779266507.951382,2283,2151,æ
1779266507.95184,2035,1976,æ
1779266507.9582112,2494,1913,æ
1779266507.9586308,2076,2116,æ
1779266507.9591439,1804,2083,æ
1779266507.959569,2128,2106,æ
1779266507.960095,1952,2046,æ
1779266507.960437,1870,1924,æ
1779266507.9640808,2225,2071,æ
1779266507.965247,2096,1927,æ
1779266507.965535,1396,2199,æ
1779266507.966896,2203,1940,æ
1779266507.96835,3073,2028,æ
1779266507.970878,2314,1887,æ
1779266507.972279,1665,2273,æ
1779266507.982934,1682,2137,æ
1779266507.983157,1774,2014,æ
1779266507.9842298,2238,2028,æ
1779266507.986037,2213,1962,æ
1779266507.9863172,2250,2045,æ
1779266507.986567,2030,2223,æ
1779266507.98969,1823,2080,æ
1779266507.993228,1936,1959,æ
1779266507.993552,2159,2252,æ
1779266507.997379,1789,2114,æ
1779266507.9975371,2461,1808,æ
1779266508.008427,1683,1993,æ
1779266508.008728,1930,2027,æ
1779266508.008996,2677,2000,æ
1779266508.010398,1996,2089,æ
1779266508.010477,2009,2121,æ
1779266508.010547,2306,2090,æ
1779266508.0106292,2018,1968,æ
1779266508.010705,2176,1943,æ
1779266508.012137,1936,2238,æ
1779266508.029912,1657,2050,æ
1779266508.032126,2491,1962,æ
1779266508.04075,1910,2175,æ
1779266508.0411031,1939,2180,æ
1779266508.041554,1962,2184,æ
1779266508.042084,1990,1935,æ
1779266508.042523,2547,1886,æ
1779266508.042791,1801,2211,æ
1779266508.043088,1665,2091,æ
1779266508.043405,2192,2137,æ
1779266508.043809,2026,2126,æ
1779266508.0441,1795,2235,æ
1779266508.0446432,1964,1894,æ
1779266508.0490859,1945,1933,æ
1779266508.049622,2302,2031,æ
1779266508.049705,1960,2310,æ
1779266508.049778,1506,2151,æ
1779266508.050001,2170,2113,æ
1779266508.050089,2278,1964,æ
1779266508.052852,1949,2201,æ
1779266508.05426,1893,2280,æ
1779266508.057272,1896,2167,æ
1779266508.084408,2028,2112,æ
1779266508.084691,2118,2079,æ
1779266508.085119,2125,2141,æ
1779266508.0856829,1950,1966,æ
1779266508.0858839,1721,2045,æ
1779266508.086267,1386,2149,æ
1779266508.086557,2640,2069,æ
1779266508.0870268,2565,2154,æ
1779266508.092145,1514,2174,æ
1779266508.092628,1795,2141,æ
1779266508.092839,2041,2049,æ
1779266508.092999,1956,2111,æ
1779266508.093122,2132,2157,æ
1779266508.093218,2175,2049,æ
1779266508.09329,1581,2194,æ
1779266508.0933561,1437,2119,æ
1779266508.093479,2403,2021,æ
1779266508.093629,1858,2126,æ
1779266508.095281,2094,2113,æ
1779266508.103254,2117,2060,æ
1779266508.1042318,2005,2049,æ
1779266508.109364,1963,2068,æ
1779266508.109795,1975,2100,æ
1779266508.110247,1883,2186,æ
1779266508.114387,1665,2376,æ
1779266508.114885,2101,1868,æ
1779266508.117245,2420,2133,æ
1779266508.117785,2016,2184,æ
1779266508.124351,1829,2047,æ
1779266508.130521,2119,2056,æ
1779266508.130621,1969,2125,æ
1779266508.1306949,1973,2200,æ
1779266508.130829,1972,2162,æ
1779266508.130919,1979,2175,æ
1779266508.131238,1961,2170,æ
1779266508.1313841,2024,2152,æ
1779266508.1314838,1926,2202,æ
1779266508.132864,1971,2158,æ
1779266508.1342158,1996,2204,æ
1779266508.1367838,1986,2241,æ
1779266508.138259,1991,2188,æ
1779266508.15236,1990,2164,æ
1779266508.166359,1934,2029,æ
1779266508.1667478,2068,2186,æ
1779266508.171544,2044,2298,æ
1779266508.1716511,2049,2068,æ
1779266508.171722,1982,2105,æ
1779266508.1717849,1957,2246,æ
1779266508.1718478,2024,2165,æ
1779266508.172061,1982,2145,æ
1779266508.1722,1955,2088,æ
1779266508.1722748,1991,2329,æ
1779266508.172342,1853,2228,æ
1779266508.1725461,1931,2244,æ
1779266508.172739,2045,2105,æ
1779266508.1728268,2186,2366,æ
1779266508.1729121,1912,2307,æ
1779266508.1729789,1985,2098,æ
1779266508.1748369,2032,2118,æ
1779266508.1844249,2077,2115,æ
1779266508.2002182,2040,2110,æ
1779266508.200736,1980,2406,æ
1779266508.205075,1910,2407,æ
1779266508.206614,1953,2225,æ
1779266508.206843,2105,2215,æ
1779266508.206923,1996,2257,æ
1779266508.2069929,1965,2122,æ
1779266508.207243,1967,2206,æ
1779266508.207327,2005,2361,æ
1779266508.207562,2088,2359,æ
1779266508.207681,2004,2161,æ
1779266508.2078028,2064,2206,æ
1779266508.207875,2143,2331,æ
1779266508.207947,1930,2053,æ
1779266508.208011,1975,2192,æ
1779266508.208077,1983,2284,æ
1779266508.2107751,1964,2241,æ
1779266508.212202,2102,2176,æ
1779266508.224231,2091,2128,æ
1779266508.228541,1909,2259,æ
1779266508.2415109,1885,2546,æ
1779266508.246939,1949,2379,æ
1779266508.247044,2019,2184,æ
1779266508.247117,2041,2150,æ
1779266508.247187,1901,2266,æ
1779266508.247256,1774,2567,æ
1779266508.247317,1803,2283,æ
1779266508.247377,1762,2168,æ
1779266508.247482,1715,2134,æ
1779266508.2475798,1808,2316,æ
1779266508.247662,1809,2347,æ
1779266508.247735,1785,2291,æ
1779266508.247863,1805,2250,æ
1779266508.247943,1855,2321,æ
1779266508.248014,1881,2187,æ
1779266508.248217,1797,2155,æ
1779266508.263157,1766,2296,æ
1779266508.275968,1972,2286,æ
1779266508.2797189,2022,2147,æ
1779266508.2809658,1947,2172,æ
1779266508.281055,1940,2227,æ
1779266508.281208,1889,2142,æ
1779266508.2813382,1918,2224,æ
1779266508.2814138,1887,2212,æ
1779266508.281485,1858,2169,æ
1779266508.281557,1879,2198,æ
1779266508.281631,1978,2207,æ
1779266508.2817001,1940,2196,æ
1779266508.2817678,1961,2154,æ
1779266508.281836,2007,2141,æ
1779266508.2819111,2066,2217,æ
1779266508.282042,2024,2128,æ
1779266508.28212,1996,2167,æ
1779266508.285177,1951,2106,æ
1779266508.2868092,2044,2144,æ
1779266508.288487,2086,2163,æ
1779266508.297395,2070,2243,æ
1779266508.3038259,1998,2238,æ
1779266508.304163,2038,2117,æ
1779266508.304644,2064,2211,æ
1779266508.3048909,1980,2208,æ
1779266508.305281,1994,2151,æ
1779266508.308522,2046,2093,æ
1779266508.318433,2070,2115,æ
1779266508.31875,2065,2143,æ
1779266508.3190951,2017,2213,æ
1779266508.3194938,2039,2253,æ
1779266508.3198981,2126,2276,æ
1779266508.325272,2041,2135,æ
1779266508.325365,1937,2170,æ
1779266508.32545,1970,2225,æ
1779266508.325515,2073,2314,æ
1779266508.325603,2092,2191,æ
1779266508.325682,2046,2173,æ
1779266508.327324,1949,2264,æ
1779266508.3286972,2021,2361,æ
1779266508.340991,2068,2428,æ
1779266508.3453372,2039,2422,æ
1779266508.359469,1994,2398,æ
1779266508.3602262,2070,2351,æ
1779266508.3603241,2077,2137,æ
1779266508.3604019,2093,2237,æ
1779266508.360472,1989,2388,æ
1779266508.3605409,1998,2484,æ
1779266508.360606,2051,2430,æ
1779266508.360697,2050,2482,æ
1779266508.360779,1985,2469,æ
1779266508.3609412,1999,2483,æ
1779266508.3610182,2065,2517,æ
1779266508.3610802,2093,2471,æ
1779266508.361139,2019,2551,æ
1779266508.3611991,1949,2542,æ
1779266508.362633,2012,2781,æ
1779266508.36406,2006,2652,æ
1779266508.366772,2022,2528,æ
1779266508.368171,1987,2417,æ
1779266508.3834271,2025,2508,æ
1779266508.389697,2014,2618,æ
1779266508.3963258,1981,2596,æ
1779266508.396755,1967,2811,æ
1779266508.397218,2046,2743,æ
1779266508.397417,2103,2657,æ
1779266508.398177,2032,2570,æ
1779266508.398713,1879,2562,æ
1779266508.398898,2040,2786,æ
1779266508.403532,2135,2748,æ
1779266508.403637,2070,2632,æ
1779266508.403714,1883,2593,æ
1779266508.403892,2048,2593,æ
1779266508.4040809,2097,2680,æ
1779266508.404195,1917,2692,æ
1779266508.404316,1898,2554,æ
1779266508.404386,1909,2516,æ
1779266508.404447,1876,2658,æ
1779266508.407306,1992,2539,æ
1779266508.415694,2219,2411,æ
1779266508.417089,1970,2575,æ
1779266508.418022,1830,2759,æ
1779266508.4220622,2179,2581,æ
1779266508.4297678,2097,2463,æ
1779266508.436321,1982,2472,æ
1779266508.4368231,1951,2575,æ
1779266508.437388,1985,2582,æ
1779266508.4377038,2126,2526,æ
1779266508.438106,2287,2487,æ
1779266508.438424,1888,2598,æ
1779266508.439119,2059,2659,æ
1779266508.443027,1944,2458,æ
1779266508.443308,1905,2569,æ
1779266508.44457,2216,2572,æ
1779266508.44466,1780,2646,æ
1779266508.4447842,1993,2516,æ
1779266508.444858,2051,2330,æ
1779266508.44493,2042,2440,æ
1779266508.447618,2022,2572,æ
1779266508.449514,1944,2457,æ
1779266508.450921,1894,2391,æ
1779266508.452714,1994,2609,æ
1779266508.45419,2104,2624,æ
1779266508.465143,2013,2693,æ
1779266508.466166,1991,2627,æ
1779266508.467239,1980,2664,æ
1779266508.4710882,2032,2741,æ
1779266508.474159,2057,2791,æ
1779266508.475232,1907,2713,æ
1779266508.4798222,1831,2561,æ
1779266508.4864361,1659,2754,æ
1779266508.486783,2002,2843,æ
1779266508.487265,2585,2686,æ
1779266508.4924989,2057,2703,æ
1779266508.493265,1847,3218,æ
1779266508.493346,1797,2951,æ
1779266508.49341,1990,2769,æ
1779266508.493471,2302,2816,æ
1779266508.493533,1883,2888,æ
1779266508.493592,1957,2801,æ
1779266508.4936519,1871,2810,æ
1779266508.493712,1794,2928,æ
1779266508.495269,1951,2832,æ
1779266508.4969869,2084,2623,æ
1779266508.5052779,1936,2802,æ
1779266508.510568,2096,2768,æ
1779266508.51426,2176,2700,æ
1779266508.5147562,2163,2645,æ
1779266508.5293472,2049,2678,æ
1779266508.529836,1923,2615,æ
1779266508.530092,1890,2735,æ
1779266508.530245,1951,2804,æ
1779266508.530325,1907,2459,æ
1779266508.530394,1876,2546,æ
1779266508.530462,1846,2837,æ
1779266508.5305321,1999,2965,æ
1779266508.530598,2120,2899,æ
1779266508.530665,1961,2816,æ
1779266508.530729,2118,2725,æ
1779266508.530792,2129,2673,æ
1779266508.53086,2236,2654,æ
1779266508.532356,1912,2607,æ
1779266508.534982,1855,2596,æ
1779266508.536679,2052,2658,æ
1779266508.5384629,1990,2725,æ
1779266508.5551722,1930,2842,æ
1779266508.555728,2053,2760,æ
1779266508.5564852,1945,2716,æ
1779266508.560162,2039,2718,æ
1779266508.5642,1712,2748,æ
1779266508.5703812,1759,2533,æ
1779266508.571476,2459,2547,æ
1779266508.572779,2179,2607,æ
1779266508.5782049,1840,2651,æ
1779266508.578507,1757,2597,æ
1779266508.5786922,2358,2447,æ
1779266508.578827,1896,2585,æ
1779266508.578909,1846,2786,æ
1779266508.579021,1954,2495,æ
1779266508.5790951,2317,2286,æ
1779266508.57927,1842,2488,æ
1779266508.5793478,1748,2520,æ
1779266508.5794199,1953,2231,æ
1779266508.579527,1894,2274,æ
1779266508.579703,1983,2271,æ
1779266508.58091,1837,2136,æ
1779266508.596014,1680,2124,æ
1779266508.600598,1985,2099,æ
1779266508.603252,2138,1937,æ
1779266508.6036952,2042,1912,æ
1779266508.604043,1921,1961,æ
1779266508.610026,1857,1882,æ
1779266508.6112058,2006,1967,æ
1779266508.6117032,1970,1816,æ
1779266508.612261,1893,1503,æ
1779266508.61829,1844,1573,æ
1779266508.618622,1872,1617,æ
1779266508.6189618,1788,1657,æ
1779266508.619055,1856,1702,æ
1779266508.619127,2078,1669,æ
1779266508.619194,1889,1553,æ
1779266508.6192598,1865,1457,æ
1779266508.6193228,1785,1424,æ
1779266508.619385,1961,1385,æ
