timestamp,ch1,ch2,label
1789464433.560354,2055,2876,9_S
1789464433.5620322,2091,2877,9_S
1789464433.564309,2068,2876,9_S
1789464433.5658538,2081,2876,9_S
1789464433.568434,2082,2877,9_S
1789464433.570325,2090,2876,9_S
1789464433.571381,2107,2876,9_S
1789464433.573932,2056,2876,9_S
1789464433.575246,2056,2876,9_S
1789464433.5773172,2077,2878,9_S
1789464433.579617,2087,2875,9_S
1789464433.581923,2077,2875,9_S
1789464433.583207,2060,2876,9_S
1789464433.585506,2090,2878,9_S
1789464433.58796,2116,2875,9_S
1789464433.590254,2060,2875,9_S
1789464433.591297,2055,2875,9_S
1789464433.593606,2072,2876,9_S
1789464433.5961568,2105,2877,9_S
1789464433.597444,2106,2878,9_S
1789464433.602323,2046,2875,9_S
1789464433.602655,2073,2878,9_S
1789464433.605088,2096,2877,9_S
1789464433.60555,2090,2877,9_S
1789464433.6082208,2042,2877,9_S
1789464433.610681,2048,2876,9_S
1789464433.611995,2062,2875,9_S
1789464433.613183,2080,2876,9_S
1789464433.615486,2036,2876,9_S
1789464433.617978,2050,2873,9_S
1789464433.620285,2116,2877,9_S
1789464433.621325,2117,2876,9_S
1789464433.62363,2053,2876,9_S
1789464433.626069,2056,2876,9_S
1789464433.627361,2079,2877,9_S
1789464433.6294231,2089,2876,9_S
1789464433.631725,2059,2876,9_S
1789464433.6337888,2042,2875,9_S
1789464433.636091,2103,2878,9_S
1789464433.6375449,2107,2875,9_S
1789464433.640977,2071,2875,9_S
1789464433.643296,2031,2875,9_S
1789464433.643488,2046,2875,9_S
1789464433.6459541,2079,2875,9_S
1789464433.6475708,2068,2876,9_S
1789464433.649759,2054,2876,9_S
1789464433.652069,2057,2878,9_S
1789464433.6532512,2107,2876,9_S
1789464433.655566,2081,2875,9_S
1789464433.658123,2029,2875,9_S
1789464433.659295,2030,2874,9_S
1789464433.661841,2103,2877,9_S
1789464433.6639118,2095,2876,9_S
1789464433.665205,2051,2876,9_S
1789464433.667259,2055,2875,9_S
1789464433.669801,2106,2878,9_S
1789464433.6721,2085,2875,9_S
1789464433.673386,2046,2876,9_S
1789464433.675929,2038,2877,9_S
1789464433.677991,2080,2878,9_S
1789464433.68226,2110,2878,9_S
1789464433.682709,2080,2876,9_S
1789464433.684674,2067,2877,9_S
1789464433.686584,2110,2877,9_S
1789464433.688878,2119,2877,9_S
1789464433.691421,2081,2876,9_S
1789464433.691492,2070,2876,9_S
1789464433.693801,2067,2877,9_S
1789464433.695977,2089,2874,9_S
1789464433.697265,2077,2876,9_S
1789464433.6993752,2017,2876,9_S
1789464433.701918,2051,2875,9_S
1789464433.703203,2125,2878,9_S
1789464433.705503,2098,2875,9_S
1789464433.707805,2054,2876,9_S
1789464433.71011,2054,2876,9_S
1789464433.711394,2070,2875,9_S
1789464433.713938,2088,2877,9_S
1789464433.715221,2094,2876,9_S
1789464433.720733,2072,2875,9_S
1789464433.721157,2100,2876,9_S
1789464433.721845,2068,2875,9_S
1789464433.723549,2051,2876,9_S
1789464433.726408,2047,2875,9_S
1789464433.728298,2096,2877,9_S
1789464433.7296798,2091,2875,9_S
1789464433.7317498,2088,2875,9_S
1789464433.734058,2060,2876,9_S
1789464433.7351182,2077,2878,9_S
1789464433.737647,2114,2877,9_S
1789464433.7402391,2086,2875,9_S
1789464433.741527,2056,2876,9_S
1789464433.744069,2070,2876,9_S
1789464433.745354,2088,2874,9_S
1789464433.7479029,2084,2876,9_S
1789464433.749197,2060,2876,9_S
1789464433.7516842,2087,2877,9_S
1789464433.754229,2130,2876,9_S
1789464433.7552729,2059,2876,9_S
1789464433.761266,2049,2875,9_S
1789464433.761943,2033,2877,9_S
1789464433.7620459,2066,2875,9_S
1789464433.7646132,2090,2876,9_S
1789464433.766326,2096,2876,9_S
1789464433.767736,2079,2878,9_S
1789464433.769686,2112,2876,9_S
1789464433.771094,2093,2875,9_S
1789464433.77364,2066,2876,9_S
1789464433.775723,2059,2876,9_S
1789464433.7770472,2064,2875,9_S
1789464433.779379,2082,2875,9_S
1789464433.78168,2103,2876,9_S
1789464433.783041,2063,2874,9_S
1789464433.7852411,2099,2877,9_S
1789464433.7877061,2079,2877,9_S
1789464433.790019,2074,2876,9_S
1789464433.791308,2075,2876,9_S
1789464433.7934358,2019,2874,9_S
1789464433.795766,2079,2876,9_S
1789464433.797059,2077,2875,9_S
1789464433.8015392,2055,2876,9_S
1789464433.8019881,2056,2877,9_S
1789464433.8041222,2114,2875,9_S
1789464433.8056629,2112,2877,9_S
1789464433.807282,2066,2875,9_S
1789464433.8115,2075,2877,9_S
1789464433.811639,2091,2876,9_S
1789464433.8139892,2117,2876,9_S
1789464433.815283,2066,2876,9_S
1789464433.817627,2046,2874,9_S
1789464433.819927,2084,2876,9_S
1789464433.821215,2085,2875,9_S
1789464433.8237572,2062,2876,9_S
1789464433.825047,2049,2876,9_S
1789464433.827589,2056,2875,9_S
1789464433.830129,2077,2877,9_S
1789464433.831413,2081,2876,9_S
1789464433.8339531,2075,2876,9_S
1789464433.835238,2080,2878,9_S
1789464433.837436,2107,2876,9_S
1789464433.841716,2099,2876,9_S
1789464433.842475,2045,2875,9_S
1789464433.844233,2079,2875,9_S
1789464433.846434,2113,2877,9_S
1789464433.848802,2109,2876,9_S
1789464433.851201,2069,2876,9_S
1789464433.851371,2106,2878,9_S
1789464433.853933,2108,2878,9_S
1789464433.855016,2082,2876,9_S
1789464433.857585,2050,2876,9_S
1789464433.859891,2036,2878,9_S
1789464433.8610282,2051,2875,9_S
1789464433.8633358,2081,2876,9_S
1789464433.865887,2077,2876,9_S
1789464433.867028,2069,2878,9_S
1789464433.86933,2110,2877,9_S
1789464433.871871,2071,2875,9_S
1789464433.87316,2083,2876,9_S
1789464433.875702,2075,2876,9_S
1789464433.877006,2080,2878,9_S
1789464433.8816488,2083,2875,9_S
1789464433.882467,2075,2876,9_S
1789464433.884224,2071,2876,9_S
1789464433.885974,2118,2876,9_S
1789464433.887567,2103,2875,9_S
1789464433.889438,2076,2877,9_S
1789464433.891995,2044,2875,9_S
1789464433.893045,2044,2874,9_S
1789464433.8955038,2074,2876,9_S
1789464433.8980548,2063,2876,9_S
1789464433.902025,2040,2876,9_S
1789464433.902494,2040,2875,9_S
1789464433.904205,2084,2877,9_S
1789464433.906112,2085,2876,9_S
1789464433.9086232,2056,2875,9_S
1789464433.911284,2055,2876,9_S
1789464433.911385,2079,2875,9_S
1789464433.9136808,2077,2875,9_S
1789464433.914977,2087,2876,9_S
1789464433.9175339,2058,2875,9_S
1789464433.9200761,2099,2878,9_S
1789464433.921359,2102,2877,9_S
1789464433.9239,2082,2875,9_S
1789464433.9249558,2061,2876,9_S
1789464433.9272552,2072,2878,9_S
1789464433.929795,2119,2880,9_S
1789464433.931079,2073,2876,9_S
1789464433.933627,2049,2876,9_S
1789464433.934912,2086,2877,9_S
1789464433.937241,2095,2877,9_S
1789464433.941499,2061,2875,9_S
1789464433.941911,2032,2875,9_S
1789464433.9434738,2039,2873,9_S
1789464433.945819,2078,2875,9_S
1789464433.9473112,2106,2876,9_S
1789464433.950046,2088,2875,9_S
1789464433.9511092,2059,2877,9_S
1789464433.953728,2102,2878,9_S
1789464433.955028,2120,2875,9_S
1789464433.957532,2059,2876,9_S
1789464433.961538,2056,2876,9_S
1789464433.961609,2060,2876,9_S
1789464433.963414,2104,2876,9_S
1789464433.965565,2090,2876,9_S
1789464433.9681122,2069,2875,9_S
1789464433.970974,2123,2876,9_S
1789464433.97101,2098,2875,9_S
1789464433.973094,2062,2876,9_S
1789464433.975649,2067,2876,9_S
1789464433.9769359,2067,2874,9_S
1789464433.979485,2080,2876,9_S
1789464433.981807,2078,2875,9_S
1789464433.9830909,2065,2875,9_S
1789464433.9853828,2085,2877,9_S
1789464433.9875689,2101,2875,9_S
1789464433.98964,2080,2876,9_S
1789464433.990935,2080,2876,9_S
1789464433.993044,2053,2877,9_S
1789464433.995143,2079,2875,9_S
1789464433.9974442,2103,2877,9_S
1789464434.001761,2070,2876,9_S
1789464434.002502,2100,2877,9_S
1789464434.003969,2126,2877,9_S
1789464434.005813,2114,2875,9_S
1789464434.0083368,2096,2875,9_S
1789464434.0105112,2025,2874,9_S
1789464434.011809,2048,2875,9_S
1789464434.013095,2047,2876,9_S
1789464434.01541,2029,2875,9_S
1789464434.0176709,2043,2875,9_S
1789464434.021736,2000,2874,9_S
1789464434.022367,2008,2876,9_S
1789464434.025095,2049,2875,9_S
1789464434.025194,2061,2877,9_S
1789464434.0279381,2080,2876,9_S
1789464434.030401,2085,2875,9_S
1789464434.031692,2097,2876,9_S
1789464434.034005,2063,2876,9_S
1789464434.035296,2059,2877,9_S
1789464434.037977,2109,2876,9_S
1789464434.039219,2058,2874,9_S
1789464434.0417888,2044,2875,9_S
1789464434.043078,2033,2876,9_S
1789464434.045622,2036,2875,9_S
1789464434.0479202,2019,2876,9_S
1789464434.049205,2042,2876,9_S
1789464434.0517492,2042,2874,9_S
1789464434.0528882,2107,2877,9_S
1789464434.054958,1977,2877,9_S
1789464434.060721,1982,2875,9_S
1789464434.060823,1988,2874,9_S
1789464434.060931,2006,2874,9_S
1789464434.0633972,2042,2876,9_S
1789464434.066307,2103,2875,9_S
1789464434.068202,2027,2875,9_S
1789464434.071127,2066,2875,9_S
1789464434.0712829,1974,2872,9_S
1789464434.073587,2023,2876,9_S
1789464434.0757911,1962,2874,9_S
1789464434.0770938,1978,2875,9_S
1789464434.081173,1954,2875,9_S
1789464434.0819159,1976,2876,9_S
1789464434.083922,2008,2875,9_S
1789464434.085363,2025,2878,9_S
1789464434.08697,2084,2876,9_S
1789464434.090025,2092,2876,9_S
1789464434.091079,2009,2877,9_S
1789464434.093441,2010,2875,9_S
1789464434.0957499,2036,2876,9_S
1789464434.09704,2091,2877,9_S
1789464434.099335,2099,2878,9_S
1789464434.101651,2067,2877,9_S
1789464434.102939,2056,2875,9_S
1789464434.105299,2043,2875,9_S
1789464434.107838,2000,2874,9_S
1789464434.108908,2068,2877,9_S
1789464434.111215,2098,2875,9_S
1789464434.1135192,2059,2875,9_S
1789464434.115654,2012,2875,9_S
1789464434.1221771,1989,2874,9_S
1789464434.122584,2046,2878,9_S
1789464434.12377,2129,2876,9_S
1789464434.123842,2062,2876,9_S
1789464434.125885,2026,2877,9_S
1789464434.127926,2080,2878,9_S
1789464434.1294432,2116,2878,9_S
1789464434.131787,2090,2875,9_S
1789464434.132832,2035,2875,9_S
1789464434.134896,2061,2878,9_S
1789464434.1374452,2080,2877,9_S
1789464434.1399848,2090,2876,9_S
1789464434.141286,2036,2878,9_S
1789464434.143829,2048,2876,9_S
1789464434.145115,2084,2875,9_S
1789464434.147317,2099,2876,9_S
1789464434.1496131,2045,2876,9_S
1789464434.1518168,2058,2876,9_S
1789464434.1541262,2149,2878,9_S
1789464434.155179,2093,2877,9_S
1789464434.157472,2074,2876,9_S
1789464434.161658,2083,2877,9_S
1789464434.162336,2053,2875,9_S
1789464434.163584,2047,2876,9_S
1789464434.165387,2020,2876,9_S
1789464434.168045,2050,2875,9_S
1789464434.169136,2110,2877,9_S
1789464434.171781,2106,2876,9_S
1789464434.172858,2043,2877,9_S
1789464434.175406,1984,2874,9_S
1789464434.176796,2015,2875,9_S
1789464434.179338,2121,2875,9_S
1789464434.1816351,2121,2876,9_S
1789464434.183937,2079,2875,9_S
1789464434.185117,2076,2876,9_S
1789464434.1876569,2070,2875,9_S
1789464434.1899798,2043,2875,9_S
1789464434.1910331,2058,2876,9_S
1789464434.193336,2089,2876,9_S
1789464434.1956291,2134,2878,9_S
1789464434.1997921,2126,2877,9_S
1789464434.200185,2031,2876,9_S
1789464434.2019572,2033,2875,9_S
1789464434.203385,2099,2878,9_S
1789464434.205056,2094,2876,9_S
1789464434.208671,2027,2875,9_S
1789464434.2088058,2045,2877,9_S
1789464434.211178,2069,2877,9_S
1789464434.213742,2116,2879,9_S
1789464434.2150369,2112,2878,9_S
1789464434.217082,2047,2875,9_S
1789464434.219624,2057,2878,9_S
1789464434.220907,2069,2877,9_S
1789464434.223346,2116,2876,9_S
1789464434.2256472,2034,2876,9_S
1789464434.2269309,1959,2874,9_S
1789464434.228995,2084,2875,9_S
1789464434.231058,2136,2877,9_S
1789464434.2331321,2055,2875,9_S
1789464434.2365298,2126,2877,9_S
1789464434.238505,2130,2877,9_S
1789464434.24031,2165,2876,9_S
1789464434.242684,2082,2877,9_S
1789464434.2437031,2067,2876,9_S
1789464434.245149,2069,2874,9_S
1789464434.247448,2095,2876,9_S
1789464434.2495182,2011,2875,9_S
1789464434.251829,1999,2875,9_S
1789464434.253116,2038,2877,9_S
1789464434.255415,2163,2877,9_S
1789464434.257717,2104,2875,9_S
1789464434.258773,2012,2876,9_S
1789464434.261068,2067,2874,9_S
1789464434.263367,2125,2878,9_S
1789464434.265666,2194,2878,9_S
1789464434.266814,2053,2875,9_S
1789464434.269353,2123,2875,9_S
1789464434.273773,2160,2877,9_S
1789464434.274188,2099,2876,9_S
1789464434.275737,2070,2877,9_S
1789464434.2775009,2096,2877,9_S
1789464434.279765,2076,2875,9_S
1789464434.2825332,2022,2876,9_S
1789464434.283822,2023,2876,9_S
1789464434.2848792,2096,2878,9_S
1789464434.2871838,2152,2875,9_S
1789464434.289771,2073,2877,9_S
1789464434.2908852,1973,2877,9_S
1789464434.2931929,1922,2874,9_S
1789464434.29541,1810,2875,9_S
1789464434.296779,1947,2877,9_S
1789464434.299093,2159,2879,9_S
1789464434.301641,2229,2878,9_S
1789464434.302926,2130,2877,9_S
1789464434.3054662,2135,2877,9_S
1789464434.306798,2170,2878,9_S
1789464434.311237,2212,2877,9_S
1789464434.311858,2158,2876,9_S
1789464434.313684,2168,2876,9_S
1789464434.315139,2273,2879,9_S
1789464434.317605,1781,2875,9_S
1789464434.320374,1654,2875,9_S
1789464434.321664,1959,2874,9_S
1789464434.322921,2281,2877,9_S
1789464434.3252301,2170,2878,9_S
1789464434.327776,2079,2877,9_S
1789464434.3289611,2089,2875,9_S
1789464434.331276,2111,2876,9_S
1789464434.333822,2171,2876,9_S
1789464434.334869,2204,2878,9_S
1789464434.3369548,2238,2877,9_S
1789464434.339496,2187,2877,9_S
1789464434.3419259,2050,2876,9_S
1789464434.343211,2089,2876,9_S
1789464434.3457541,1999,2875,9_S
1789464434.349351,2096,2877,9_S
1789464434.349741,2105,2876,9_S
1789464434.351572,2047,2876,9_S
1789464434.3536708,2040,2876,9_S
1789464434.3558779,1879,2873,9_S
1789464434.3572638,1962,2875,9_S
1789464434.358807,2086,2876,9_S
1789464434.3613598,2121,2877,9_S
1789464434.363678,1927,2875,9_S
1789464434.36498,1947,2876,9_S
1789464434.367279,2011,2876,9_S
1789464434.369719,2269,2878,9_S
1789464434.371006,2375,2878,9_S
1789464434.3733099,2234,2876,9_S
1789464434.375624,2063,2877,9_S
1789464434.377737,1947,2873,9_S
1789464434.3789299,2061,2876,9_S
1789464434.380984,2226,2876,9_S
1789464434.383088,2055,2876,9_S
1789464434.387687,1904,2875,9_S
1789464434.388056,2059,2877,9_S
1789464434.390172,2215,2876,9_S
1789464434.3918998,2106,2876,9_S
1789464434.393555,2042,2877,9_S
1789464434.395905,2106,2875,9_S
1789464434.397644,2222,2879,9_S
1789464434.398688,2147,2876,9_S
1789464434.4010031,2090,2874,9_S
1789464434.403556,1968,2875,9_S
1789464434.405689,2075,2876,9_S
1789464434.406729,2106,2876,9_S
1789464434.40929,1852,2873,9_S
1789464434.411448,1960,2873,9_S
1789464434.4137878,2229,2877,9_S
1789464434.414829,1990,2876,9_S
1789464434.417141,1965,2875,9_S
1789464434.41944,2212,2878,9_S
1789464434.421739,2354,2878,9_S
1789464434.423031,2173,2876,9_S
1789464434.427383,2166,2877,9_S
1789464434.427731,2197,2878,9_S
1789464434.429866,2120,2874,9_S
1789464434.431572,2168,2875,9_S
1789464434.4332979,2045,2876,9_S
1789464434.4357471,1946,2875,9_S
1789464434.437525,2016,2873,9_S
1789464434.439848,2042,2876,9_S
1789464434.44089,1887,2876,9_S
1789464434.443199,1779,2873,9_S
1789464434.445261,2093,2878,9_S
1789464434.4475799,2324,2878,9_S
1789464434.448669,2347,2879,9_S
1789464434.450977,2243,2879,9_S
1789464434.45328,2047,2876,9_S
1789464434.4556868,2107,2877,9_S
1789464434.4569752,2093,2877,9_S
1789464434.459451,2027,2877,9_S
1789464434.460746,1950,2874,9_S
1789464434.463291,1882,2875,9_S
1789464434.467977,2009,2875,9_S
1789464434.469001,2203,2877,9_S
1789464434.46912,2368,2877,9_S
1789464434.471741,2245,2877,9_S
1789464434.473189,2070,2877,9_S
1789464434.474973,2065,2877,9_S
1789464434.478135,2143,2877,9_S
1789464434.479434,2190,2878,9_S
1789464434.4817688,2116,2875,9_S
1789464434.483072,2036,2876,9_S
1789464434.485145,2050,2877,9_S
1789464434.4874501,2073,2877,9_S
1789464434.489759,2074,2875,9_S
1789464434.490813,2008,2875,9_S
1789464434.493123,2054,2874,9_S
1789464434.495441,2063,2874,9_S
1789464434.497508,2060,2876,9_S
1789464434.498676,2045,2875,9_S
1789464434.501044,1778,2874,9_S
1789464434.503353,1931,2874,9_S
1789464434.508548,2256,2876,9_S
1789464434.5095701,2157,2876,9_S
1789464434.510025,2097,2877,9_S
1789464434.511209,2070,2877,9_S
1789464434.514455,2164,2878,9_S
1789464434.5171258,2210,2879,9_S
1789464434.517327,2119,2875,9_S
1789464434.51918,2053,2875,9_S
1789464434.5217438,2119,2878,9_S
1789464434.522795,2209,2876,9_S
1789464434.5248902,2087,2876,9_S
1789464434.527445,2011,2877,9_S
1789464434.529753,2033,2874,9_S
1789464434.530941,2101,2876,9_S
1789464434.533491,2015,2876,9_S
1789464434.53475,2061,2876,9_S
1789464434.536813,2126,2877,9_S
1789464434.5388741,2064,2876,9_S
1789464434.5409439,2013,2875,9_S
1789464434.543492,1920,2873,9_S
1789464434.544787,1993,2874,9_S
1789464434.550735,2165,2877,9_S
1789464434.551172,2180,2878,9_S
1789464434.552305,2076,2875,9_S
1789464434.553447,2051,2877,9_S
1789464434.5552452,2098,2876,9_S
1789464434.558232,2111,2876,9_S
1789464434.559936,2089,2876,9_S
1789464434.5619688,2031,2875,9_S
1789464434.563273,2000,2875,9_S
1789464434.5657458,1901,2876,9_S
1789464434.567067,2169,2877,9_S
1789464434.5691478,2320,2877,9_S
1789464434.571497,2141,2875,9_S
1789464434.572792,1849,2873,9_S
1789464434.575108,2084,2878,9_S
1789464434.577657,2158,2877,9_S
1789464434.578717,2120,2875,9_S
1789464434.581027,2128,2876,9_S
1789464434.583334,2146,2878,9_S
1789464434.5856462,1853,2874,9_S
1789464434.586946,1990,2874,9_S
1789464434.589503,2247,2878,9_S
1789464434.590709,2150,2876,9_S
1789464434.5953019,2094,2877,9_S
1789464434.595881,1931,2875,9_S
1789464434.597752,2189,2877,9_S
1789464434.598934,2137,2876,9_S
1789464434.6014788,2104,2875,9_S
1789464434.604655,2060,2876,9_S
1789464434.604884,2040,2877,9_S
1789464434.60747,1952,2876,9_S
1789464434.6097732,1937,2874,9_S
1789464434.6110651,1900,2875,9_S
1789464434.613622,2181,2877,9_S
1789464434.6148438,2250,2879,9_S
1789464434.617392,2077,2879,9_S
1789464434.619711,2182,2877,9_S
1789464434.620768,2141,2877,9_S
1789464434.6228201,2105,2877,9_S
1789464434.625377,2183,2877,9_S
1789464434.6276832,2019,2875,9_S
1789464434.628726,2066,2877,9_S
1789464434.631223,2109,2875,9_S
1789464434.6335301,2055,2876,9_S
1789464434.634613,2079,2878,9_S
1789464434.63908,2077,2876,9_S
1789464434.640233,2074,2876,9_S
1789464434.6418612,2070,2877,9_S
1789464434.643574,2016,2875,9_S
1789464434.645325,2053,2875,9_S
1789464434.647031,2088,2876,9_S
1789464434.648809,2013,2876,9_S
1789464434.651665,2011,2873,9_S
1789464434.652961,2128,2878,9_S
1789464434.6555169,2151,2876,9_S
1789464434.657621,2022,2876,9_S
1789464434.658923,2089,2877,9_S
1789464434.661473,2168,2879,9_S
1789464434.662763,2108,2876,9_S
1789464434.66505,2029,2876,9_S
1789464434.667354,2102,2878,9_S
1789464434.6686442,2098,2877,9_S
1789464434.6709492,2075,2876,9_S
1789464434.6732569,2050,2876,9_S
1789464434.674557,2031,2876,9_S
1789464434.677127,2060,2878,9_S
1789464434.679473,2082,2874,9_S
1789464434.6836228,2038,2876,9_S
1789464434.684042,1942,2875,9_S
1789464434.6865458,2064,2876,9_S
1789464434.686717,2217,2877,9_S
1789464434.689873,2193,2877,9_S
1789464434.691456,2028,2876,9_S
1789464434.6931741,2016,2874,9_S
1789464434.695126,2115,2876,9_S
1789464434.696532,2174,2879,9_S
1789464434.6988428,2157,2878,9_S
1789464434.701403,2004,2875,9_S
1789464434.7026072,2110,2878,9_S
1789464434.705169,2122,2875,9_S
1789464434.707479,2021,2877,9_S
1789464434.708778,1987,2875,9_S
1789464434.710855,2054,2875,9_S
1789464434.713176,2127,2875,9_S
1789464434.7152681,2115,2876,9_S
1789464434.716563,1886,2875,9_S
1789464434.718647,2058,2878,9_S
1789464434.721236,2188,2876,9_S
1789464434.72259,2120,2876,9_S
1789464434.73019,2005,2877,9_S
1789464434.731862,2020,2875,9_S
1789464434.7320251,2072,2876,9_S
1789464434.732337,2134,2876,9_S
1789464434.7345762,2177,2877,9_S
1789464434.735361,2127,2877,9_S
1789464434.737639,2092,2877,9_S
1789464434.739857,1985,2876,9_S
1789464434.74207,1960,2874,9_S
1789464434.743274,2030,2875,9_S
1789464434.749363,2157,2879,9_S
1789464434.74992,2013,2876,9_S
1789464434.7510011,2015,2875,9_S
1789464434.752486,1996,2874,9_S
1789464434.7548769,2147,2877,9_S
1789464434.7557702,2152,2876,9_S
1789464434.758226,2133,2877,9_S
1789464434.7602549,2097,2876,9_S
1789464434.762656,2115,2879,9_S
1789464434.762698,2112,2876,9_S
1789464434.765024,2069,2875,9_S
1789464434.76735,2079,2876,9_S
1789464434.769423,2080,2876,9_S
1789464434.770723,2050,2876,9_S
1789464434.7728,2046,2875,9_S
1789464434.7748768,2000,2875,9_S
1789464434.7772028,2012,2874,9_S
1789464434.778553,2017,2876,9_S
1789464434.780873,2104,2876,9_S
1789464434.782967,2140,2877,9_S
1789464434.785281,2093,2878,9_S
1789464434.7878542,2099,2876,9_S
1789464434.788913,2123,2875,9_S
1789464434.791234,2051,2878,9_S
1789464434.79725,2074,2877,9_S
1789464434.798135,2056,2874,9_S
1789464434.800597,2096,2876,9_S
1789464434.800726,2092,2876,9_S
1789464434.801013,2027,2875,9_S
1789464434.802891,1944,2874,9_S
1789464434.806061,2118,2877,9_S
1789464434.808008,2051,2876,9_S
1789464434.810391,2037,2877,9_S
1789464434.810503,2110,2877,9_S
1789464434.81283,2133,2877,9_S
1789464434.8190951,2143,2879,9_S
1789464434.819668,2021,2876,9_S
1789464434.8201861,2009,2875,9_S
1789464434.823117,2146,2877,9_S
1789464434.82397,2152,2876,9_S
1789464434.8255942,2108,2876,9_S
1789464434.827053,2093,2878,9_S
1789464434.8290439,2109,2876,9_S
1789464434.830981,2126,2878,9_S
1789464434.833548,2045,2876,9_S
1789464434.834608,2047,2876,9_S
1789464434.8371782,2164,2878,9_S
1789464434.8393369,2091,2877,9_S
1789464434.841673,2017,2875,9_S
1789464434.842886,1991,2874,9_S
1789464434.845257,2037,2875,9_S
1789464434.846612,2059,2876,9_S
1789464434.849238,2078,2875,9_S
1789464434.850602,2106,2878,9_S
1789464434.853267,2128,2877,9_S
1789464434.854526,2088,2877,9_S
1789464434.856873,2031,2877,9_S
1789464434.859253,2046,2876,9_S
1789464434.861402,2088,2878,9_S
1789464434.862504,2112,2878,9_S
1789464434.868712,2132,2878,9_S
1789464434.869932,2057,2875,9_S
1789464434.871881,2100,2879,9_S
1789464434.873701,2130,2877,9_S
1789464434.874302,2049,2877,9_S
1789464434.8763719,2035,2877,9_S
1789464434.876885,1999,2874,9_S
1789464434.88046,2047,2875,9_S
1789464434.880809,2097,2875,9_S
1789464434.883216,1972,2875,9_S
1789464434.885484,1955,2876,9_S
1789464434.8867168,2145,2876,9_S
1789464434.891243,2235,2876,9_S
1789464434.891798,2131,2877,9_S
1789464434.893854,2079,2876,9_S
1789464434.8957498,2113,2878,9_S
1789464434.897523,2111,2876,9_S
1789464434.899713,2108,2876,9_S
1789464434.9017391,2046,2876,9_S
1789464434.9039528,2057,2877,9_S
1789464434.9050822,2124,2877,9_S
1789464434.9064572,2085,2876,9_S
1789464434.909021,1952,2874,9_S
1789464434.911171,2062,2877,9_S
1789464434.913513,2084,2877,9_S
1789464434.914575,2129,2876,9_S
1789464434.917137,2021,2874,9_S
1789464434.918436,2125,2877,9_S
1789464434.920987,2155,2877,9_S
1789464434.923553,2078,2876,9_S
1789464434.924608,2036,2877,9_S
1789464434.9271722,2006,2875,9_S
1789464434.9284742,2096,2876,9_S
1789464434.9307961,2152,2879,9_S
1789464434.933363,2085,2876,9_S
1789464434.934658,2070,2879,9_S
1789464434.941018,2078,2876,9_S
1789464434.9415438,2109,2876,9_S
1789464434.94199,2042,2876,9_S
1789464434.944046,2083,2877,9_S
1789464434.945803,2003,2876,9_S
1789464434.947446,1985,2876,9_S
1789464434.949718,2120,2876,9_S
1789464434.951675,2090,2879,9_S
1789464434.953977,2081,2877,9_S
1789464434.9552808,2094,2877,9_S
1789464434.9565802,2039,2876,9_S
1789464434.961913,2046,2877,9_S
1789464434.962017,2085,2877,9_S
1789464434.96427,2090,2876,9_S
1789464434.966248,2090,2876,9_S
1789464434.9693692,2009,2875,9_S
1789464434.969495,2077,2877,9_S
1789464434.9714382,2118,2876,9_S
1789464434.973637,2049,2876,9_S
1789464434.974764,2078,2876,9_S
1789464434.977043,2027,2875,9_S
1789464434.979538,2070,2876,9_S
1789464434.9806,2136,2878,9_S
1789464434.9831538,2085,2875,9_S
1789464434.984449,2112,2877,9_S
1789464434.986762,2118,2876,9_S
1789464434.9893188,2106,2876,9_S
1789464434.9904268,2050,2876,9_S
1789464434.992673,2044,2877,9_S
1789464434.9952261,2069,2875,9_S
1789464434.9972851,2085,2877,9_S
1789464434.998512,2094,2876,9_S
1789464435.001036,2069,2878,9_S
1789464435.002458,2078,2877,9_S
1789464435.0087209,2097,2876,9_S
1789464435.009611,2044,2877,9_S
1789464435.011221,2017,2874,9_S
1789464435.011403,2072,2875,9_S
1789464435.013563,2108,2876,9_S
1789464435.0147998,2062,2875,9_S
1789464435.0164301,2044,2875,9_S
1789464435.02027,2086,2876,9_S
1789464435.021333,2103,2876,9_S
1789464435.022628,2060,2877,9_S
1789464435.0248451,2057,2876,9_S
1789464435.027176,2077,2877,9_S
1789464435.028471,2071,2876,9_S
1789464435.030783,2061,2876,9_S
1789464435.033014,2039,2876,9_S
1789464435.03534,2056,2875,9_S
1789464435.036639,2110,2876,9_S
1789464435.038957,2144,2876,9_S
1789464435.041184,2062,2876,9_S
1789464435.042482,2053,2876,9_S
1789464435.044787,2096,2877,9_S
1789464435.046863,2110,2877,9_S
1789464435.049175,2094,2875,9_S
1789464435.0547001,2064,2875,9_S
1789464435.054858,2110,2878,9_S
1789464435.055278,2136,2877,9_S
1789464435.0572312,2087,2876,9_S
1789464435.059231,2062,2876,9_S
1789464435.0608902,2095,2878,9_S
1789464435.062519,2134,2878,9_S
1789464435.0645068,2134,2878,9_S
1789464435.067426,2077,2876,9_S
1789464435.068481,2103,2878,9_S
1789464435.07066,2134,2877,9_S
1789464435.07298,2129,2876,9_S
1789464435.075294,2055,2876,9_S
1789464435.0765052,2086,2876,9_S
1789464435.079062,2113,2878,9_S
1789464435.080419,2131,2878,9_S
1789464435.082984,2109,2876,9_S
1789464435.085309,2112,2877,9_S
1789464435.086604,2117,2877,9_S
1789464435.088673,2103,2878,9_S
1789464435.091224,2087,2876,9_S
1789464435.093529,2077,2877,9_S
1789464435.094746,2091,2877,9_S
1789464435.097137,2131,2878,9_S
1789464435.101384,2113,2876,9_S
1789464435.102187,2116,2879,9_S
1789464435.104012,2148,2877,9_S
1789464435.1064441,2142,2876,9_S
1789464435.1066308,2086,2877,9_S
1789464435.109663,2066,2876,9_S
1789464435.111666,2116,2877,9_S
1789464435.113919,2159,2877,9_S
1789464435.115227,2121,2878,9_S
1789464435.117336,2071,2874,9_S
1789464435.121954,2077,2877,9_S
1789464435.12319,2135,2878,9_S
1789464435.124896,2134,2877,9_S
1789464435.125176,2088,2876,9_S
1789464435.127164,2101,2876,9_S
1789464435.1292942,2118,2876,9_S
1789464435.131017,2071,2875,9_S
1789464435.133125,2106,2875,9_S
1789464435.135335,2108,2877,9_S
1789464435.13648,2115,2877,9_S
1789464435.1388018,2094,2876,9_S
1789464435.141212,2072,2876,9_S
1789464435.1424608,2063,2877,9_S
1789464435.1450372,2107,2876,9_S
1789464435.1464791,2115,2878,9_S
1789464435.148855,2106,2876,9_S
1789464435.151197,2083,2877,9_S
1789464435.1535769,2121,2877,9_S
1789464435.154782,2125,2876,9_S
1789464435.156883,2095,2876,9_S
1789464435.1590211,2070,2877,9_S
1789464435.161508,2029,2874,9_S
1789464435.162587,2074,2875,9_S
1789464435.165039,2082,2875,9_S
1789464435.167385,2060,2875,9_S
1789464435.1732302,2057,2878,9_S
1789464435.174268,2102,2877,9_S
1789464435.174356,2081,2876,9_S
1789464435.174826,2134,2877,9_S
1789464435.178433,2155,2877,9_S
1789464435.178965,2101,2878,9_S
1789464435.18045,2059,2875,9_S
1789464435.184381,2052,2875,9_S
1789464435.18464,2101,2879,9_S
1789464435.1868968,2106,2877,9_S
1789464435.188373,2092,2876,9_S
1789464435.194867,2041,2877,9_S
1789464435.1954062,2040,2876,9_S
1789464435.196769,2070,2878,9_S
1789464435.1982772,2066,2875,9_S
1789464435.198496,2070,2875,9_S
1789464435.201802,2096,2875,9_S
1789464435.206511,2150,2878,9_S
1789464435.206681,2116,2876,9_S
1789464435.207099,2145,2875,9_S
1789464435.209575,2038,2877,9_S
1789464435.2106738,2015,2874,9_S
1789464435.213003,2044,2874,9_S
1789464435.2143512,2108,2877,9_S
1789464435.216691,2085,2875,9_S
1789464435.218843,2072,2877,9_S
1789464435.2212338,2071,2876,9_S
1789464435.222431,2047,2876,9_S
1789464435.2245262,2028,2876,9_S
1789464435.22689,2042,2875,9_S
1789464435.228371,2090,2876,9_S
1789464435.230939,2124,2876,9_S
1789464435.233103,2075,2876,9_S
1789464435.234414,2044,2875,9_S
1789464435.2370172,2098,2877,9_S
1789464435.239251,2098,2876,9_S
1789464435.240444,2065,2875,9_S
1789464435.246058,2031,2876,9_S
1789464435.24656,2048,2876,9_S
1789464435.247565,2093,2876,9_S
1789464435.2495239,2143,2878,9_S
1789464435.252212,2102,2879,9_S
1789464435.252782,2067,2877,9_S
1789464435.255733,2078,2875,9_S
1789464435.257973,2094,2877,9_S
1789464435.260399,2029,2877,9_S
1789464435.2605891,2008,2874,9_S
1789464435.2631412,2059,2876,9_S
1789464435.2645361,2062,2877,9_S
1789464435.26909,2026,2875,9_S
1789464435.2695339,2017,2874,9_S
1789464435.2718909,2041,2876,9_S
1789464435.27351,2058,2876,9_S
1789464435.27497,2061,2877,9_S
1789464435.2776499,2085,2877,9_S
1789464435.279638,2165,2878,9_S
1789464435.282068,2071,2876,9_S
1789464435.283127,2042,2875,9_S
1789464435.284429,2053,2875,9_S
1789464435.2870028,2117,2878,9_S
1789464435.288307,2105,2876,9_S
1789464435.2906182,2056,2875,9_S
1789464435.292935,2081,2877,9_S
1789464435.29525,2052,2875,9_S
1789464435.296303,2064,2876,9_S
1789464435.2988532,2062,2875,9_S
1789464435.301156,2026,2875,9_S
1789464435.302449,2101,2878,9_S
1789464435.304817,2120,2877,9_S
1789464435.3071208,2084,2875,9_S
1789464435.308417,2046,2875,9_S
1789464435.310969,2055,2876,9_S
1789464435.312287,2094,2874,9_S
1789464435.317547,2085,2877,9_S
1789464435.31802,2028,2876,9_S
1789464435.3200278,2050,2874,9_S
1789464435.321569,2093,2876,9_S
1789464435.3231091,2101,2876,9_S
1789464435.3251462,2084,2875,9_S
1789464435.3270772,2058,2876,9_S
1789464435.329249,2063,2876,9_S
1789464435.3305678,2105,2876,9_S
1789464435.3328938,2089,2876,9_S
1789464435.3342469,2093,2876,9_S
1789464435.336803,2138,2877,9_S
1789464435.339108,2098,2876,9_S
1789464435.3403132,2053,2876,9_S
1789464435.342869,2022,2876,9_S
1789464435.3454232,2050,2875,9_S
1789464435.346474,2061,2876,9_S
1789464435.349024,2107,2875,9_S
1789464435.3512561,2078,2877,9_S
1789464435.352306,2138,2876,9_S
1789464435.354731,2071,2875,9_S
1789464435.357263,2046,2876,9_S
1789464435.358562,2036,2875,9_S
1789464435.363625,2059,2877,9_S
1789464435.364197,2077,2875,9_S
1789464435.3647308,2100,2876,9_S
1789464435.366722,2049,2877,9_S
1789464435.369911,2070,2878,9_S
1789464435.3720682,2116,2877,9_S
1789464435.374012,2072,2876,9_S
1789464435.376061,2070,2875,9_S
1789464435.3773818,2032,2875,9_S
1789464435.3784478,2071,2876,9_S
1789464435.3836002,2081,2877,9_S
1789464435.384026,2058,2876,9_S
1789464435.3862998,2071,2875,9_S
1789464435.386391,2089,2877,9_S
1789464435.389363,2106,2875,9_S
1789464435.3912508,2071,2876,9_S
1789464435.393096,2025,2876,9_S
1789464435.395184,2077,2878,9_S
1789464435.396488,2085,2874,9_S
1789464435.398814,2085,2876,9_S
1789464435.401133,2073,2876,9_S
1789464435.402275,2092,2877,9_S
1789464435.404829,2102,2876,9_S
1789464435.4073799,2057,2875,9_S
1789464435.408673,2048,2875,9_S
1789464435.411222,2064,2877,9_S
1789464435.4123368,2088,2875,9_S
1789464435.414892,2087,2875,9_S
1789464435.4172,2052,2875,9_S
1789464435.4184582,2103,2877,9_S
1789464435.420767,2118,2877,9_S
1789464435.423157,2089,2875,9_S
1789464435.424435,2048,2875,9_S
1789464435.4304059,2057,2877,9_S
1789464435.430506,2087,2874,9_S
1789464435.431297,2092,2876,9_S
1789464435.432896,2053,2876,9_S
1789464435.435943,2061,2875,9_S
1789464435.437999,2082,2876,9_S
1789464435.439735,2082,2876,9_S
1789464435.4419441,2057,2876,9_S
1789464435.443254,2055,2876,9_S
1789464435.444552,2054,2875,9_S
1789464435.4471061,2067,2876,9_S
1789464435.44946,2074,2876,9_S
1789464435.45052,2053,2875,9_S
1789464435.453013,2087,2878,9_S
1789464435.4543061,2080,2875,9_S
1789464435.456856,2061,2876,9_S
1789464435.459407,2038,2876,9_S
1789464435.4606998,2049,2874,9_S
1789464435.462999,2072,2876,9_S
1789464435.464292,2071,2876,9_S
1789464435.466597,2063,2876,9_S
1789464435.469147,2075,2877,9_S
1789464435.470203,2106,2876,9_S
1789464435.476146,2080,2875,9_S
1789464435.476912,2051,2876,9_S
1789464435.477349,2046,2876,9_S
1789464435.478854,2072,2875,9_S
1789464435.481944,2083,2876,9_S
1789464435.48398,2065,2875,9_S
1789464435.485752,2076,2878,9_S
1789464435.4874518,2114,2877,9_S
1789464435.4887512,2109,2876,9_S
1789464435.491321,2073,2877,9_S
1789464435.492616,2060,2876,9_S
1789464435.4947011,2080,2875,9_S
1789464435.497011,2104,2875,9_S
1789464435.498303,2080,2876,9_S
1789464435.500851,2060,2875,9_S
1789464435.50218,2084,2877,9_S
1789464435.504492,2102,2876,9_S
1789464435.506797,2044,2876,9_S
1789464435.5089128,2037,2877,9_S
1789464435.510984,2057,2875,9_S
1789464435.512277,2100,2877,9_S
1789464435.514333,2095,2876,9_S
1789464435.51665,2055,2876,9_S
1789464435.518805,2088,2877,9_S
1789464435.5223522,2114,2876,9_S
1789464435.522881,2104,2877,9_S
1789464435.525358,2064,2876,9_S
1789464435.5272682,2059,2877,9_S
1789464435.528901,2082,2875,9_S
1789464435.530591,2073,2877,9_S
1789464435.532366,2067,2876,9_S
1789464435.5352802,2036,2875,9_S
1789464435.53634,2110,2877,9_S
1789464435.538769,2087,2876,9_S
1789464435.540162,2068,2875,9_S
1789464435.5427241,2045,2877,9_S
1789464435.5452778,2045,2875,9_S
1789464435.546327,2082,2876,9_S
1789464435.548892,2089,2876,9_S
1789464435.551203,2083,2876,9_S
1789464435.55229,2128,2876,9_S
1789464435.554601,2055,2875,9_S
1789464435.556669,2052,2877,9_S
1789464435.5589702,2070,2875,9_S
1789464435.5602639,2061,2876,9_S
1789464435.5625658,2121,2878,9_S
1789464435.5683289,2097,2876,9_S
1789464435.570184,2078,2876,9_S
1789464435.570281,2078,2878,9_S
1789464435.570514,2122,2877,9_S
1789464435.573966,2082,2876,9_S
1789464435.57679,2058,2876,9_S
1789464435.576926,2017,2874,9_S
1789464435.578877,2089,2875,9_S
1789464435.580181,2098,2876,9_S
1789464435.582252,2067,2875,9_S
1789464435.5848162,2049,2875,9_S
1789464435.586153,2121,2876,9_S
1789464435.5887082,2131,2877,9_S
1789464435.590946,2087,2876,9_S
1789464435.592135,2068,2877,9_S
1789464435.594385,2067,2874,9_S
1789464435.5969431,2084,2876,9_S
1789464435.599259,2045,2876,9_S
1789464435.6003149,2049,2875,9_S
1789464435.602425,2069,2876,9_S
1789464435.6047318,2052,2877,9_S
1789464435.60728,2085,2874,9_S
1789464435.608362,2044,2876,9_S
1789464435.612417,2076,2876,9_S
1789464435.612788,2081,2876,9_S
1789464435.614911,2146,2879,9_S
1789464435.616406,2114,2880,9_S
1789464435.6197839,2163,2878,9_S
1789464435.6212769,2155,2877,9_S
1789464435.623358,2119,2875,9_S
1789464435.6244218,2026,2877,9_S
1789464435.626878,2016,2874,9_S
1789464435.6291971,2052,2876,9_S
1789464435.630251,2085,2876,9_S
1789464435.6325572,2068,2875,9_S
1789464435.634857,2071,2878,9_S
1789464435.6371572,2041,2876,9_S
1789464435.638447,2032,2876,9_S
1789464435.640985,2057,2878,9_S
1789464435.642283,2115,2877,9_S
1789464435.6445959,2104,2878,9_S
1789464435.646902,2098,2876,9_S
1789464435.6492002,2071,2876,9_S
1789464435.6504939,2083,2877,9_S
1789464435.656087,2093,2876,9_S
1789464435.656476,2108,2875,9_S
1789464435.656904,2068,2876,9_S
1789464435.6590238,2043,2877,9_S
1789464435.66056,2080,2877,9_S
1789464435.663819,2134,2877,9_S
1789464435.665362,2076,2876,9_S
1789464435.667433,2036,2876,9_S
1789464435.6684852,2032,2875,9_S
1789464435.671048,2091,2876,9_S
1789464435.6723452,2108,2875,9_S
1789464435.6749032,2075,2876,9_S
1789464435.6769788,2068,2877,9_S
1789464435.678269,2089,2877,9_S
1789464435.6805718,2104,2875,9_S
1789464435.682882,2112,2879,9_S
1789464435.684172,2088,2877,9_S
1789464435.686487,2167,2878,9_S
1789464435.689079,2082,2876,9_S
1789464435.6901681,2008,2876,9_S
1789464435.692235,1995,2873,9_S
1789464435.694349,2036,2876,9_S
1789464435.6999161,2076,2875,9_S
1789464435.700777,2038,2874,9_S
1789464435.701199,2027,2875,9_S
1789464435.7027478,2121,2878,9_S
1789464435.704622,2067,2875,9_S
1789464435.7075908,2071,2877,9_S
1789464435.709208,2016,2874,9_S
1789464435.711176,2051,2875,9_S
1789464435.7122371,2052,2876,9_S
1789464435.7147899,2135,2877,9_S
1789464435.717119,2057,2874,9_S
1789464435.718415,1995,2874,9_S
1789464435.720526,2106,2877,9_S
1789464435.7225971,1964,2873,9_S
1789464435.725148,2031,2877,9_S
1789464435.7264378,2168,2877,9_S
1789464435.728745,2170,2878,9_S
1789464435.7310588,2126,2878,9_S
1789464435.732352,2130,2878,9_S
1789464435.734657,2124,2877,9_S
1789464435.737206,2161,2878,9_S
1789464435.738249,2099,2876,9_S
1789464435.744374,2075,2877,9_S
1789464435.744494,2063,2877,9_S
1789464435.744941,2023,2874,9_S
1789464435.746484,2011,2875,9_S
1789464435.7496982,1965,2876,9_S
1789464435.751362,2019,2875,9_S
1789464435.7530081,2088,2876,9_S
1789464435.7549272,2164,2877,9_S
1789464435.756224,2121,2877,9_S
1789464435.7587352,1931,2875,9_S
1789464435.761065,2010,2875,9_S
1789464435.7621608,1980,2875,9_S
1789464435.764235,2324,2878,9_S
1789464435.766784,2168,2879,9_S
1789464435.769331,2080,2878,9_S
1789464435.770624,1943,2874,9_S
1789464435.772933,1868,2874,9_S
1789464435.7741618,2181,2877,9_S
1789464435.776717,2250,2878,9_S
1789464435.778933,2166,2878,9_S
1789464435.780229,1956,2875,9_S
1789464435.782778,1929,2874,9_S
1789464435.7842078,2207,2879,9_S
1789464435.788385,2355,2877,9_S
1789464435.7891269,2255,2878,9_S
1789464435.790973,2042,2877,9_S
1789464435.792492,2010,2875,9_S
1789464435.7957199,1963,2875,9_S
1789464435.797278,2085,2876,9_S
1789464435.798917,2152,2877,9_S
1789464435.800977,1914,2874,9_S
1789464435.8032892,1934,2874,9_S
1789464435.8045812,2073,2877,9_S
1789464435.806653,2099,2878,9_S
1789464435.8087192,2034,2877,9_S
1789464435.811025,2089,2878,9_S
1789464435.812074,2075,2875,9_S
1789464435.8141289,1892,2876,9_S
1789464435.82436,1833,2875,9_S
1789464435.826289,2021,2875,9_S
1789464435.826335,2228,2877,9_S
1789464435.851625,2309,2876,9_S
1789464435.85181,2181,2876,9_S
1789464435.851935,2109,2877,9_S
1789464435.8520231,2169,2877,9_S
1789464435.852134,2201,2876,9_S
1789464435.8522072,2125,2875,9_S
1789464435.852282,2118,2875,9_S
1789464435.852352,2087,2878,9_S
1789464435.852422,2045,2875,9_S
1789464435.852486,2101,2875,9_S
1789464435.85252,1990,2876,9_S
1789464435.852551,1989,2874,9_S
1789464435.852582,2125,2876,9_S
1789464435.8526132,2104,2876,9_S
1789464435.852643,2074,2877,9_S
1789464435.852673,2090,2878,9_S
1789464435.855016,1970,2876,9_S
1789464435.8604832,1948,2876,9_S
1789464435.8605618,1855,2874,9_S
1789464435.860628,1933,2875,9_S
1789464435.8620648,2131,2878,9_S
1789464435.8646998,2142,2878,9_S
1789464435.8660622,2112,2877,9_S
1789464435.868642,2111,2877,9_S
1789464435.8711958,2142,2878,9_S
1789464435.872706,2074,2877,9_S
1789464435.8767722,1905,2874,9_S
1789464435.877294,2014,2875,9_S
1789464435.879644,2036,2876,9_S
1789464435.8818612,2001,2875,9_S
1789464435.883252,2029,2876,9_S
1789464435.885095,2105,2878,9_S
1789464435.886796,2185,2876,9_S
1789464435.888926,2203,2877,9_S
1789464435.890246,2170,2876,9_S
1789464435.8928351,2124,2877,9_S
1789464435.896191,2046,2876,9_S
1789464435.8973958,1882,2876,9_S
1789464435.899332,2025,2875,9_S
1789464435.9012952,2139,2877,9_S
1789464435.90287,2259,2877,9_S
1789464435.9045062,2063,2876,9_S
1789464435.906194,1988,2876,9_S
1789464435.9095309,2114,2878,9_S
1789464435.9105961,2189,2877,9_S
1789464435.913175,1998,2876,9_S
1789464435.914475,2140,2875,9_S
1789464435.917032,2129,2878,9_S
1789464435.9183218,2107,2877,9_S
1789464435.9206212,2058,2875,9_S
1789464435.922685,2039,2876,9_S
1789464435.9250188,2017,2877,9_S
1789464435.926202,2099,2875,9_S
1789464435.928519,2251,2880,9_S
1789464435.930946,2227,2879,9_S
1789464435.932241,2127,2878,9_S
1789464435.934677,1964,2874,9_S
1789464435.93605,1874,2874,9_S
1789464435.941408,1836,2874,9_S
1789464435.941896,2038,2876,9_S
1789464435.942334,2187,2877,9_S
1789464435.944171,2169,2876,9_S
1789464435.94733,2121,2878,9_S
1789464435.949013,2156,2877,9_S
1789464435.950576,2100,2878,9_S
1789464435.9525461,2166,2878,9_S
1789464435.955123,1902,2875,9_S
1789464435.956428,1675,2875,9_S
1789464435.958557,2157,2877,9_S
1789464435.96111,2480,2877,9_S
1789464435.962409,2163,2877,9_S
1789464435.964962,1744,2874,9_S
1789464435.966254,1832,2875,9_S
1789464435.9688032,2319,2879,9_S
1789464435.970094,2465,2878,9_S
1789464435.972641,2233,2877,9_S
1789464435.9751968,2085,2877,9_S
1789464435.976494,1958,2875,9_S
1789464435.978567,2018,2874,9_S
1789464435.980868,2104,2874,9_S
1789464435.986055,2120,2878,9_S
1789464435.986822,2081,2874,9_S
1789464435.987245,1930,2873,9_S
1789464435.990082,1917,2874,9_S
1789464435.990835,2080,2878,9_S
1789464435.993215,2214,2877,9_S
1789464435.994994,1980,2874,9_S
1789464435.997141,2076,2878,9_S
1789464435.998184,2175,2877,9_S
1789464436.000494,2127,2879,9_S
1789464436.00305,2144,2877,9_S
1789464436.004096,2177,2876,9_S
1789464436.006643,2073,2878,9_S
1789464436.0091221,2057,2876,9_S
1789464436.0104241,2112,2877,9_S
1789464436.012984,2078,2878,9_S
1789464436.01406,1970,2875,9_S
1789464436.016613,1973,2875,9_S
1789464436.018954,1978,2876,9_S
1789464436.02004,2048,2875,9_S
1789464436.022283,2148,2878,9_S
1789464436.024831,2201,2877,9_S
1789464436.0294762,2064,2876,9_S
1789464436.030308,1902,2875,9_S
1789464436.030734,2085,2876,9_S
1789464436.0321229,2154,2878,9_S
1789464436.034742,2047,2875,9_S
1789464436.036854,2135,2877,9_S
1789464436.038458,2218,2877,9_S
1789464436.040561,2149,2877,9_S
1789464436.042874,2030,2877,9_S
1789464436.045088,1857,2874,9_S
1789464436.046148,1981,2875,9_S
1789464436.048272,2215,2878,9_S
1789464436.050339,2231,2879,9_S
1789464436.052653,2106,2876,9_S
1789464436.055083,2006,2876,9_S
1789464436.056374,1946,2874,9_S
1789464436.0589252,2139,2877,9_S
1789464436.060035,2134,2878,9_S
1789464436.0625842,2153,2878,9_S
1789464436.065134,2115,2878,9_S
1789464436.0661912,1970,2875,9_S
1789464436.068497,1985,2875,9_S
1789464436.0731251,2116,2878,9_S
1789464436.073576,2142,2877,9_S
1789464436.075708,2016,2878,9_S
1789464436.077447,1876,2875,9_S
1789464436.078967,1978,2875,9_S
1789464436.0806441,2110,2875,9_S
1789464436.082405,1960,2875,9_S
1789464436.084592,2139,2878,9_S
1789464436.08693,2300,2878,9_S
1789464436.0882208,2253,2877,9_S
1789464436.090335,2104,2877,9_S
1789464436.092872,2078,2876,9_S
1789464436.095236,2101,2875,9_S
1789464436.0965278,2089,2877,9_S
1789464436.0989282,2113,2877,9_S
1789464436.100044,2043,2875,9_S
1789464436.1022878,2078,2878,9_S
1789464436.104838,2027,2876,9_S
1789464436.107143,1991,2875,9_S
1789464436.108188,1904,2874,9_S
1789464436.110733,2046,2876,9_S
1789464436.1130419,2199,2878,9_S
1789464436.117853,2149,2878,9_S
1789464436.118293,1992,2875,9_S
1789464436.118766,1940,2874,9_S
1789464436.1204638,1960,2874,9_S
1789464436.123296,2094,2878,9_S
1789464436.125222,2271,2877,9_S
1789464436.1268952,2220,2878,9_S
1789464436.129051,2082,2878,9_S
1789464436.130105,2113,2875,9_S
1789464436.132662,2002,2875,9_S
1789464436.13501,2038,2876,9_S
1789464436.136308,2104,2879,9_S
1789464436.138857,2108,2876,9_S
1789464436.140147,2053,2876,9_S
1789464436.142463,1970,2877,9_S
1789464436.144902,1990,2874,9_S
1789464436.145953,2013,2874,9_S
1789464436.148036,2161,2879,9_S
1789464436.150341,2113,2876,9_S
1789464436.152649,2121,2879,9_S
1789464436.154774,2056,2877,9_S
1789464436.155949,2133,2877,9_S
1789464436.158259,2023,2876,9_S
1789464436.1619442,1971,2875,9_S
1789464436.1620731,2098,2877,9_S
1789464436.166246,2181,2879,9_S
1789464436.16661,2129,2877,9_S
1789464436.168181,2059,2875,9_S
1789464436.171121,2024,2875,9_S
1789464436.1731079,2145,2877,9_S
1789464436.174408,2108,2877,9_S
1789464436.176973,2075,2877,9_S
1789464436.1781209,2010,2875,9_S
1789464436.1804318,1975,2875,9_S
1789464436.18298,2050,2876,9_S
1789464436.184026,2052,2874,9_S
1789464436.18634,2077,2878,9_S
1789464436.188649,2116,2876,9_S
1789464436.1899378,2083,2875,9_S
1789464436.192497,2120,2876,9_S
1789464436.194728,1983,2875,9_S
1789464436.196026,2057,2876,9_S
1789464436.198581,2143,2876,9_S
1789464436.200782,2281,2879,9_S
1789464436.2053492,2078,2877,9_S
1789464436.206194,2072,2875,9_S
1789464436.206959,1988,2876,9_S
1789464436.208481,2034,2877,9_S
1789464436.21025,1986,2875,9_S
1789464436.213247,1984,2877,9_S
1789464436.2149959,2097,2876,9_S
1789464436.217039,2141,2878,9_S
1789464436.2181451,2110,2877,9_S
1789464436.220557,2089,2875,9_S
1789464436.22264,2104,2876,9_S
1789464436.223935,2130,2877,9_S
1789464436.226243,2068,2877,9_S
1789464436.228543,2100,2875,9_S
1789464436.23074,2125,2878,9_S
1789464436.23203,2067,2874,9_S
1789464436.234576,2021,2875,9_S
1789464436.236894,2082,2878,9_S
1789464436.2379541,2097,2876,9_S
1789464436.240254,1979,2874,9_S
1789464436.242671,2044,2877,9_S
1789464436.243916,2070,2876,9_S
1789464436.246304,1989,2876,9_S
1789464436.250004,2000,2876,9_S
1789464436.250745,2125,2879,9_S
1789464436.252467,2191,2877,9_S
1789464436.254561,2111,2876,9_S
1789464436.2561421,2136,2877,9_S
1789464436.2590342,2180,2878,9_S
1789464436.261185,2077,2874,9_S
1789464436.2622452,2110,2876,9_S
1789464436.264477,2153,2878,9_S
1789464436.2668102,2034,2876,9_S
1789464436.2681038,2044,2877,9_S
1789464436.270654,2036,2875,9_S
1789464436.272971,2093,2876,9_S
1789464436.274018,2051,2877,9_S
1789464436.276565,2008,2875,9_S
1789464436.277946,2065,2876,9_S
1789464436.2805068,2081,2878,9_S
1789464436.283063,2052,2875,9_S
1789464436.284288,2052,2874,9_S
1789464436.286837,2090,2877,9_S
1789464436.288129,1963,2876,9_S
1789464436.2941031,2109,2877,9_S
1789464436.2948742,2122,2877,9_S
1789464436.2953348,2096,2878,9_S
1789464436.296911,2104,2875,9_S
1789464436.298423,2114,2876,9_S
1789464436.301898,2053,2875,9_S
1789464436.303545,2072,2877,9_S
1789464436.3055308,2172,2877,9_S
1789464436.306598,2117,2876,9_S
1789464436.307946,2022,2876,9_S
1789464436.310258,2014,2874,9_S
1789464436.3128169,2050,2876,9_S
1789464436.314111,2099,2876,9_S
1789464436.316662,2050,2876,9_S
1789464436.317954,2061,2874,9_S
1789464436.320488,1988,2874,9_S
1789464436.323018,2062,2876,9_S
1789464436.3242612,2109,2876,9_S
1789464436.326793,2106,2876,9_S
1789464436.327907,2102,2878,9_S
1789464436.3302138,2072,2875,9_S
1789464436.332778,2021,2877,9_S
1789464436.3338308,2051,2876,9_S
1789464436.339347,2121,2877,9_S
1789464436.34126,2170,2876,9_S
1789464436.341482,2023,2875,9_S
1789464436.3433459,1958,2873,9_S
1789464436.346294,2015,2876,9_S
1789464436.3465421,2171,2878,9_S
1789464436.348381,2153,2878,9_S
1789464436.350013,2067,2875,9_S
1789464436.3522508,2117,2878,9_S
1789464436.354314,2120,2877,9_S
1789464436.356651,2095,2878,9_S
1789464436.357953,2040,2876,9_S
1789464436.360019,2024,2875,9_S
1789464436.362296,2068,2876,9_S
1789464436.364612,2105,2876,9_S
1789464436.366851,2080,2875,9_S
1789464436.368145,2017,2875,9_S
1789464436.370692,2088,2877,9_S
1789464436.3719091,2039,2876,9_S
1789464436.374224,2037,2875,9_S
1789464436.376775,2075,2878,9_S
1789464436.378064,2050,2876,9_S
1789464436.383969,2100,2876,9_S
1789464436.384449,2065,2876,9_S
1789464436.384844,2050,2875,9_S
1789464436.3874502,2115,2877,9_S
1789464436.38899,2159,2876,9_S
1789464436.3908422,2063,2875,9_S
1789464436.392697,1997,2874,9_S
1789464436.394635,2052,2875,9_S
1789464436.3958101,2103,2876,9_S
1789464436.398116,2095,2876,9_S
1789464436.400448,2089,2877,9_S
1789464436.401823,2129,2876,9_S
1789464436.404376,2134,2876,9_S
1789464436.406736,2085,2875,9_S
1789464436.407959,2055,2876,9_S
1789464436.410261,2064,2874,9_S
1789464436.412561,2103,2876,9_S
1789464436.413794,2091,2875,9_S
1789464436.416352,2044,2874,9_S
1789464436.418901,2022,2874,9_S
1789464436.420191,2049,2875,9_S
1789464436.4227378,2106,2877,9_S
1789464436.4273221,2060,2876,9_S
1789464436.427843,2098,2876,9_S
1789464436.428283,2126,2877,9_S
1789464436.430151,2148,2879,9_S
1789464436.4329689,2126,2878,9_S
1789464436.434995,2061,2875,9_S
1789464436.436689,2104,2877,9_S
1789464436.438726,2084,2876,9_S
1789464436.440031,2058,2876,9_S
1789464436.442344,2056,2877,9_S
1789464436.444662,2049,2877,9_S
1789464436.4459178,2078,2875,9_S
1789464436.448469,2029,2875,9_S
1789464436.4497972,2022,2876,9_S
1789464436.45188,2112,2878,9_S
1789464436.4544342,2176,2877,9_S
1789464436.455889,2102,2877,9_S
1789464436.458444,2075,2876,9_S
1789464436.4598,2022,2874,9_S
1789464436.4621089,2046,2876,9_S
1789464436.464415,2071,2876,9_S
1789464436.466593,2037,2875,9_S
1789464436.46793,2057,2875,9_S
1789464436.4718962,2115,2876,9_S
1789464436.4719832,2098,2877,9_S
1789464436.473997,2018,2876,9_S
1789464436.477094,2069,2877,9_S
1789464436.479073,2125,2878,9_S
1789464436.4810328,2129,2879,9_S
1789464436.482671,2082,2877,9_S
1789464436.483978,2043,2876,9_S
1789464436.486387,2097,2877,9_S
1789464436.488937,2092,2878,9_S
1789464436.4902332,2043,2876,9_S
1789464436.492785,2044,2876,9_S
1789464436.493908,2032,2874,9_S
1789464436.496077,2088,2875,9_S
1789464436.498621,2069,2876,9_S
1789464436.499797,2060,2877,9_S
1789464436.502341,2079,2878,9_S
1789464436.504885,2076,2876,9_S
1789464436.506175,2070,2875,9_S
1789464436.5087192,2086,2875,9_S
1789464436.5100071,2063,2877,9_S
1789464436.5154161,2046,2875,9_S
1789464436.515511,2068,2876,9_S
1789464436.5176058,2064,2876,9_S
1789464436.519043,2049,2875,9_S
1789464436.520691,2105,2877,9_S
1789464436.5222049,2082,2876,9_S
1789464436.523912,2069,2876,9_S
1789464436.526697,2070,2877,9_S
1789464436.5279858,2069,2878,9_S
1789464436.5305312,2023,2877,9_S
1789464436.531824,2078,2876,9_S
1789464436.533896,2050,2875,9_S
1789464436.5363772,2083,2878,9_S
1789464436.5389209,2100,2876,9_S
1789464436.540102,2014,2875,9_S
1789464436.5424151,2048,2876,9_S
1789464436.544729,2058,2877,9_S
1789464436.54579,2113,2878,9_S
1789464436.5478542,2128,2878,9_S
1789464436.550164,2079,2877,9_S
1789464436.552288,2090,2878,9_S
1789464436.557131,2134,2877,9_S
1789464436.557889,2086,2877,9_S
1789464436.557987,2047,2877,9_S
1789464436.560671,2034,2874,9_S
1789464436.5625138,2078,2875,9_S
1789464436.5639522,2068,2875,9_S
1789464436.56752,2059,2876,9_S
1789464436.568824,2043,2875,9_S
1789464436.570112,2108,2877,9_S
1789464436.5724218,2109,2876,9_S
1789464436.5747771,2068,2875,9_S
1789464436.576076,2060,2877,9_S
1789464436.578379,2091,2877,9_S
1789464436.58068,2072,2875,9_S
1789464436.581842,2090,2876,9_S
1789464436.584388,2048,2875,9_S
1789464436.58669,2079,2877,9_S
1789464436.587978,2117,2877,9_S
1789464436.590087,2069,2875,9_S
1789464436.5923982,2053,2875,9_S
1789464436.593808,2042,2874,9_S
1789464436.5960388,2075,2876,9_S
1789464436.5995,2106,2876,9_S
1789464436.6018739,2086,2875,9_S
1789464436.603014,2071,2877,9_S
1789464436.6041868,2129,2875,9_S
1789464436.606535,2101,2876,9_S
1789464436.608224,2045,2878,9_S
1789464436.610125,2014,2874,9_S
1789464436.612437,2086,2876,9_S
1789464436.6147368,2142,2879,9_S
1789464436.616029,2089,2875,9_S
1789464436.618338,2053,2875,9_S
1789464436.620882,2095,2877,9_S
1789464436.621923,2101,2875,9_S
1789464436.624471,2086,2876,9_S
1789464436.626775,2056,2878,9_S
1789464436.6278322,2061,2874,9_S
1789464436.630135,2049,2876,9_S
1789464436.6321979,2039,2876,9_S
1789464436.634741,2049,2875,9_S
1789464436.6359282,2110,2876,9_S
1789464436.641418,2121,2875,9_S
1789464436.6418219,2096,2876,9_S
1789464436.642299,2044,2875,9_S
1789464436.643832,2069,2877,9_S
1789464436.648265,2097,2875,9_S
1789464436.6483681,2101,2876,9_S
1789464436.650136,2055,2875,9_S
1789464436.652863,2082,2878,9_S
1789464436.65405,2101,2878,9_S
1789464436.656611,2118,2876,9_S
1789464436.657913,2061,2876,9_S
1789464436.660467,2045,2876,9_S
1789464436.661759,2071,2876,9_S
1789464436.664306,2095,2876,9_S
1789464436.6657019,2086,2875,9_S
1789464436.6678789,2069,2875,9_S
1789464436.6702101,2110,2876,9_S
1789464436.6723258,2089,2875,9_S
1789464436.674626,2055,2875,9_S
1789464436.675918,2042,2876,9_S
1789464436.6782248,2096,2877,9_S
1789464436.683011,2083,2876,9_S
1789464436.683404,2099,2876,9_S
1789464436.6854389,2066,2875,9_S
1789464436.686778,2089,2878,9_S
1789464436.688704,2094,2876,9_S
1789464436.691584,2046,2876,9_S
1789464436.691828,2053,2875,9_S
1789464436.6944158,2102,2877,9_S
1789464436.696726,2116,2877,9_S
1789464436.697776,2136,2880,9_S
1789464436.7000902,2104,2878,9_S
1789464436.7022898,2041,2875,9_S
1789464436.7048478,2109,2878,9_S
1789464436.706135,2093,2877,9_S
1789464436.708678,2053,2877,9_S
1789464436.709735,2043,2878,9_S
1789464436.712053,2067,2875,9_S
1789464436.714375,2091,2875,9_S
1789464436.715679,2075,2877,9_S
1789464436.718225,2058,2875,9_S
1789464436.7205372,2143,2878,9_S
1789464436.725049,2120,2876,9_S
1789464436.725457,2081,2876,9_S
1789464436.726811,2044,2875,9_S
1789464436.728252,2063,2874,9_S
1789464436.731327,2067,2874,9_S
1789464436.7330298,2086,2876,9_S
1789464436.735028,2046,2876,9_S
1789464436.736326,2096,2877,9_S
1789464436.737683,2117,2877,9_S
1789464436.74,2082,2875,9_S
1789464436.742305,2039,2875,9_S
1789464436.743646,2049,2874,9_S
1789464436.745882,2075,2875,9_S
1789464436.748112,2099,2875,9_S
1789464436.750658,2032,2875,9_S
1789464436.751945,2056,2878,9_S
1789464436.754488,2073,2875,9_S
1789464436.756546,2071,2874,9_S
1789464436.757833,2052,2875,9_S
1789464436.760382,2060,2877,9_S
1789464436.762744,2067,2876,9_S
1789464436.7666938,2081,2877,9_S
1789464436.767073,2085,2876,9_S
1789464436.768726,2054,2874,9_S
1789464436.770418,2105,2876,9_S
1789464436.772172,2103,2876,9_S
1789464436.774996,2063,2876,9_S
1789464436.776878,2051,2876,9_S
1789464436.778049,2063,2874,9_S
1789464436.78053,2098,2876,9_S
1789464436.781832,2104,2876,9_S
1789464436.7841961,2063,2876,9_S
1789464436.786742,2090,2877,9_S
1789464436.787904,2111,2876,9_S
1789464436.790451,2092,2875,9_S
1789464436.7917461,2045,2876,9_S
1789464436.793869,2078,2876,9_S
1789464436.796179,2074,2875,9_S
1789464436.7982562,2110,2875,9_S
1789464436.8007061,2080,2876,9_S
1789464436.801749,2083,2877,9_S
1789464436.8042939,2103,2877,9_S
1789464436.808338,2113,2877,9_S
1789464436.808741,2075,2876,9_S
1789464436.810699,2047,2877,9_S
1789464436.8124611,2062,2875,9_S
1789464436.813926,2083,2875,9_S
1789464436.8169432,2092,2876,9_S
1789464436.8188312,2064,2875,9_S
1789464436.820124,2110,2877,9_S
1789464436.822448,2101,2876,9_S
1789464436.8247628,2051,2876,9_S
1789464436.8258188,2061,2876,9_S
1789464436.8283641,2083,2878,9_S
1789464436.8304682,2099,2877,9_S
1789464436.832767,2066,2876,9_S
1789464436.834055,2061,2875,9_S
1789464436.8366,2100,2877,9_S
1789464436.837759,2088,2876,9_S
1789464436.840055,2079,2877,9_S
1789464436.842356,2041,2875,9_S
1789464436.843646,2032,2874,9_S
1789464436.8462021,2102,2875,9_S
1789464436.850029,2111,2876,9_S
1789464436.850535,2087,2876,9_S
1789464436.8525271,2078,2878,9_S
1789464436.854075,2125,2876,9_S
1789464436.855833,2095,2875,9_S
1789464436.85922,2076,2876,9_S
1789464436.861067,2019,2874,9_S
1789464436.862369,2066,2876,9_S
1789464436.864697,2092,2876,9_S
1789464436.865997,2098,2876,9_S
1789464436.868073,2030,2875,9_S
1789464436.870624,2075,2876,9_S
1789464436.871914,2142,2876,9_S
1789464436.8742259,2130,2876,9_S
1789464436.875542,2078,2876,9_S
1789464436.877612,2081,2878,9_S
1789464436.879841,2057,2876,9_S
1789464436.8821461,2087,2875,9_S
1789464436.884288,2028,2876,9_S
1789464436.886595,2047,2877,9_S
1789464436.887638,2096,2876,9_S
1789464436.893095,2053,2875,9_S
1789464436.893527,2017,2876,9_S
1789464436.89363,2060,2877,9_S
1789464436.895691,2132,2878,9_S
1789464436.8989482,2152,2878,9_S
1789464436.9005802,2087,2877,9_S
1789464436.9023008,2085,2878,9_S
1789464436.904326,2121,2877,9_S
1789464436.906393,2055,2876,9_S
1789464436.9076889,2056,2876,9_S
1789464436.9099991,2035,2876,9_S
1789464436.912294,2055,2875,9_S
1789464436.913583,2077,2876,9_S
1789464436.91589,2050,2876,9_S
1789464436.917956,2051,2876,9_S
1789464436.920265,2126,2877,9_S
1789464436.922581,2139,2876,9_S
1789464436.9237702,2095,2876,9_S
1789464436.926315,2062,2877,9_S
1789464436.928617,2051,2875,9_S
1789464436.929905,2080,2876,9_S
1789464436.935619,2066,2876,9_S
1789464436.9364202,2036,2875,9_S
1789464436.936512,2105,2877,9_S
1789464436.9383922,2099,2875,9_S
1789464436.9402502,2108,2875,9_S
1789464436.9443982,2097,2877,9_S
1789464436.944591,2084,2877,9_S
1789464436.9461398,2077,2874,9_S
1789464436.948697,2079,2874,9_S
1789464436.949996,2079,2876,9_S
1789464436.952555,2087,2878,9_S
1789464436.9538481,2097,2876,9_S
1789464436.956147,2076,2877,9_S
1789464436.958449,2022,2876,9_S
1789464436.959591,2007,2874,9_S
1789464436.961901,2072,2876,9_S
1789464436.964447,2099,2875,9_S
1789464436.9657369,2082,2875,9_S
1789464436.968043,2053,2875,9_S
1789464436.970589,2085,2877,9_S
1789464436.9716349,2102,2875,9_S
1789464436.9736981,2066,2876,9_S
1789464436.978076,2023,2876,9_S
1789464436.978555,2081,2879,9_S
1789464436.980588,2097,2876,9_S
1789464436.9824362,2091,2876,9_S
1789464436.983664,2065,2876,9_S
1789464436.987028,2102,2878,9_S
1789464436.988854,2118,2876,9_S
1789464436.99016,2048,2875,9_S
1789464436.99238,2053,2876,9_S
1789464436.993682,2022,2873,9_S
1789464436.99624,2083,2876,9_S
1789464436.998542,2095,2877,9_S
1789464436.999833,2092,2876,9_S
1789464437.0021381,2071,2877,9_S
1789464437.004436,2099,2876,9_S
1789464437.005724,2099,2876,9_S
1789464437.0080261,2063,2876,9_S
1789464437.010572,2052,2876,9_S
1789464437.011725,2048,2875,9_S
1789464437.014268,2104,2876,9_S
1789464437.0163531,2091,2876,9_S
1789464437.020159,2046,2875,9_S
1789464437.020931,2086,2877,9_S
1789464437.022557,2110,2876,9_S
1789464437.024255,2068,2875,9_S
1789464437.025732,2050,2877,9_S
1789464437.028571,2066,2875,9_S
1789464437.030634,2086,2875,9_S
1789464437.0316858,2091,2876,9_S
1789464437.033993,2055,2875,9_S
1789464437.0365472,2086,2876,9_S
1789464437.037741,2105,2876,9_S
1789464437.040288,2090,2876,9_S
1789464437.041576,2040,2876,9_S
1789464437.043637,2046,2875,9_S
1789464437.046182,2100,2876,9_S
1789464437.047552,2105,2876,9_S
1789464437.0496058,2072,2876,9_S
1789464437.05192,2069,2878,9_S
1789464437.0544682,2116,2876,9_S
1789464437.055757,2099,2876,9_S
1789464437.058132,2066,2875,9_S
1789464437.061609,2045,2876,9_S
1789464437.0617259,2080,2875,9_S
1789464437.065221,2096,2876,9_S
1789464437.067007,2082,2876,9_S
1789464437.0685718,2054,2874,9_S
1789464437.070024,2095,2877,9_S
1789464437.072072,2111,2877,9_S
1789464437.074595,2057,2874,9_S
1789464437.075896,2047,2876,9_S
1789464437.078457,2074,2878,9_S
1789464437.079751,2096,2877,9_S
1789464437.0823019,2078,2876,9_S
1789464437.0835981,2049,2876,9_S
1789464437.086148,2099,2877,9_S
1789464437.0883892,2113,2876,9_S
1789464437.089679,2098,2876,9_S
1789464437.092226,2043,2876,9_S
1789464437.094529,2037,2874,9_S
1789464437.095571,2081,2876,9_S
1789464437.097877,2103,2876,9_S
1789464437.0999522,2079,2877,9_S
1789464437.103887,2044,2874,9_S
1789464437.104317,2117,2877,9_S
1789464437.106307,2109,2877,9_S
1789464437.107737,2075,2876,9_S
1789464437.111007,2064,2876,9_S
1789464437.112538,2075,2875,9_S
1789464437.114471,2058,2876,9_S
1789464437.115763,2075,2876,9_S
1789464437.118089,2059,2875,9_S
1789464437.1193988,2093,2876,9_S
1789464437.121956,2114,2875,9_S
1789464437.124506,2065,2876,9_S
1789464437.1258051,2025,2876,9_S
1789464437.1282501,2050,2875,9_S
1789464437.1295402,2091,2876,9_S
1789464437.131849,2101,2875,9_S
1789464437.134155,2055,2875,9_S
1789464437.1354449,2053,2878,9_S
1789464437.137991,2110,2877,9_S
1789464437.1401322,2059,2875,9_S
1789464437.1414359,2041,2876,9_S
1789464437.145696,2042,2874,9_S
1789464437.146105,2089,2877,9_S
1789464437.1481972,2096,2876,9_S
1789464437.149966,2063,2876,9_S
1789464437.151752,2056,2875,9_S
1789464437.154471,2098,2877,9_S
1789464437.156388,2101,2876,9_S
1789464437.157444,2019,2875,9_S
1789464437.15958,2049,2877,9_S
1789464437.162146,2075,2875,9_S
1789464437.164447,2089,2876,9_S
1789464437.165667,2081,2876,9_S
1789464437.168213,2074,2875,9_S
1789464437.169503,2114,2877,9_S
1789464437.1718059,2090,2877,9_S
1789464437.174112,2047,2875,9_S
1789464437.175429,2061,2876,9_S
1789464437.177973,2061,2875,9_S
1789464437.180282,2107,2876,9_S
1789464437.181408,2081,2875,9_S
1789464437.1838982,2052,2876,9_S
1789464437.187773,2087,2876,9_S
1789464437.1884742,2122,2877,9_S
1789464437.190224,2095,2876,9_S
1789464437.191937,2055,2875,9_S
1789464437.193689,2063,2877,9_S
1789464437.196331,2103,2876,9_S
1789464437.1982038,2098,2877,9_S
1789464437.19951,2070,2876,9_S
1789464437.201788,2095,2877,9_S
1789464437.204097,2109,2876,9_S
1789464437.205448,2081,2876,9_S
1789464437.207995,2047,2877,9_S
1789464437.210311,2051,2875,9_S
1789464437.2116091,2070,2875,9_S
1789464437.214155,2095,2877,9_S
1789464437.2164218,2083,2877,9_S
1789464437.217731,2060,2875,9_S
1789464437.220038,2088,2878,9_S
1789464437.222087,2094,2876,9_S
1789464437.223417,2055,2876,9_S
1789464437.2259688,2053,2877,9_S
1789464437.2297852,2055,2875,9_S
1789464437.2298849,2080,2876,9_S
1789464437.232159,2090,2875,9_S
1789464437.233522,2060,2876,9_S
1789464437.236608,2084,2876,9_S
1789464437.238102,2100,2875,9_S
1789464437.239632,2070,2875,9_S
1789464437.242184,2030,2874,9_S
1789464437.2445061,2071,2878,9_S
1789464437.245812,2108,2878,9_S
1789464437.248183,2096,2875,9_S
1789464437.2494762,2076,2876,9_S
1789464437.25202,2075,2877,9_S
1789464437.25408,2099,2877,9_S
1789464437.255421,2102,2876,9_S
1789464437.2579682,2056,2876,9_S
1789464437.260484,2047,2877,9_S
1789464437.261527,2063,2875,9_S
1789464437.2638369,2096,2875,9_S
1789464437.266144,2075,2876,9_S
1789464437.267406,2041,2876,9_S
1789464437.272053,2069,2877,9_S
1789464437.27246,2113,2875,9_S
1789464437.2738812,2082,2875,9_S
1789464437.27636,2073,2876,9_S
1789464437.2784052,2079,2877,9_S
1789464437.279826,2099,2875,9_S
1789464437.282367,2080,2876,9_S
1789464437.283657,2040,2875,9_S
1789464437.2859771,2055,2878,9_S
1789464437.288542,2090,2877,9_S
1789464437.2898471,2069,2876,9_S
1789464437.292397,2076,2875,9_S
1789464437.2936928,2070,2877,9_S
1789464437.295991,2080,2875,9_S
1789464437.298306,2109,2875,9_S
1789464437.299595,2072,2877,9_S
1789464437.301908,2106,2877,9_S
1789464437.304458,2102,2876,9_S
1789464437.305747,2069,2875,9_S
1789464437.307808,2068,2876,9_S
1789464437.312564,2050,2877,9_S
1789464437.313035,2047,2875,9_S
1789464437.314969,2105,2879,9_S
1789464437.3162298,2103,2877,9_S
1789464437.3182971,2032,2874,9_S
1789464437.321085,2119,2877,9_S
1789464437.3230982,2116,2878,9_S
1789464437.324393,2129,2876,9_S
1789464437.325438,2081,2875,9_S
1789464437.32774,1973,2874,9_S
1789464437.330304,2063,2876,9_S
1789464437.3316,2145,2879,9_S
1789464437.334066,2103,2877,9_S
1789464437.335424,2010,2873,9_S
1789464437.337725,2017,2875,9_S
1789464437.339953,2058,2877,9_S
1789464437.342013,2063,2877,9_S
1789464437.3442922,2070,2878,9_S
1789464437.3454049,2026,2875,9_S
1789464437.3478022,2067,2876,9_S
1789464437.3503501,2047,2876,9_S
1789464437.354917,2040,2876,9_S
1789464437.355309,2137,2877,9_S
1789464437.357037,2186,2876,9_S
1789464437.3588648,2144,2876,9_S
1789464437.360449,2049,2877,9_S
1789464437.361822,2035,2875,9_S
1789464437.3650508,2069,2876,9_S
1789464437.366167,2095,2875,9_S
1789464437.367458,2008,2876,9_S
1789464437.370005,2049,2876,9_S
1789464437.372073,2027,2875,9_S
1789464437.373365,2058,2876,9_S
1789464437.375884,2089,2876,9_S
1789464437.3783932,2060,2877,9_S
1789464437.379683,2061,2875,9_S
1789464437.382226,2116,2877,9_S
1789464437.3835142,2158,2878,9_S
1789464437.385628,2160,2877,9_S
1789464437.3881211,2108,2877,9_S
1789464437.3904462,2078,2876,9_S
1789464437.391501,2045,2876,9_S
1789464437.396893,1973,2874,9_S
1789464437.3973389,2019,2875,9_S
1789464437.3983202,2078,2876,9_S
1789464437.39956,2137,2878,9_S
1789464437.402227,2081,2878,9_S
1789464437.404083,2081,2877,9_S
1789464437.4054809,2097,2877,9_S
1789464437.408353,2056,2876,9_S
1789464437.409415,1998,2874,9_S
1789464437.411967,1977,2876,9_S
1789464437.4143481,2126,2876,9_S
1789464437.415521,2156,2879,9_S
1789464437.417862,2065,2877,9_S
1789464437.420207,2084,2875,9_S
1789464437.4213471,2118,2875,9_S
1789464437.423646,2125,2877,9_S
1789464437.426193,2060,2877,9_S
1789464437.4274838,1970,2875,9_S
1789464437.429806,2008,2877,9_S
1789464437.4321148,2115,2875,9_S
1789464437.433404,2160,2877,9_S
1789464437.435619,2083,2876,9_S
1789464437.4390569,2113,2876,9_S
1789464437.441358,2103,2876,9_S
1789464437.441581,2194,2877,9_S
1789464437.444887,2061,2876,9_S
1789464437.4475908,2131,2876,9_S
1789464437.4477298,2095,2876,9_S
1789464437.4502022,1936,2874,9_S
1789464437.451293,1950,2876,9_S
1789464437.453814,1933,2874,9_S
1789464437.456165,2076,2877,9_S
1789464437.457309,2014,2875,9_S
1789464437.459528,2104,2877,9_S
1789464437.4616,2117,2878,9_S
1789464437.464149,2124,2876,9_S
1789464437.465307,2075,2876,9_S
1789464437.467852,2083,2875,9_S
1789464437.470207,1952,2875,9_S
1789464437.4713001,2083,2876,9_S
1789464437.473848,2171,2876,9_S
1789464437.4761589,2036,2876,9_S
1789464437.480631,2124,2878,9_S
1789464437.481436,2216,2877,9_S
1789464437.481824,2173,2879,9_S
1789464437.4844108,2133,2879,9_S
1789464437.485776,2102,2878,9_S
1789464437.487757,2211,2878,9_S
1789464437.491117,1990,2877,9_S
1789464437.492178,1972,2874,9_S
1789464437.493472,2056,2877,9_S
1789464437.4960241,2071,2877,9_S
1789464437.49732,1966,2875,9_S
1789464437.499867,1970,2875,9_S
1789464437.502445,1950,2875,9_S
1789464437.503489,2137,2878,9_S
1789464437.5060349,2259,2877,9_S
1789464437.508102,2165,2876,9_S
1789464437.510425,2113,2876,9_S
1789464437.511468,2112,2876,9_S
1789464437.5137951,2008,2875,9_S
1789464437.516344,1980,2875,9_S
1789464437.517384,2119,2876,9_S
1789464437.5228212,2248,2878,9_S
1789464437.5231922,2172,2876,9_S
1789464437.523694,2130,2876,9_S
1789464437.525526,1993,2875,9_S
1789464437.528765,2067,2877,9_S
1789464437.5318232,2112,2875,9_S
1789464437.531942,2139,2876,9_S
1789464437.5338051,2100,2876,9_S
1789464437.536361,2047,2875,9_S
1789464437.537654,1986,2878,9_S
1789464437.539754,1984,2877,9_S
1789464437.5423071,1966,2876,9_S
1789464437.5436,2028,2877,9_S
1789464437.545883,2106,2877,9_S
1789464437.54844,2087,2876,9_S
1789464437.549485,2097,2877,9_S
1789464437.55179,2168,2879,9_S
1789464437.554091,2154,2878,9_S
1789464437.556395,1988,2876,9_S
1789464437.557441,2042,2876,9_S
1789464437.559508,2034,2876,9_S
1789464437.5649762,2017,2875,9_S
1789464437.5650282,2052,2875,9_S
1789464437.566247,2135,2879,9_S
1789464437.56787,1964,2875,9_S
1789464437.5699232,2057,2877,9_S
1789464437.5725172,2073,2876,9_S
1789464437.574075,2085,2876,9_S
1789464437.576046,1938,2874,9_S
1789464437.577344,1970,2875,9_S
1789464437.579651,2120,2879,9_S
1789464437.5820649,2191,2878,9_S
1789464437.583359,2100,2878,9_S
1789464437.585618,1926,2873,9_S
1789464437.587925,1885,2874,9_S
1789464437.5902321,2146,2877,9_S
1789464437.591279,2229,2878,9_S
1789464437.5934532,2207,2877,9_S
1789464437.5959969,2158,2877,9_S
1789464437.598309,2050,2875,9_S
1789464437.5994911,2083,2875,9_S
1789464437.60204,2123,2875,9_S
1789464437.60738,2082,2875,9_S
1789464437.607821,2106,2877,9_S
1789464437.608234,1918,2873,9_S
1789464437.6103559,2087,2876,9_S
1789464437.611968,2056,2877,9_S
1789464437.6134021,2078,2876,9_S
1789464437.616313,2127,2878,9_S
1789464437.6182039,2129,2877,9_S
1789464437.619333,2101,2877,9_S
1789464437.621881,2128,2877,9_S
1789464437.624267,2114,2878,9_S
1789464437.6253178,2036,2878,9_S
1789464437.627866,2067,2876,9_S
1789464437.6301818,2061,2876,9_S
1789464437.631295,2094,2878,9_S
1789464437.633604,1972,2874,9_S
1789464437.6359081,2021,2876,9_S
1789464437.63821,2217,2878,9_S
1789464437.639254,2184,2877,9_S
1789464437.64133,2081,2876,9_S
1789464437.6434,2111,2876,9_S
1789464437.645472,1995,2874,9_S
1789464437.6494322,1909,2875,9_S
1789464437.649835,1995,2876,9_S
1789464437.651733,2216,2878,9_S
1789464437.654401,2130,2877,9_S
1789464437.656259,1897,2874,9_S
1789464437.657891,1978,2875,9_S
1789464437.6593869,1946,2875,9_S
1789464437.6617,2064,2876,9_S
1789464437.663925,2224,2879,9_S
1789464437.665232,2145,2878,9_S
1789464437.6675441,2222,2879,9_S
1789464437.669659,2162,2877,9_S
1789464437.672052,2152,2878,9_S
1789464437.673196,2202,2878,9_S
1789464437.675497,2159,2878,9_S
1789464437.677556,2006,2875,9_S
1789464437.6801019,1973,2875,9_S
1789464437.681229,1951,2874,9_S
1789464437.683299,2034,2875,9_S
1789464437.6856189,2121,2876,9_S
1789464437.691912,2207,2876,9_S
1789464437.6923141,2101,2877,9_S
1789464437.692678,2046,2876,9_S
1789464437.6950788,2002,2875,9_S
1789464437.695734,2073,2875,9_S
1789464437.6981928,2202,2878,9_S
1789464437.6997912,2106,2878,9_S
1789464437.701344,1996,2874,9_S
1789464437.703893,2102,2877,9_S
1789464437.7052171,2121,2878,9_S
1789464437.707774,2017,2877,9_S
1789464437.709972,2052,2875,9_S
1789464437.711273,1962,2875,9_S
1789464437.713822,2074,2877,9_S
1789464437.7152221,2179,2878,9_S
1789464437.717647,2115,2877,9_S
1789464437.7201972,2133,2877,9_S
1789464437.721487,2064,2876,9_S
1789464437.724033,2111,2877,9_S
1789464437.7252128,2088,2879,9_S
1789464437.727531,2126,2875,9_S
1789464437.73254,2088,2876,9_S
1789464437.7329621,1991,2875,9_S
1789464437.7350342,2047,2875,9_S
1789464437.736415,2136,2877,9_S
1789464437.7379131,2002,2876,9_S
1789464437.739709,2002,2875,9_S
1789464437.741248,2161,2877,9_S
1789464437.743232,2175,2879,9_S
1789464437.745792,2128,2879,9_S
1789464437.748095,2095,2875,9_S
1789464437.749401,2097,2876,9_S
1789464437.751948,2043,2874,9_S
1789464437.753237,2028,2876,9_S
1789464437.755782,1917,2874,9_S
1789464437.757956,1952,2874,9_S
1789464437.760271,2047,2877,9_S
1789464437.761562,2134,2878,9_S
1789464437.763922,2169,2877,9_S
1789464437.766058,2148,2878,9_S
1789464437.767172,2072,2879,9_S
1789464437.7694871,2094,2878,9_S
1789464437.774069,2139,2879,9_S
1789464437.7748501,2100,2878,9_S
1789464437.7771578,2040,2878,9_S
1789464437.7773561,1997,2875,9_S
1789464437.7824352,1957,2875,9_S
1789464437.7842822,2019,2875,9_S
1789464437.78441,2015,2875,9_S
1789464437.786635,2098,2877,9_S
1789464437.787709,2120,2877,9_S
1789464437.7902741,2167,2876,9_S
1789464437.791337,2141,2877,9_S
1789464437.793667,1984,2874,9_S
1789464437.795976,1974,2876,9_S
1789464437.797167,2154,2878,9_S
1789464437.7997608,2210,2877,9_S
1789464437.8012211,2018,2877,9_S
1789464437.803636,2053,2877,9_S
1789464437.80598,2106,2877,9_S
1789464437.807144,1992,2874,9_S
1789464437.8095202,2017,2875,9_S
1789464437.8117352,2103,2874,9_S
1789464437.813972,2088,2875,9_S
1789464437.815222,2047,2875,9_S
1789464437.822651,2027,2874,9_S
1789464437.8245661,2051,2876,9_S
1789464437.826517,2122,2875,9_S
1789464437.8276439,2160,2878,9_S
1789464437.828117,2089,2877,9_S
1789464437.829397,2133,2877,9_S
1789464437.832992,2064,2876,9_S
1789464437.833288,1975,2876,9_S
1789464437.833438,1975,2875,9_S
1789464437.8356,1869,2875,9_S
1789464437.837759,2146,2877,9_S
1789464437.8431182,2200,2876,9_S
1789464437.843915,2106,2876,9_S
1789464437.8444018,1958,2874,9_S
1789464437.847326,2090,2875,9_S
1789464437.847519,2225,2878,9_S
1789464437.850999,2182,2878,9_S
1789464437.8527842,2113,2877,9_S
1789464437.854799,2100,2876,9_S
1789464437.855857,2055,2876,9_S
1789464437.8579268,2030,2877,9_S
1789464437.859329,2027,2878,9_S
1789464437.8621309,1997,2875,9_S
1789464437.8634949,1953,2875,9_S
1789464437.865907,2053,2876,9_S
1789464437.8682392,2116,2877,9_S
1789464437.869409,2088,2876,9_S
1789464437.8716512,1908,2874,9_S
1789464437.874138,2065,2877,9_S
1789464437.875243,2189,2878,9_S
1789464437.8776891,2128,2878,9_S
1789464437.879164,2191,2878,9_S
1789464437.881381,2208,2877,9_S
1789464437.8835871,2130,2878,9_S
1789464437.8917592,2079,2878,9_S
1789464437.893458,2116,2878,9_S
1789464437.899392,2091,2876,9_S
1789464437.9013572,2040,2877,9_S
1789464437.901946,2010,2875,9_S
1789464437.90231,1974,2875,9_S
1789464437.904501,1975,2875,9_S
1789464437.9047549,2047,2876,9_S
1789464437.904802,2079,2877,9_S
1789464437.904864,2126,2877,9_S
1789464437.905927,2011,2876,9_S
1789464437.908302,2087,2876,9_S
1789464437.912205,2117,2877,9_S
1789464437.9122748,2134,2878,9_S
1789464437.914956,2040,2875,9_S
1789464437.9170508,2097,2874,9_S
1789464437.91786,2112,2878,9_S
1789464437.922542,2149,2876,9_S
1789464437.9227781,2134,2876,9_S
1789464437.924939,2098,2876,9_S
1789464437.926216,2005,2876,9_S
1789464437.927528,2013,2875,9_S
1789464437.929844,1999,2876,9_S
1789464437.931921,2012,2876,9_S
1789464437.93424,2082,2875,9_S
1789464437.9355142,2094,2877,9_S
1789464437.938068,2123,2877,9_S
1789464437.939153,2108,2876,9_S
1789464437.941466,2065,2877,9_S
1789464437.944017,2092,2878,9_S
1789464437.94507,2129,2877,9_S
1789464437.9475179,2137,2875,9_S
1789464437.949835,2107,2875,9_S
1789464437.9521458,2065,2879,9_S
1789464437.953331,2047,2877,9_S
1789464437.9597461,2074,2876,9_S
1789464437.9605289,2072,2876,9_S
1789464437.96096,1965,2875,9_S
1789464437.96242,1995,2876,9_S
1789464437.964455,2142,2880,9_S
1789464437.96612,2191,2877,9_S
1789464437.967961,2081,2877,9_S
1789464437.9697301,2023,2876,9_S
1789464437.972073,2078,2877,9_S
1789464437.973383,2084,2876,9_S
1789464437.9758022,2083,2877,9_S
1789464437.979594,2089,2878,9_S
1789464437.980772,2101,2874,9_S
1789464437.982642,2072,2877,9_S
1789464437.9850712,2084,2875,9_S
1789464437.986031,2071,2877,9_S
1789464437.9886038,2015,2876,9_S
1789464437.9905448,2053,2876,9_S
1789464437.992856,2038,2876,9_S
1789464437.9939232,2083,2877,9_S
1789464437.995038,2105,2878,9_S
1789464437.997356,2086,2876,9_S
1789464437.999858,2028,2876,9_S
1789464438.001164,2056,2875,9_S
1789464438.003386,2078,2877,9_S
1789464438.0057259,2037,2876,9_S
1789464438.0080462,2082,2875,9_S
1789464438.009326,2109,2877,9_S
1789464438.011891,2088,2876,9_S
1789464438.013189,2097,2877,9_S
1789464438.0152938,2093,2876,9_S
1789464438.018006,2035,2876,9_S
1789464438.019079,2066,2876,9_S
1789464438.0216022,2091,2876,9_S
1789464438.028579,2077,2875,9_S
1789464438.0314791,2052,2875,9_S
1789464438.031637,2059,2877,9_S
1789464438.033283,2105,2877,9_S
1789464438.033785,2077,2874,9_S
1789464438.034677,2062,2875,9_S
1789464438.037459,2088,2879,9_S
1789464438.037649,2112,2876,9_S
1789464438.039556,2097,2877,9_S
1789464438.041746,2056,2875,9_S
1789464438.043114,2005,2874,9_S
1789464438.045276,1990,2875,9_S
1789464438.049655,2060,2875,9_S
1789464438.050148,2111,2878,9_S
1789464438.052088,2081,2878,9_S
1789464438.053786,2090,2877,9_S
1789464438.055779,2039,2877,9_S
1789464438.057767,1975,2873,9_S
1789464438.059541,2116,2878,9_S
1789464438.0618901,2143,2879,9_S
1789464438.063175,2090,2877,9_S
1789464438.065513,2077,2877,9_S
1789464438.06813,2064,2875,9_S
1789464438.069191,2144,2878,9_S
1789464438.071743,2147,2877,9_S
1789464438.0738401,2100,2877,9_S
1789464438.075142,2020,2874,9_S
1789464438.0774689,2032,2876,9_S
1789464438.07983,2067,2875,9_S
1789464438.0810251,2031,2875,9_S
1789464438.083081,2051,2875,9_S
1789464438.085446,2117,2877,9_S
1789464438.087887,2122,2877,9_S
1789464438.089088,2070,2877,9_S
1789464438.091637,2041,2877,9_S
1789464438.097653,1998,2875,9_S
1789464438.0987608,2063,2876,9_S
1789464438.100503,2017,2876,9_S
1789464438.103147,2101,2877,9_S
1789464438.1044931,2088,2877,9_S
1789464438.1049972,2108,2877,9_S
1789464438.108757,2131,2876,9_S
1789464438.109013,2113,2876,9_S
1789464438.109765,2096,2878,9_S
1789464438.1123369,2075,2875,9_S
1789464438.113556,2077,2876,9_S
1789464438.1197839,1965,2876,9_S
1789464438.120298,2064,2875,9_S
1789464438.1204019,2117,2876,9_S
1789464438.122692,2080,2877,9_S
1789464438.124289,2071,2876,9_S
1789464438.126013,2049,2876,9_S
1789464438.12813,2073,2875,9_S
1789464438.1300008,2103,2876,9_S
1789464438.131707,2146,2879,9_S
1789464438.133031,2073,2874,9_S
1789464438.13517,1988,2874,9_S
1789464438.137502,2048,2877,9_S
1789464438.139884,2077,2877,9_S
1789464438.141037,2067,2876,9_S
1789464438.143104,2139,2876,9_S
1789464438.1454232,2012,2876,9_S
1789464438.14774,2075,2875,9_S
1789464438.149902,2012,2876,9_S
1789464438.15116,2061,2876,9_S
1789464438.153483,2156,2877,9_S
1789464438.155808,2183,2876,9_S
1789464438.157103,2051,2875,9_S
1789464438.159654,2030,2877,9_S
1789464438.1610749,2091,2878,9_S
1789464438.1676009,2144,2879,9_S
1789464438.167706,2086,2875,9_S
1789464438.1684859,2000,2876,9_S
1789464438.171625,2060,2877,9_S
1789464438.1720908,2017,2876,9_S
1789464438.173717,2049,2875,9_S
1789464438.1751199,2041,2875,9_S
1789464438.178903,2038,2877,9_S
1789464438.179109,2135,2879,9_S
1789464438.181173,2124,2878,9_S
1789464438.183754,2072,2876,9_S
1789464438.185065,2097,2878,9_S
1789464438.1876202,2137,2877,9_S
1789464438.189932,2086,2876,9_S
1789464438.191225,2057,2877,9_S
1789464438.193749,1977,2874,9_S
1789464438.195051,2017,2875,9_S
1789464438.197609,2082,2875,9_S
1789464438.200045,2129,2879,9_S
1789464438.2012281,2071,2876,9_S
1789464438.203795,2120,2876,9_S
1789464438.20509,2109,2878,9_S
1789464438.207436,2051,2876,9_S
1789464438.213186,2100,2876,9_S
1789464438.213713,2018,2875,9_S
1789464438.214981,1998,2875,9_S
1789464438.2162318,2124,2878,9_S
1789464438.2179132,2146,2877,9_S
1789464438.219881,2108,2876,9_S
1789464438.22161,2039,2877,9_S
1789464438.223464,2112,2877,9_S
1789464438.225556,2144,2877,9_S
1789464438.228116,2080,2878,9_S
1789464438.2294168,2065,2875,9_S
1789464438.231987,2132,2878,9_S
1789464438.233284,2151,2878,9_S
1789464438.235837,2078,2876,9_S
1789464438.271771,2041,2876,9_S
1789464438.2772129,2044,2877,9_S
1789464438.279764,2074,2877,9_S
1789464438.2822201,2108,2879,9_S
1789464438.2828999,1959,2875,9_S
1789464438.285019,1991,2876,9_S
1789464438.285093,2045,2875,9_S
1789464438.285158,2126,2878,9_S
1789464438.2852201,2225,2877,9_S
1789464438.285281,2126,2877,9_S
1789464438.285341,2085,2876,9_S
1789464438.285401,2076,2878,9_S
1789464438.285461,2096,2876,9_S
1789464438.2855198,2098,2876,9_S
1789464438.28558,2089,2876,9_S
1789464438.285643,2038,2874,9_S
1789464438.285702,2085,2877,9_S
1789464438.285904,2065,2876,9_S
1789464438.286031,1971,2875,9_S
1789464438.286077,2010,2874,9_S
1789464438.286113,2092,2875,9_S
1789464438.286148,2134,2876,9_S
1789464438.2861829,2110,2876,9_S
1789464438.286218,2050,2875,9_S
1789464438.286252,2050,2876,9_S
1789464438.2876859,2103,2875,9_S
1789464438.29475,2089,2875,9_S
1789464438.296438,2055,2876,9_S
1789464438.299878,1951,2875,9_S
1789464438.300473,2103,2876,9_S
1789464438.301342,2118,2876,9_S
1789464438.305266,2083,2875,9_S
1789464438.3057332,2044,2877,9_S
1789464438.306154,2141,2876,9_S
1789464438.308362,2104,2876,9_S
1789464438.308668,2071,2877,9_S
1789464438.310039,2085,2876,9_S
1789464438.311383,2102,2874,9_S
1789464438.3140879,2124,2875,9_S
1789464438.3154628,2112,2878,9_S
1789464438.318305,2025,2874,9_S
1789464438.319705,2040,2878,9_S
1789464438.3211021,2085,2876,9_S
1789464438.3237429,2072,2876,9_S
1789464438.325094,2046,2878,9_S
1789464438.327731,2056,2876,9_S
1789464438.33032,2077,2876,9_S
1789464438.331769,2094,2876,9_S
1789464438.333094,2074,2876,9_S
1789464438.335828,2060,2877,9_S
1789464438.3372412,2068,2875,9_S
1789464438.3400772,2044,2876,9_S
1789464438.3414662,2070,2875,9_S
1789464438.344428,2072,2877,9_S
1789464438.3503969,2073,2875,9_S
1789464438.353075,2073,2876,9_S
1789464438.357283,2055,2876,9_S
1789464438.357996,2067,2878,9_S
1789464438.360251,2111,2876,9_S
1789464438.3628118,2103,2876,9_S
1789464438.363177,2079,2876,9_S
1789464438.363563,2054,2877,9_S
1789464438.363971,2097,2878,9_S
1789464438.3663301,2097,2875,9_S
1789464438.366425,2105,2876,9_S
1789464438.367883,2049,2876,9_S
1789464438.369539,2074,2877,9_S
1789464438.377574,2081,2875,9_S
1789464438.381034,2085,2875,9_S
1789464438.382473,2082,2875,9_S
1789464438.383511,2030,2875,9_S
1789464438.384154,2063,2876,9_S
1789464438.38658,2112,2876,9_S
1789464438.388959,2080,2875,9_S
1789464438.389664,2046,2875,9_S
1789464438.390186,2072,2877,9_S
1789464438.39044,2082,2875,9_S
1789464438.392798,2060,2876,9_S
1789464438.3929632,2056,2877,9_S
1789464438.395603,2067,2875,9_S
1789464438.396985,2085,2876,9_S
1789464438.399633,2082,2876,9_S
1789464438.400973,2080,2878,9_S
1789464438.4036858,2110,2877,9_S
1789464438.40512,2094,2875,9_S
1789464438.407584,2086,2876,9_S
1789464438.408942,2049,2877,9_S
1789464438.411608,2076,2877,9_S
1789464438.412957,2077,2876,9_S
1789464438.415642,2090,2876,9_S
1789464438.416984,2070,2876,9_S
1789464438.4198558,2070,2877,9_S
1789464438.421273,2111,2876,9_S
1789464438.4239109,2089,2877,9_S
1789464438.425257,2058,2875,9_S
1789464438.4278889,2062,2877,9_S
1789464438.429279,2073,2875,9_S
1789464438.431904,2096,2876,9_S
1789464438.4425511,2075,2876,9_S
1789464438.445118,2088,2877,9_S
1789464438.4453351,2113,2876,9_S
1789464438.446485,2090,2875,9_S
1789464438.451496,2053,2876,9_S
1789464438.454677,2045,2876,9_S
1789464438.454818,2085,2876,9_S
1789464438.4548779,2089,2876,9_S
1789464438.4549272,2066,2876,9_S
1789464438.4549708,2054,2874,9_S
1789464438.455014,2100,2877,9_S
1789464438.4550579,2112,2876,9_S
1789464438.45772,2053,2876,9_S
1789464438.4648561,2055,2875,9_S
1789464438.469714,2060,2875,9_S
1789464438.472264,2112,2879,9_S
1789464438.472416,2080,2876,9_S
1789464438.4734771,2088,2878,9_S
1789464438.475652,2082,2878,9_S
1789464438.4783812,2102,2876,9_S
1789464438.479033,2069,2876,9_S
1789464438.4792562,2055,2878,9_S
1789464438.481496,2080,2877,9_S
1789464438.4824479,2082,2874,9_S
1789464438.482506,2085,2875,9_S
1789464438.483836,2058,2876,9_S
1789464438.4851499,2075,2878,9_S
1789464438.487848,2143,2876,9_S
1789464438.4892411,2121,2877,9_S
1789464438.4916391,2075,2876,9_S
1789464438.493022,2050,2876,9_S
1789464438.495609,2089,2876,9_S
1789464438.496959,2089,2875,9_S
1789464438.499721,2080,2876,9_S
1789464438.501069,2069,2873,9_S
1789464438.503932,2046,2876,9_S
1789464438.505308,2070,2875,9_S
1789464438.5078669,2060,2875,9_S
1789464438.5092201,2056,2876,9_S
1789464438.511787,2050,2876,9_S
1789464438.5132968,2072,2876,9_S
1789464438.515916,2102,2876,9_S
1789464438.517281,2103,2877,9_S
1789464438.5189419,2115,2877,9_S
1789464438.521858,2099,2876,9_S
1789464438.5299652,2083,2876,9_S
1789464438.532096,2045,2876,9_S
1789464438.5342689,2088,2877,9_S
1789464438.539383,2079,2876,9_S
1789464438.545593,2099,2877,9_S
1789464438.545677,2097,2878,9_S
1789464438.5457401,2054,2878,9_S
1789464438.5458019,2111,2876,9_S
1789464438.545865,2125,2876,9_S
1789464438.545928,2090,2876,9_S
1789464438.54599,2088,2876,9_S
1789464438.546051,2075,2876,9_S
1789464438.54747,2075,2876,9_S
1789464438.5501509,2051,2877,9_S
1789464438.5586061,2037,2874,9_S
1789464438.561346,2092,2877,9_S
1789464438.561739,2112,2876,9_S
1789464438.56511,2035,2876,9_S
1789464438.5676641,2032,2876,9_S
1789464438.5735428,2081,2878,9_S
1789464438.574027,2059,2876,9_S
1789464438.5745401,2052,2876,9_S
1789464438.577607,2068,2875,9_S
1789464438.577941,2122,2878,9_S
1789464438.578014,2126,2876,9_S
1789464438.578078,2074,2875,9_S
1789464438.57814,2073,2876,9_S
1789464438.578202,2101,2876,9_S
1789464438.579725,2083,2875,9_S
1789464438.581097,2087,2877,9_S
1789464438.58354,2057,2876,9_S
1789464438.5849652,2027,2875,9_S
1789464438.5871181,2072,2876,9_S
1789464438.5895,2062,2876,9_S
1789464438.592067,2076,2876,9_S
1789464438.593448,2034,2876,9_S
1789464438.595558,2065,2876,9_S
1789464438.59693,2090,2876,9_S
1789464438.599263,2091,2876,9_S
1789464438.6015942,2090,2876,9_S
1789464438.603679,2084,2878,9_S
1789464438.604983,2100,2876,9_S
1789464438.607309,2043,2876,9_S
1789464438.6098728,2013,2875,9_S
1789464438.611181,2065,2877,9_S
1789464438.6135092,2097,2876,9_S
1789464438.615593,2128,2878,9_S
1789464438.617911,2021,2875,9_S
1789464438.619215,2028,2875,9_S
1789464438.625856,2103,2877,9_S
1789464438.626558,2077,2875,9_S
1789464438.62719,2063,2877,9_S
1789464438.627808,2047,2877,9_S
1789464438.6295319,2079,2875,9_S
1789464438.631754,2090,2876,9_S
1789464438.633945,2077,2876,9_S
1789464438.638855,2117,2877,9_S
1789464438.6391401,2123,2877,9_S
1789464438.6393669,2074,2875,9_S
1789464438.642145,2070,2876,9_S
1789464438.643459,2032,2877,9_S
1789464438.646039,2056,2874,9_S
1789464438.6520572,2090,2876,9_S
1789464438.6527371,2077,2877,9_S
1789464438.653396,2050,2875,9_S
1789464438.655519,2082,2877,9_S
1789464438.6560268,2112,2876,9_S
1789464438.6580842,2092,2875,9_S
1789464438.6593761,2042,2876,9_S
1789464438.661143,2056,2875,9_S
1789464438.665108,2116,2878,9_S
1789464438.665357,2096,2876,9_S
1789464438.667551,2063,2875,9_S
1789464438.6688662,2066,2877,9_S
1789464438.6712,2100,2877,9_S
1789464438.6735601,2087,2877,9_S
1789464438.674876,2061,2876,9_S
1789464438.677191,2045,2877,9_S
1789464438.679517,2097,2878,9_S
1789464438.6818361,2130,2878,9_S
1789464438.6830919,2090,2876,9_S
1789464438.6854122,2044,2875,9_S
1789464438.687976,2120,2877,9_S
1789464438.689219,2098,2877,9_S
1789464438.691544,2070,2876,9_S
1789464438.6928551,2043,2876,9_S
1789464438.695416,2040,2874,9_S
1789464438.6968231,2059,2876,9_S
1789464438.698896,2079,2876,9_S
1789464438.70122,2061,2876,9_S
1789464438.703557,2085,2878,9_S
1789464438.705704,2106,2876,9_S
1789464438.707047,2054,2876,9_S
1789464438.7123048,2048,2876,9_S
1789464438.713036,2079,2877,9_S
1789464438.714093,2085,2875,9_S
1789464438.716257,2083,2876,9_S
1789464438.718289,2046,2875,9_S
1789464438.719598,2076,2877,9_S
1789464438.720979,2110,2877,9_S
1789464438.723103,2085,2875,9_S
1789464438.725253,2071,2875,9_S
1789464438.7282019,2070,2876,9_S
1789464438.729513,2090,2878,9_S
1789464438.731761,2084,2876,9_S
1789464438.736789,2074,2877,9_S
1789464438.737359,2065,2875,9_S
1789464438.737793,2119,2877,9_S
1789464438.740184,2093,2876,9_S
1789464438.7425401,2068,2875,9_S
1789464438.744423,2044,2876,9_S
1789464438.746492,2059,2874,9_S
1789464438.748566,2106,2876,9_S
1789464438.750954,2088,2876,9_S
1789464438.751086,2043,2875,9_S
1789464438.753403,2097,2877,9_S
1789464438.755641,2119,2876,9_S
1789464438.756951,2081,2876,9_S
1789464438.75951,2059,2876,9_S
1789464438.761583,2029,2875,9_S
1789464438.763913,2083,2876,9_S
1789464438.76498,2096,2876,9_S
1789464438.767211,2072,2875,9_S
1789464438.769776,2062,2878,9_S
1789464438.7710762,2098,2876,9_S
1789464438.773399,2078,2875,9_S
1789464438.7748082,2045,2877,9_S
1789464438.7773702,2049,2877,9_S
1789464438.779951,2094,2877,9_S
1789464438.781,2066,2876,9_S
1789464438.783562,2063,2876,9_S
1789464438.7847948,2056,2875,9_S
1789464438.7913358,2106,2877,9_S
1789464438.79191,2104,2875,9_S
1789464438.792373,2059,2876,9_S
1789464438.794164,2060,2875,9_S
1789464438.795965,2076,2875,9_S
1789464438.7975402,2099,2876,9_S
1789464438.8001611,2075,2876,9_S
1789464438.8021078,2033,2876,9_S
1789464438.804089,2098,2877,9_S
1789464438.805399,2113,2876,9_S
1789464438.806842,2086,2875,9_S
1789464438.8153741,2035,2875,9_S
1789464438.817709,2056,2875,9_S
1789464438.818003,2116,2877,9_S
1789464438.819486,2098,2876,9_S
1789464438.820378,2058,2876,9_S
1789464438.821606,2082,2878,9_S
1789464438.82217,2076,2876,9_S
1789464438.824631,2074,2875,9_S
1789464438.826612,2042,2876,9_S
1789464438.8287082,2038,2877,9_S
1789464438.829209,2059,2874,9_S
1789464438.8318038,2104,2876,9_S
1789464438.83312,2108,2879,9_S
1789464438.835202,2077,2878,9_S
1789464438.83777,2100,2876,9_S
1789464438.839072,2092,2877,9_S
1789464438.841163,2086,2877,9_S
1789464438.843483,2046,2877,9_S
1789464438.844787,2063,2874,9_S
1789464438.846878,2097,2877,9_S
1789464438.849538,2075,2876,9_S
1789464438.851732,2051,2874,9_S
1789464438.853122,2081,2877,9_S
1789464438.8556201,2090,2874,9_S
1789464438.8568268,2087,2875,9_S
1789464438.859445,2092,2876,9_S
1789464438.860839,2061,2877,9_S
1789464438.862916,2067,2876,9_S
1789464438.869938,2097,2876,9_S
1789464438.870568,2076,2874,9_S
1789464438.871212,2053,2877,9_S
1789464438.872672,2113,2876,9_S
1789464438.872912,2076,2876,9_S
1789464438.876359,2067,2876,9_S
1789464438.87923,2060,2877,9_S
1789464438.8810549,2064,2874,9_S
1789464438.881351,2089,2877,9_S
1789464438.883926,2095,2876,9_S
1789464438.885243,2032,2875,9_S
1789464438.887579,2085,2876,9_S
1789464438.892245,2106,2876,9_S
1789464438.893287,2027,2876,9_S
1789464438.895589,2022,2877,9_S
1789464438.895809,2043,2875,9_S
1789464438.898468,2131,2878,9_S
1789464438.9004369,2091,2876,9_S
1789464438.9022348,2073,2876,9_S
1789464438.904088,2051,2876,9_S
1789464438.906566,2087,2876,9_S
1789464438.9076512,2115,2876,9_S
1789464438.908777,2066,2875,9_S
1789464438.91112,2049,2874,9_S
1789464438.91379,2083,2876,9_S
1789464438.9151611,2062,2877,9_S
1789464438.917772,2086,2875,9_S
1789464438.919049,2097,2876,9_S
1789464438.92172,2072,2875,9_S
1789464438.9230962,2083,2876,9_S
1789464438.925482,2046,2877,9_S
1789464438.927861,2044,2876,9_S
1789464438.9291961,2095,2877,9_S
1789464438.931556,2078,2877,9_S
1789464438.932914,2069,2876,9_S
1789464438.9355562,2090,2877,9_S
1789464438.9379451,2111,2876,9_S
1789464438.9393642,2062,2876,9_S
1789464438.940856,2076,2875,9_S
1789464438.9434712,2049,2877,9_S
1789464438.949764,2116,2878,9_S
1789464438.950547,2080,2874,9_S
1789464438.951909,1931,2876,9_S
1789464438.954258,1964,2875,9_S
1789464438.9546418,2163,2879,9_S
1789464438.956962,2206,2876,9_S
1789464438.95826,2081,2876,9_S
1789464438.962371,2020,2875,9_S
1789464438.965033,2058,2875,9_S
1789464438.965634,2184,2878,9_S
1789464438.9659462,2089,2875,9_S
1789464438.968811,2000,2876,9_S
1789464438.968896,2058,2875,9_S
1789464438.971324,2091,2876,9_S
1789464438.9728022,2075,2876,9_S
1789464438.979272,2078,2876,9_S
1789464438.982046,2080,2878,9_S
1789464438.982391,2062,2874,9_S
1789464438.982723,2020,2876,9_S
1789464438.985882,2129,2875,9_S
1789464438.987513,2033,2877,9_S
1789464438.992649,2106,2878,9_S
1789464438.993322,2170,2875,9_S
1789464438.993578,2115,2876,9_S
1789464438.99383,2082,2876,9_S
1789464438.996634,2034,2875,9_S
1789464438.996782,2031,2877,9_S
1789464438.999346,2123,2876,9_S
1789464439.002916,2111,2876,9_S
1789464439.003399,2089,2878,9_S
1789464439.005881,2065,2876,9_S
1789464439.007156,1992,2875,9_S
1789464439.009634,2003,2875,9_S
1789464439.010731,2017,2875,9_S
1789464439.013202,2102,2876,9_S
1789464439.015569,2115,2876,9_S
1789464439.016733,2079,2876,9_S
1789464439.019168,2099,2877,9_S
1789464439.02175,2113,2877,9_S
1789464439.023107,2050,2876,9_S
1789464439.0257201,2010,2875,9_S
1789464439.0270011,2059,2877,9_S
1789464439.029361,2061,2876,9_S
1789464439.030696,1959,2876,9_S
1789464439.033312,2047,2876,9_S
1789464439.035682,2146,2878,9_S
1789464439.0422661,2187,2877,9_S
1789464439.043146,2090,2877,9_S
1789464439.0457962,2077,2875,9_S
1789464439.0460422,2162,2877,9_S
1789464439.049262,2202,2878,9_S
1789464439.049931,2070,2876,9_S
1789464439.050616,2023,2875,9_S
1789464439.051426,2110,2875,9_S
1789464439.0546072,2128,2878,9_S
1789464439.0551748,2065,2876,9_S
1789464439.057824,2036,2877,9_S
1789464439.060794,2034,2876,9_S
1789464439.06096,2021,2876,9_S
1789464439.063575,2058,2876,9_S
1789464439.064926,2123,2877,9_S
1789464439.073112,2110,2879,9_S
1789464439.074877,2139,2878,9_S
1789464439.077226,2139,2876,9_S
1789464439.0790179,2024,2875,9_S
1789464439.0797281,1929,2874,9_S
1789464439.0804322,1962,2875,9_S
1789464439.0833762,2090,2876,9_S
1789464439.085813,2100,2876,9_S
1789464439.088379,2098,2878,9_S
1789464439.089105,2082,2877,9_S
1789464439.089365,2067,2876,9_S
1789464439.089519,2127,2876,9_S
1789464439.090863,2085,2876,9_S
1789464439.09323,2088,2877,9_S
1789464439.095624,2097,2877,9_S
1789464439.0969422,2060,2875,9_S
1789464439.099044,2101,2875,9_S
1789464439.101136,1943,2874,9_S
1789464439.1033611,1977,2874,9_S
1789464439.105781,2008,2875,9_S
1789464439.106926,1888,2873,9_S
1789464439.109675,2065,2876,9_S
1789464439.1108859,2094,2878,9_S
1789464439.113479,2199,2879,9_S
1789464439.114729,2180,2878,9_S
1789464439.11685,2140,2878,9_S
1789464439.118987,2152,2878,9_S
1789464439.121218,2232,2878,9_S
1789464439.1236491,2118,2876,9_S
1789464439.1250062,1997,2874,9_S
1789464439.1273658,1965,2875,9_S
1789464439.128696,2002,2875,9_S
1789464439.13502,2053,2876,9_S
1789464439.136141,1973,2875,9_S
1789464439.1368399,2014,2878,9_S
1789464439.1386392,1875,2873,9_S
1789464439.138943,2037,2878,9_S
1789464439.1422741,2242,2877,9_S
1789464439.1440792,2202,2877,9_S
1789464439.147941,2132,2879,9_S
1789464439.1483252,2097,2877,9_S
1789464439.15058,2123,2879,9_S
1789464439.15132,2076,2875,9_S
1789464439.152668,2092,2878,9_S
1789464439.155058,2118,2877,9_S
1789464439.161319,2059,2877,9_S
1789464439.162553,1969,2874,9_S
1789464439.1647081,2040,2875,9_S
1789464439.165138,2051,2875,9_S
1789464439.167873,2084,2878,9_S
1789464439.172482,2121,2877,9_S
1789464439.175147,2032,2874,9_S
1789464439.175694,2021,2874,9_S
1789464439.176386,1943,2875,9_S
1789464439.179297,2138,2878,9_S
1789464439.1794078,2326,2877,9_S
1789464439.17948,2167,2877,9_S
1789464439.180843,2016,2874,9_S
1789464439.183522,1984,2875,9_S
1789464439.1847491,2124,2874,9_S
1789464439.186954,2083,2875,9_S
1789464439.189806,1927,2874,9_S
1789464439.191185,1847,2872,9_S
1789464439.193835,2179,2877,9_S
1789464439.195178,2123,2876,9_S
1789464439.19781,2131,2876,9_S
1789464439.199148,2129,2877,9_S
1789464439.20176,2107,2879,9_S
1789464439.203152,2177,2877,9_S
1789464439.205614,2164,2878,9_S
1789464439.206975,2109,2877,9_S
1789464439.209249,2061,2878,9_S
1789464439.211636,2046,2877,9_S
1789464439.2128232,1945,2874,9_S
1789464439.2153118,1836,2874,9_S
1789464439.2166772,2021,2874,9_S
1789464439.225406,2248,2878,9_S
1789464439.2284858,2195,2878,9_S
1789464439.232638,2083,2877,9_S
1789464439.233431,2075,2877,9_S
1789464439.234448,1986,2874,9_S
1789464439.2356548,1961,2875,9_S
1789464439.238354,1996,2874,9_S
1789464439.24088,2201,2878,9_S
1789464439.2412958,2146,2878,9_S
1789464439.241965,2102,2876,9_S
1789464439.2424,2150,2877,9_S
1789464439.2450078,2069,2876,9_S
1789464439.2458801,2008,2874,9_S
1789464439.245984,2056,2876,9_S
1789464439.24736,1828,2876,9_S
1789464439.2487302,1988,2876,9_S
1789464439.256617,2108,2877,9_S
1789464439.258701,2078,2876,9_S
1789464439.261296,2156,2875,9_S
1789464439.264734,2094,2876,9_S
1789464439.265794,2092,2877,9_S
1789464439.267236,2081,2876,9_S
1789464439.268691,2020,2876,9_S
1789464439.271755,2178,2877,9_S
1789464439.274574,1995,2874,9_S
1789464439.275127,1800,2875,9_S
1789464439.275991,2066,2876,9_S
1789464439.276475,2350,2876,9_S
1789464439.2796679,2143,2878,9_S
1789464439.279943,2076,2877,9_S
1789464439.279999,2128,2875,9_S
1789464439.281355,2199,2876,9_S
1789464439.2827158,2221,2878,9_S
1789464439.285366,2082,2876,9_S
1789464439.286725,1973,2874,9_S
1789464439.2892601,1967,2876,9_S
1789464439.291719,2052,2877,9_S
1789464439.293012,2155,2876,9_S
1789464439.29552,1934,2875,9_S
1789464439.296876,1958,2876,9_S
1789464439.299389,2161,2877,9_S
1789464439.3017778,2257,2879,9_S
1789464439.3029141,2025,2876,9_S
1789464439.3054569,1847,2874,9_S
1789464439.3068979,2062,2877,9_S
1789464439.309342,2162,2877,9_S
1789464439.310623,2196,2879,9_S
1789464439.313121,2197,2877,9_S
1789464439.315543,1867,2875,9_S
1789464439.3166451,1941,2875,9_S
1789464439.319318,2092,2876,9_S
1789464439.320749,2269,2877,9_S
1789464439.323067,2093,2876,9_S
1789464439.333353,1922,2874,9_S
1789464439.334388,2076,2877,9_S
1789464439.339846,2279,2879,9_S
1789464439.340821,2241,2879,9_S
1789464439.342286,2188,2878,9_S
1789464439.343734,2083,2875,9_S
1789464439.3453262,2064,2875,9_S
1789464439.347743,2161,2878,9_S
1789464439.3504572,2045,2877,9_S
1789464439.351118,1992,2877,9_S
1789464439.351907,2036,2877,9_S
1789464439.354811,1925,2874,9_S
1789464439.3550458,2088,2875,9_S
1789464439.355148,2271,2878,9_S
1789464439.3552,1846,2875,9_S
1789464439.3552482,1808,2875,9_S
1789464439.35664,2052,2877,9_S
1789464439.36751,2347,2877,9_S
1789464439.3699641,2280,2877,9_S
1789464439.374048,2166,2877,9_S
1789464439.37675,2107,2879,9_S
1789464439.3777149,2158,2878,9_S
1789464439.380373,2117,2876,9_S
1789464439.383122,2176,2878,9_S
1789464439.383646,1972,2875,9_S
1789464439.384141,1853,2874,9_S
1789464439.384705,1618,2874,9_S
1789464439.388,2080,2876,9_S
1789464439.3884192,2035,2877,9_S
1789464439.38857,1896,2874,9_S
1789464439.388635,2285,2878,9_S
1789464439.3886888,2237,2878,9_S
1789464439.388742,1963,2875,9_S
1789464439.3912451,2257,2878,9_S
1789464439.392562,2637,2878,9_S
1789464439.395183,2303,2877,9_S
1789464439.39661,2049,2875,9_S
1789464439.399234,2015,2875,9_S
1789464439.400553,1992,2875,9_S
1789464439.4030159,2098,2876,9_S
1789464439.405594,2136,2878,9_S
1789464439.406971,2091,2877,9_S
1789464439.409419,2009,2877,9_S
1789464439.410795,1880,2874,9_S
1789464439.413224,1887,2875,9_S
1789464439.415483,1924,2875,9_S
1789464439.4169002,1937,2875,9_S
1789464439.4196491,2050,2876,9_S
1789464439.4208589,2384,2877,9_S
1789464439.423499,2290,2876,9_S
1789464439.424746,2088,2877,9_S
1789464439.427147,1983,2874,9_S
1789464439.42934,1952,2875,9_S
1789464439.430557,2031,2876,9_S
1789464439.433669,2298,2878,9_S
1789464439.442375,2239,2878,9_S
1789464439.445438,2115,2877,9_S
1789464439.449043,2054,2877,9_S
1789464439.449425,1914,2875,9_S
1789464439.450263,2136,2878,9_S
1789464439.4524832,2215,2877,9_S
1789464439.456647,2122,2875,9_S
1789464439.457201,1996,2877,9_S
1789464439.4603992,1979,2875,9_S
1789464439.460999,1984,2874,9_S
1789464439.4614599,1941,2874,9_S
1789464439.461931,2031,2876,9_S
1789464439.464913,2134,2877,9_S
1789464439.46542,2082,2877,9_S
1789464439.465493,1846,2874,9_S
1789464439.465559,1882,2876,9_S
1789464439.466659,2327,2880,9_S
1789464439.469051,2259,2878,9_S
1789464439.4775,2182,2877,9_S
1789464439.479785,2096,2876,9_S
1789464439.484174,1839,2874,9_S
1789464439.486202,1881,2874,9_S
1789464439.4883242,2299,2878,9_S
1789464439.4897752,2252,2878,9_S
1789464439.492425,2056,2875,9_S
1789464439.4957519,2087,2876,9_S
1789464439.4962518,2111,2875,9_S
1789464439.4968479,2192,2877,9_S
1789464439.499871,1998,2875,9_S
1789464439.500709,1982,2876,9_S
1789464439.501081,2260,2878,9_S
1789464439.501176,2232,2878,9_S
1789464439.5012531,2143,2877,9_S
1789464439.501339,1948,2875,9_S
1789464439.50276,1923,2875,9_S
1789464439.505505,1969,2875,9_S
1789464439.5069172,2140,2878,9_S
1789464439.509417,2218,2877,9_S
1789464439.510538,2181,2877,9_S
1789464439.512974,2155,2877,9_S
1789464439.515397,1928,2875,9_S
1789464439.5165281,2094,2875,9_S
1789464439.518966,2163,2877,9_S
1789464439.521667,2166,2877,9_S
1789464439.5229208,2059,2877,9_S
1789464439.525336,1978,2875,9_S
1789464439.526568,2048,2876,9_S
1789464439.5291572,2055,2876,9_S
1789464439.5314891,1934,2875,9_S
1789464439.532604,1970,2875,9_S
1789464439.53524,2205,2879,9_S
1789464439.537535,2206,2877,9_S
1789464439.539028,2092,2877,9_S
1789464439.5412679,2076,2877,9_S
1789464439.5425951,2058,2877,9_S
1789464439.544864,2077,2877,9_S
1789464439.556628,2063,2875,9_S
1789464439.557255,2042,2875,9_S
1789464439.557756,2086,2875,9_S
1789464439.561237,2076,2877,9_S
1789464439.561988,2094,2876,9_S
1789464439.5623522,1961,2874,9_S
1789464439.5639849,2052,2877,9_S
1789464439.566334,2087,2876,9_S
1789464439.5686731,2083,2875,9_S
1789464439.5718231,2039,2875,9_S
1789464439.5720372,2041,2875,9_S
1789464439.572486,1860,2874,9_S
1789464439.572733,2149,2877,9_S
1789464439.575465,2278,2876,9_S
1789464439.57559,2102,2876,9_S
1789464439.5769112,2074,2878,9_S
1789464439.579191,2060,2874,9_S
1789464439.585728,2089,2877,9_S
1789464439.586813,2094,2875,9_S
1789464439.5875368,2049,2876,9_S
1789464439.5897589,2077,2877,9_S
1789464439.5899851,2100,2875,9_S
1789464439.593211,2076,2876,9_S
1789464439.593847,2066,2875,9_S
1789464439.595693,2027,2875,9_S
1789464439.5976582,2119,2875,9_S
1789464439.600319,2145,2875,9_S
1789464439.6030521,2048,2877,9_S
1789464439.603328,2097,2877,9_S
1789464439.605439,2061,2876,9_S
1789464439.6067939,1820,2873,9_S
1789464439.609388,2041,2876,9_S
1789464439.6107142,2204,2877,9_S
1789464439.6133,2182,2879,9_S
1789464439.614588,2120,2877,9_S
1789464439.6171079,2115,2878,9_S
1789464439.619412,2106,2875,9_S
1789464439.620585,2208,2878,9_S
1789464439.622838,2132,2875,9_S
1789464439.625358,1961,2874,9_S
1789464439.627712,1998,2874,9_S
1789464439.628802,2048,2878,9_S
1789464439.631351,2039,2873,9_S
1789464439.633488,2070,2875,9_S
1789464439.634604,2073,2877,9_S
1789464439.637163,2099,2878,9_S
1789464439.639288,2118,2878,9_S
1789464439.6419258,2069,2876,9_S
1789464439.647361,1891,2875,9_S
1789464439.6481762,1957,2875,9_S
1789464439.6488478,2148,2878,9_S
1789464439.651621,2271,2878,9_S
1789464439.6549802,2106,2877,9_S
1789464439.6573539,2089,2877,9_S
1789464439.6604202,2141,2876,9_S
1789464439.6606562,2096,2876,9_S
1789464439.660836,2018,2874,9_S
1789464439.661045,2031,2875,9_S
1789464439.6640792,2134,2878,9_S
1789464439.6671739,2068,2877,9_S
1789464439.667268,1996,2875,9_S
1789464439.669763,1923,2874,9_S
1789464439.671084,2037,2876,9_S
1789464439.677715,2221,2877,9_S
1789464439.679404,2151,2878,9_S
1789464439.681209,2114,2879,9_S
1789464439.6814568,2083,2878,9_S
1789464439.681661,2053,2875,9_S
1789464439.685921,2026,2875,9_S
1789464439.68662,2059,2874,9_S
1789464439.686791,2057,2878,9_S
1789464439.6918259,2066,2877,9_S
1789464439.6922739,2081,2877,9_S
1789464439.69471,2052,2876,9_S
1789464439.695503,2078,2877,9_S
1789464439.696741,2080,2879,9_S
1789464439.6990871,2095,2878,9_S
1789464439.7014241,2080,2878,9_S
1789464439.702528,2027,2876,9_S
1789464439.705089,2044,2878,9_S
1789464439.707237,2102,2876,9_S
1789464439.709585,2155,2876,9_S
1789464439.710863,2097,2877,9_S
1789464439.713133,2113,2877,9_S
1789464439.7152581,1898,2874,9_S
1789464439.716457,1972,2875,9_S
1789464439.719002,2130,2878,9_S
1789464439.72158,2219,2877,9_S
1789464439.722889,2142,2877,9_S
1789464439.725225,2088,2877,9_S
1789464439.7265658,2028,2876,9_S
1789464439.729129,2002,2874,9_S
1789464439.7304718,2013,2876,9_S
1789464439.732576,2130,2875,9_S
1789464439.7413602,2122,2878,9_S
1789464439.741549,2085,2878,9_S
1789464439.742888,2010,2875,9_S
1789464439.7448902,2025,2877,9_S
1789464439.745127,2104,2876,9_S
1789464439.7473311,2129,2878,9_S
1789464439.748066,2122,2878,9_S
1789464439.7503319,2058,2875,9_S
1789464439.751114,2045,2874,9_S
1789464439.753103,2035,2875,9_S
1789464439.755815,2024,2877,9_S
1789464439.758914,2062,2877,9_S
1789464439.75901,2052,2877,9_S
1789464439.761502,1953,2874,9_S
1789464439.7625759,1964,2875,9_S
1789464439.769514,1994,2876,9_S
1789464439.770126,2216,2879,9_S
1789464439.77032,2188,2878,9_S
1789464439.772453,2197,2878,9_S
1789464439.772912,2153,2877,9_S
1789464439.774957,2083,2876,9_S
1789464439.7777889,2101,2878,9_S
1789464439.782537,2079,2875,9_S
1789464439.7828119,2124,2877,9_S
1789464439.783069,2143,2878,9_S
1789464439.7857962,2047,2875,9_S
1789464439.786978,2053,2876,9_S
1789464439.789071,2033,2876,9_S
1789464439.791202,2020,2877,9_S
1789464439.792454,2045,2877,9_S
1789464439.794865,2027,2875,9_S
1789464439.797442,1964,2876,9_S
1789464439.7985122,2022,2876,9_S
1789464439.80085,2093,2879,9_S
1789464439.802944,2138,2877,9_S
1789464439.8051462,2197,2876,9_S
1789464439.8072379,2139,2877,9_S
1789464439.808556,2085,2877,9_S
1789464439.810731,2119,2877,9_S
1789464439.8128278,2139,2876,9_S
1789464439.8154151,2161,2876,9_S
1789464439.8166919,2082,2876,9_S
1789464439.819283,2019,2875,9_S
1789464439.820498,1997,2877,9_S
1789464439.8231108,2036,2875,9_S
1789464439.8284328,1949,2873,9_S
1789464439.829603,1994,2874,9_S
1789464439.830212,2098,2876,9_S
1789464439.831681,2170,2878,9_S
1789464439.833326,2108,2877,9_S
1789464439.834822,2098,2877,9_S
1789464439.837824,2109,2877,9_S
1789464439.840169,2112,2877,9_S
1789464439.842892,2033,2877,9_S
1789464439.843136,1987,2875,9_S
1789464439.844437,2158,2878,9_S
1789464439.846855,2127,2878,9_S
1789464439.8529658,2072,2875,9_S
1789464439.853149,1984,2874,9_S
1789464439.8554208,2033,2874,9_S
1789464439.858646,2029,2876,9_S
1789464439.859308,1979,2875,9_S
1789464439.860328,2154,2876,9_S
1789464439.860899,2198,2876,9_S
1789464439.862665,2042,2875,9_S
1789464439.865006,1906,2875,9_S
1789464439.867751,2011,2875,9_S
1789464439.8690739,2199,2878,9_S
1789464439.871416,2294,2878,9_S
1789464439.872704,2222,2876,9_S
1789464439.875048,2081,2878,9_S
1789464439.8766289,2013,2874,9_S
1789464439.879025,2059,2875,9_S
1789464439.881234,2157,2880,9_S
1789464439.882468,2031,2875,9_S
1789464439.884979,2053,2875,9_S
1789464439.887315,2084,2876,9_S
1789464439.888451,2046,2878,9_S
1789464439.8908339,2013,2876,9_S
1789464439.8931708,2029,2877,9_S
1789464439.895301,2094,2878,9_S
1789464439.896607,2130,2877,9_S
1789464439.899177,1919,2876,9_S
1789464439.901511,2040,2876,9_S
1789464439.9073138,2217,2878,9_S
1789464439.908035,2086,2877,9_S
1789464439.9086971,2102,2875,9_S
1789464439.9093602,2120,2876,9_S
1789464439.911526,2150,2877,9_S
1789464439.915447,2140,2877,9_S
1789464439.916002,2114,2876,9_S
1789464439.920547,2129,2875,9_S
1789464439.920973,2082,2878,9_S
1789464439.921132,2049,2877,9_S
1789464439.923718,1899,2873,9_S
1789464439.925046,1985,2876,9_S
1789464439.92643,2050,2877,9_S
1789464439.932179,2012,2874,9_S
1789464439.933187,2022,2876,9_S
1789464439.9337542,2100,2875,9_S
1789464439.936079,2140,2877,9_S
1789464439.938286,2170,2877,9_S
1789464439.9406998,2165,2877,9_S
1789464439.942503,2113,2877,9_S
1789464439.9451158,2110,2877,9_S
1789464439.945339,2056,2875,9_S
1789464439.9474392,2100,2875,9_S
1789464439.948808,2071,2876,9_S
1789464439.950898,2078,2875,9_S
1789464439.953276,2084,2877,9_S
1789464439.954588,2098,2877,9_S
1789464439.956959,2042,2875,9_S
1789464439.95907,1978,2874,9_S
1789464439.961452,2027,2875,9_S
1789464439.962604,2099,2876,9_S
1789464439.9647858,2114,2876,9_S
1789464439.967115,2023,2876,9_S
1789464439.9684129,2024,2874,9_S
1789464439.970787,2066,2876,9_S
1789464439.972873,2070,2876,9_S
1789464439.975183,2006,2876,9_S
1789464439.977532,1926,2874,9_S
1789464439.978678,2035,2876,9_S
1789464439.9812539,2221,2879,9_S
1789464439.982422,2233,2879,9_S
1789464439.988236,2111,2877,9_S
1789464439.988872,2119,2878,9_S
1789464439.989461,2163,2877,9_S
1789464439.991332,2168,2877,9_S
1789464439.993749,2107,2878,9_S
1789464439.996052,2066,2875,9_S
1789464439.998452,2093,2876,9_S
1789464440.000885,2070,2875,9_S
1789464440.0011032,1990,2876,9_S
1789464440.003619,2024,2877,9_S
1789464440.004834,2000,2876,9_S
1789464440.0073779,2027,2876,9_S
1789464440.012969,2086,2877,9_S
1789464440.013624,2118,2879,9_S
1789464440.014652,2085,2878,9_S
1789464440.0164149,2034,2876,9_S
1789464440.0179641,2017,2876,9_S
1789464440.0200782,2090,2877,9_S
1789464440.022858,2111,2877,9_S
1789464440.023262,2099,2876,9_S
1789464440.025633,2105,2877,9_S
1789464440.028019,2051,2876,9_S
1789464440.0293481,2111,2878,9_S
1789464440.030669,2107,2878,9_S
1789464440.03301,2082,2876,9_S
1789464440.034325,2046,2875,9_S
1789464440.036611,2112,2878,9_S
1789464440.038732,2124,2876,9_S
1789464440.0409229,2091,2876,9_S
1789464440.043415,2057,2877,9_S
1789464440.0444832,2065,2876,9_S
1789464440.046634,2072,2875,9_S
1789464440.048907,2088,2876,9_S
1789464440.05114,2070,2876,9_S
1789464440.053219,2063,2877,9_S
1789464440.054372,2089,2876,9_S
1789464440.0567,2107,2876,9_S
1789464440.059105,2024,2876,9_S
1789464440.061449,1987,2874,9_S
1789464440.062538,2057,2876,9_S
1789464440.067738,2110,2876,9_S
1789464440.0683331,2081,2874,9_S
1789464440.0697532,2070,2878,9_S
1789464440.0712981,2102,2876,9_S
1789464440.073359,2128,2876,9_S
1789464440.074944,2058,2875,9_S
1789464440.077559,2055,2877,9_S
1789464440.080273,2099,2878,9_S
1789464440.0806699,2113,2879,9_S
1789464440.082935,2082,2875,9_S
1789464440.0850189,2019,2876,9_S
1789464440.086317,2095,2877,9_S
1789464440.093172,2090,2877,9_S
1789464440.0950432,2050,2877,9_S
1789464440.0966341,2036,2876,9_S
1789464440.097475,2050,2874,9_S
1789464440.098333,2092,2876,9_S
1789464440.099265,2076,2876,9_S
1789464440.1015968,2049,2875,9_S
1789464440.104029,2082,2878,9_S
1789464440.10658,2084,2876,9_S
1789464440.106785,2064,2876,9_S
1789464440.1093519,2054,2876,9_S
1789464440.110414,2076,2877,9_S
1789464440.112988,2084,2877,9_S
1789464440.115306,2111,2879,9_S
1789464440.11637,2074,2875,9_S
1789464440.118437,2053,2875,9_S
1789464440.120998,2118,2878,9_S
1789464440.122335,2098,2876,9_S
1789464440.1248991,2084,2875,9_S
1789464440.12721,2062,2876,9_S
1789464440.128513,2073,2876,9_S
1789464440.130822,2113,2878,9_S
1789464440.133138,2053,2876,9_S
1789464440.135517,2037,2876,9_S
1789464440.136816,2111,2878,9_S
1789464440.139294,2114,2877,9_S
1789464440.140594,2046,2876,9_S
1789464440.146555,2070,2876,9_S
1789464440.147132,2057,2877,9_S
1789464440.147638,2102,2877,9_S
1789464440.149824,2095,2875,9_S
1789464440.152145,2121,2879,9_S
1789464440.152666,2072,2878,9_S
1789464440.1560588,2074,2876,9_S
1789464440.158453,2095,2876,9_S
1789464440.158668,2062,2876,9_S
1789464440.16121,2052,2876,9_S
1789464440.162518,2065,2875,9_S
1789464440.169306,2083,2875,9_S
1789464440.170272,2057,2876,9_S
1789464440.170752,2035,2876,9_S
1789464440.170877,2085,2876,9_S
1789464440.172605,2111,2876,9_S
1789464440.175821,2057,2877,9_S
1789464440.178455,2090,2877,9_S
1789464440.180827,2027,2874,9_S
1789464440.180958,2076,2877,9_S
1789464440.1829498,2084,2876,9_S
1789464440.184267,2065,2875,9_S
1789464440.18683,2112,2878,9_S
1789464440.1891708,2122,2875,9_S
1789464440.190277,2104,2875,9_S
1789464440.192844,2049,2876,9_S
1789464440.195071,2036,2874,9_S
1789464440.196373,2085,2876,9_S
1789464440.198931,2110,2876,9_S
1789464440.200265,2065,2875,9_S
1789464440.202823,2105,2877,9_S
1789464440.205138,2154,2876,9_S
1789464440.206274,2100,2876,9_S
1789464440.208844,2075,2876,9_S
1789464440.21124,2019,2875,9_S
1789464440.2125409,2050,2875,9_S
1789464440.2150989,2109,2876,9_S
1789464440.2162502,2084,2876,9_S
1789464440.218673,2074,2876,9_S
1789464440.223598,2088,2876,9_S
1789464440.224257,2098,2876,9_S
1789464440.224828,2051,2875,9_S
1789464440.227308,2066,2877,9_S
1789464440.229183,2102,2877,9_S
1789464440.2306108,2141,2878,9_S
1789464440.2352378,2081,2876,9_S
1789464440.235491,2064,2875,9_S
1789464440.2374332,2102,2876,9_S
1789464440.2385018,2072,2876,9_S
1789464440.240582,1997,2876,9_S
1789464440.245975,2004,2874,9_S
1789464440.246146,2019,2875,9_S
1789464440.246989,2062,2876,9_S
1789464440.2489321,2114,2878,9_S
1789464440.250539,2018,2875,9_S
1789464440.258971,2029,2874,9_S
1789464440.259052,2060,2877,9_S
1789464440.259139,2093,2876,9_S
1789464440.259177,2078,2877,9_S
1789464440.260832,2067,2877,9_S
1789464440.2684631,2056,2874,9_S
1789464440.268511,2063,2876,9_S
1789464440.26855,2097,2878,9_S
1789464440.268588,2028,2875,9_S
1789464440.2763252,2097,2878,9_S
1789464440.276819,2132,2876,9_S
1789464440.276865,2041,2875,9_S
1789464440.280591,2033,2875,9_S
1789464440.287827,2100,2878,9_S
1789464440.287874,2128,2878,9_S
1789464440.288216,2093,2875,9_S
1789464440.292927,2015,2874,9_S
1789464440.292971,2046,2878,9_S
1789464440.2930088,2090,2877,9_S
1789464440.293143,2064,2876,9_S
1789464440.293205,2041,2877,9_S
1789464440.300958,2059,2877,9_S
1789464440.317399,2078,2874,9_S
1789464440.3175669,2072,2877,9_S
1789464440.3177521,2069,2876,9_S
1789464440.317942,2078,2878,9_S
1789464440.3182569,2139,2876,9_S
1789464440.31855,2123,2876,9_S
1789464440.320805,2049,2876,9_S
1789464440.32169,2045,2877,9_S
1789464440.321744,2055,2875,9_S
1789464440.3217862,2099,2876,9_S
1789464440.321971,2076,2876,9_S
1789464440.322017,2056,2874,9_S
1789464440.3221388,2080,2877,9_S
1789464440.323329,2094,2876,9_S
1789464440.3246331,2073,2876,9_S
1789464440.329866,2065,2875,9_S
1789464440.330914,2100,2877,9_S
1789464440.331487,2070,2876,9_S
1789464440.333708,2078,2876,9_S
1789464440.335696,2080,2878,9_S
1789464440.337286,2100,2877,9_S
1789464440.339953,2089,2876,9_S
1789464440.34215,2066,2875,9_S
1789464440.3423092,2057,2876,9_S
1789464440.344811,2068,2877,9_S
1789464440.347407,2090,2875,9_S
1789464440.348711,2082,2876,9_S
1789464440.3510342,2065,2876,9_S
1789464440.352337,2059,2878,9_S
1789464440.354435,2114,2877,9_S
1789464440.356993,2125,2876,9_S
1789464440.3582919,2067,2876,9_S
1789464440.360615,2054,2877,9_S
1789464440.3631701,2082,2875,9_S
1789464440.364469,2093,2876,9_S
1789464440.3667881,2096,2876,9_S
1789464440.369344,2057,2874,9_S
1789464440.370645,2084,2877,9_S
1789464440.372965,2097,2876,9_S
1789464440.375366,2060,2876,9_S
1789464440.376665,2056,2876,9_S
1789464440.378997,2081,2877,9_S
1789464440.385304,2099,2876,9_S
1789464440.385793,2097,2876,9_S
1789464440.3867671,2062,2876,9_S
1789464440.386881,2105,2877,9_S
1789464440.388335,2117,2875,9_S
1789464440.391642,2091,2875,9_S
1789464440.393989,2058,2875,9_S
1789464440.395927,2068,2876,9_S
1789464440.3978298,2090,2875,9_S
1789464440.3991308,2078,2875,9_S
1789464440.4004312,2083,2876,9_S
1789464440.4066172,2066,2878,9_S
1789464440.407399,2123,2876,9_S
1789464440.408793,2067,2875,9_S
1789464440.408949,2049,2876,9_S
1789464440.410928,2049,2877,9_S
1789464440.412297,2091,2877,9_S
1789464440.414412,2093,2876,9_S
1789464440.416349,2083,2876,9_S
1789464440.4182541,2056,2875,9_S
1789464440.420817,2099,2877,9_S
1789464440.423149,2082,2876,9_S
1789464440.424456,2076,2875,9_S
1789464440.4267688,2065,2876,9_S
1789464440.428836,2063,2873,9_S
1789464440.431147,2098,2876,9_S
1789464440.4322078,2067,2876,9_S
1789464440.434286,2058,2876,9_S
1789464440.436595,2083,2877,9_S
1789464440.439147,2112,2876,9_S
1789464440.440198,2063,2876,9_S
1789464440.442315,2046,2876,9_S
1789464440.4449222,2043,2874,9_S
1789464440.447059,2083,2877,9_S
1789464440.44818,2092,2876,9_S
1789464440.450512,2091,2879,9_S
1789464440.455457,2082,2877,9_S
1789464440.456367,2088,2876,9_S
1789464440.45648,2073,2876,9_S
1789464440.4584699,2070,2876,9_S
1789464440.461119,2046,2876,9_S
1789464440.462579,2077,2875,9_S
1789464440.465913,2087,2876,9_S
1789464440.4680781,2066,2876,9_S
1789464440.46828,2064,2879,9_S
1789464440.4703538,2077,2876,9_S
1789464440.475793,2097,2876,9_S
1789464440.476275,2073,2876,9_S
1789464440.476753,2050,2877,9_S
1789464440.4788291,2070,2877,9_S
1789464440.480497,2089,2876,9_S
1789464440.48431,2092,2875,9_S
1789464440.486185,2070,2875,9_S
1789464440.486411,2082,2877,9_S
1789464440.488608,2105,2875,9_S
1789464440.491175,2085,2875,9_S
1789464440.492256,2055,2877,9_S
1789464440.49459,2071,2876,9_S
1789464440.496744,2074,2875,9_S
1789464440.499306,2076,2876,9_S
1789464440.500602,2049,2875,9_S
1789464440.50291,2064,2877,9_S
1789464440.504205,2114,2876,9_S
1789464440.506512,2084,2876,9_S
1789464440.508789,2043,2876,9_S
1789464440.510198,2072,2877,9_S
1789464440.512511,2075,2875,9_S
1789464440.5150132,2101,2876,9_S
1789464440.517338,2069,2876,9_S
1789464440.518633,2039,2875,9_S
1789464440.521086,2052,2877,9_S
1789464440.526589,2074,2876,9_S
1789464440.5270872,2076,2876,9_S
1789464440.52754,2057,2876,9_S
1789464440.529292,2074,2877,9_S
1789464440.531033,2082,2875,9_S
1789464440.5324621,2098,2875,9_S
1789464440.534886,2086,2876,9_S
1789464440.536769,2076,2877,9_S
1789464440.538681,2117,2875,9_S
1789464440.540993,2097,2876,9_S
1789464440.5422962,2051,2875,9_S
1789464440.547219,2035,2873,9_S
1789464440.548063,2055,2877,9_S
1789464440.549802,2053,2876,9_S
1789464440.5514722,2074,2875,9_S
1789464440.553473,2054,2874,9_S
1789464440.555219,2094,2876,9_S
1789464440.557023,2098,2876,9_S
1789464440.5592818,2028,2875,9_S
1789464440.5605838,2063,2876,9_S
1789464440.5631402,2079,2877,9_S
1789464440.564267,2104,2878,9_S
1789464440.56657,2053,2875,9_S
1789464440.568884,2101,2878,9_S
1789464440.570944,2134,2877,9_S
1789464440.5722392,2128,2876,9_S
1789464440.5747619,2073,2875,9_S
1789464440.5761652,2028,2876,9_S
1789464440.5784829,2039,2874,9_S
1789464440.580798,2052,2875,9_S
1789464440.582151,2087,2876,9_S
1789464440.584704,2049,2875,9_S
1789464440.587255,2051,2878,9_S
1789464440.588306,2083,2876,9_S
1789464440.59476,2061,2875,9_S
1789464440.5952199,2079,2876,9_S
1789464440.5956311,2050,2874,9_S
1789464440.5983071,2061,2875,9_S
1789464440.598732,2064,2876,9_S
1789464440.600707,2078,2875,9_S
1789464440.603682,2078,2878,9_S
1789464440.605738,2065,2876,9_S
1789464440.607039,2086,2875,9_S
1789464440.608334,2094,2876,9_S
1789464440.61089,2067,2877,9_S
1789464440.612991,2112,2878,9_S
1789464440.6153002,2046,2875,9_S
1789464440.616359,2072,2875,9_S
1789464440.618581,2058,2875,9_S
1789464440.6208901,2125,2876,9_S
1789464440.622186,2086,2876,9_S
1789464440.624736,2025,2875,9_S
1789464440.626973,2026,2876,9_S
1789464440.628269,2057,2873,9_S
1789464440.630823,2080,2875,9_S
1789464440.633141,2114,2875,9_S
1789464440.6344352,2067,2876,9_S
1789464440.6367402,2023,2875,9_S
1789464440.641243,2098,2877,9_S
1789464440.642816,2113,2876,9_S
1789464440.644076,2014,2876,9_S
1789464440.644277,2068,2877,9_S
1789464440.6473322,2095,2874,9_S
1789464440.649428,2040,2876,9_S
1789464440.651114,2010,2876,9_S
1789464440.653295,1993,2874,9_S
1789464440.6546078,2159,2877,9_S
1789464440.6571698,2160,2876,9_S
1789464440.658467,2128,2875,9_S
1789464440.661031,2093,2876,9_S
1789464440.662326,2090,2878,9_S
1789464440.6648781,2108,2876,9_S
1789464440.666979,2124,2876,9_S
1789464440.668108,2090,2875,9_S
1789464440.670634,2067,2878,9_S
1789464440.673198,2059,2875,9_S
1789464440.674262,1958,2875,9_S
1789464440.676815,2005,2876,9_S
1789464440.678873,1996,2875,9_S
1789464440.681199,2117,2878,9_S
1789464440.6824908,2127,2879,9_S
1789464440.687513,2138,2877,9_S
1789464440.688551,2082,2877,9_S
1789464440.6889842,2119,2877,9_S
1789464440.691082,2134,2877,9_S
1789464440.693388,2066,2877,9_S
1789464440.6951628,1945,2874,9_S
1789464440.696609,1970,2875,9_S
1789464440.6982772,2148,2878,9_S
1789464440.7005079,2144,2877,9_S
1789464440.703051,2076,2878,9_S
1789464440.704349,2040,2876,9_S
1789464440.7066848,2083,2878,9_S
1789464440.708995,2159,2877,9_S
1789464440.710294,2097,2877,9_S
1789464440.712359,2103,2878,9_S
1789464440.71491,2044,2874,9_S
1789464440.716085,2028,2875,9_S
1789464440.7181509,2013,2876,9_S
1789464440.72047,2027,2877,9_S
1789464440.7230232,2070,2877,9_S
1789464440.7240808,2093,2876,9_S
1789464440.72663,2108,2877,9_S
1789464440.7291808,2136,2878,9_S
1789464440.730473,2085,2876,9_S
1789464440.7353752,2054,2876,9_S
1789464440.735822,1935,2876,9_S
1789464440.737674,2076,2875,9_S
1789464440.7395399,2193,2877,9_S
1789464440.7409909,2103,2876,9_S
1789464440.7431328,2008,2875,9_S
1789464440.744868,2023,2876,9_S
1789464440.746917,2047,2875,9_S
1789464440.748188,2111,2876,9_S
1789464440.7505012,2167,2879,9_S
1789464440.753066,2121,2877,9_S
1789464440.754127,2049,2876,9_S
1789464440.756683,2069,2875,9_S
1789464440.758862,2049,2876,9_S
1789464440.7609432,2045,2877,9_S
1789464440.762239,2048,2876,9_S
1789464440.764792,2075,2875,9_S
1789464440.766089,2064,2876,9_S
1789464440.76864,2031,2875,9_S
1789464440.7707891,2022,2874,9_S
1789464440.7720819,2032,2877,9_S
1789464440.7746298,2077,2877,9_S
1789464440.77693,2075,2876,9_S
1789464440.7821162,2141,2877,9_S
1789464440.782516,2129,2877,9_S
1789464440.782976,2174,2878,9_S
