timestamp,ch1,ch2,label
1789463715.231245,2058,2875,e
1789463715.2312782,2060,2876,e
1789463715.234016,2082,2874,e
1789463715.236335,2073,2875,e
1789463715.236541,2062,2875,e
1789463715.2393441,2086,2877,e
1789463715.24132,2095,2876,e
1789463715.243213,2073,2876,e
1789463715.2445061,2069,2874,e
1789463715.247055,2059,2875,e
1789463715.2496262,2082,2874,e
1789463715.250679,2067,2875,e
1789463715.25278,2052,2875,e
1789463715.254855,2058,2874,e
1789463715.257152,2097,2876,e
1789463715.258441,2086,2874,e
1789463715.260747,2073,2875,e
1789463715.263285,2052,2875,e
1789463715.264443,2081,2878,e
1789463715.266742,2104,2876,e
1789463715.26929,2092,2875,e
1789463715.270566,2083,2877,e
1789463715.273012,2105,2876,e
1789463715.2754738,2085,2876,e
1789463715.2765188,2077,2875,e
1789463715.278819,2052,2875,e
1789463715.281122,2065,2876,e
1789463715.282466,2090,2876,e
1789463715.2874482,2091,2875,e
1789463715.287843,2046,2875,e
1789463715.28988,2085,2876,e
1789463715.291766,2097,2876,e
1789463715.294645,2073,2875,e
1789463715.294739,2060,2874,e
1789463715.2972522,2062,2876,e
1789463715.298569,2078,2874,e
1789463715.300642,2077,2874,e
1789463715.303187,2075,2875,e
1789463715.304479,2069,2877,e
1789463715.3070269,2097,2875,e
1789463715.309567,2091,2875,e
1789463715.310713,2084,2875,e
1789463715.3132539,2068,2876,e
1789463715.315524,2085,2876,e
1789463715.316809,2092,2874,e
1789463715.319347,2071,2875,e
1789463715.3206341,2073,2875,e
1789463715.323184,2105,2876,e
1789463715.3244731,2088,2875,e
1789463715.3269372,2085,2874,e
1789463715.329477,2066,2876,e
1789463715.330765,2065,2875,e
1789463715.332983,2079,2874,e
1789463715.335222,2084,2875,e
1789463715.337507,2055,2875,e
1789463715.338791,2093,2877,e
1789463715.343221,2102,2876,e
1789463715.3435462,2095,2874,e
1789463715.345237,2044,2874,e
1789463715.347033,2074,2876,e
1789463715.349474,2081,2874,e
1789463715.352051,2085,2875,e
1789463715.3533409,2079,2875,e
1789463715.354495,2086,2877,e
1789463715.3567948,2093,2876,e
1789463715.359093,2075,2874,e
1789463715.36139,2075,2874,e
1789463715.3624792,2071,2875,e
1789463715.364788,2070,2876,e
1789463715.367216,2089,2875,e
1789463715.369299,2054,2874,e
1789463715.370589,2068,2874,e
1789463715.373129,2082,2876,e
1789463715.3751922,2089,2875,e
1789463715.376477,2068,2876,e
1789463715.378777,2061,2876,e
1789463715.380835,2070,2875,e
1789463715.382901,2082,2874,e
1789463715.3852181,2083,2875,e
1789463715.387279,2057,2874,e
1789463715.388563,2072,2877,e
1789463715.3911018,2100,2874,e
1789463715.393173,2067,2874,e
1789463715.3981671,2047,2875,e
1789463715.398579,2057,2876,e
1789463715.3987148,2083,2877,e
1789463715.401799,2075,2874,e
1789463715.403598,2090,2874,e
1789463715.405343,2074,2877,e
1789463715.4069881,2106,2875,e
1789463715.409303,2076,2874,e
1789463715.410594,2072,2875,e
1789463715.412927,2062,2875,e
1789463715.415081,2078,2875,e
1789463715.417629,2107,2876,e
1789463715.418915,2071,2875,e
1789463715.421262,2061,2875,e
1789463715.422548,2095,2877,e
1789463715.425088,2113,2875,e
1789463715.427142,2074,2875,e
1789463715.428482,2056,2876,e
1789463715.43103,2066,2876,e
1789463715.4333272,2069,2874,e
1789463715.434617,2088,2875,e
1789463715.436911,2072,2875,e
1789463715.439206,2123,2877,e
1789463715.440489,2113,2876,e
1789463715.443027,2085,2875,e
1789463715.445565,2061,2875,e
1789463715.4468732,2060,2875,e
1789463715.450766,2091,2876,e
1789463715.4511092,2102,2878,e
1789463715.452662,2074,2874,e
1789463715.455317,2061,2877,e
1789463715.457319,2089,2876,e
1789463715.4588768,2093,2877,e
1789463715.461196,2063,2875,e
1789463715.4632618,2054,2876,e
1789463715.46557,2063,2874,e
1789463715.46662,2071,2875,e
1789463715.4687202,2084,2875,e
1789463715.470779,2060,2874,e
1789463715.4733272,2071,2876,e
1789463715.474613,2083,2875,e
1789463715.477015,2083,2875,e
1789463715.479558,2077,2875,e
1789463715.480608,2069,2876,e
1789463715.4829261,2106,2877,e
1789463715.48546,2078,2875,e
1789463715.486749,2060,2875,e
1789463715.489055,2092,2876,e
1789463715.491349,2105,2876,e
1789463715.492633,2099,2875,e
1789463715.494931,2077,2876,e
1789463715.497241,2067,2876,e
1789463715.501406,2085,2876,e
1789463715.502496,2094,2875,e
1789463715.5029461,2079,2874,e
1789463715.505834,2065,2875,e
1789463715.5084648,2086,2877,e
1789463715.5085802,2083,2875,e
1789463715.51121,2048,2874,e
1789463715.512502,2050,2875,e
1789463715.5147069,2078,2876,e
1789463715.5172591,2091,2874,e
1789463715.5185542,2070,2876,e
1789463715.520777,2079,2875,e
1789463715.5233212,2095,2876,e
1789463715.5246038,2111,2876,e
1789463715.526904,2081,2875,e
1789463715.5293021,2053,2874,e
1789463715.530587,2050,2873,e
1789463715.5331259,2089,2873,e
1789463715.5354261,2068,2875,e
1789463715.5364668,2052,2875,e
1789463715.539006,2085,2877,e
1789463715.5410728,2108,2875,e
1789463715.5435898,2074,2874,e
1789463715.544641,2043,2875,e
1789463715.546737,2048,2876,e
1789463715.54928,2089,2876,e
1789463715.550657,2100,2878,e
1789463715.554019,2065,2875,e
1789463715.556105,2069,2878,e
1789463715.558274,2105,2876,e
1789463715.558644,2080,2876,e
1789463715.5608351,2062,2876,e
1789463715.56335,2044,2876,e
1789463715.564639,2049,2874,e
1789463715.567204,2073,2874,e
1789463715.5683389,2067,2875,e
1789463715.570896,2066,2873,e
1789463715.574634,2085,2875,e
1789463715.575001,2098,2875,e
1789463715.576399,2069,2875,e
1789463715.5790179,2055,2875,e
1789463715.580522,2046,2874,e
1789463715.5831318,2083,2875,e
1789463715.584429,2091,2875,e
1789463715.586981,2065,2876,e
1789463715.589277,2074,2876,e
1789463715.590563,2094,2875,e
1789463715.593104,2093,2874,e
1789463715.595176,2051,2875,e
1789463715.5972621,2065,2875,e
1789463715.598319,2100,2877,e
1789463715.600613,2092,2875,e
1789463715.6026702,2070,2875,e
1789463715.6049652,2056,2873,e
1789463715.607264,2094,2874,e
1789463715.60834,2086,2874,e
1789463715.6106398,2063,2874,e
1789463715.612937,2072,2874,e
1789463715.615104,2082,2876,e
1789463715.6163871,2102,2877,e
1789463715.618488,2080,2875,e
1789463715.621042,2061,2875,e
1789463715.626168,2098,2876,e
1789463715.626967,2117,2876,e
1789463715.627744,2073,2875,e
1789463715.6305048,2057,2874,e
1789463715.630985,2061,2875,e
1789463715.632532,2091,2878,e
1789463715.634528,2078,2873,e
1789463715.6373692,2061,2874,e
1789463715.638429,2061,2877,e
1789463715.640977,2099,2876,e
1789463715.642324,2089,2874,e
1789463715.6461172,2058,2874,e
1789463715.648774,2056,2876,e
1789463715.648961,2074,2874,e
1789463715.651466,2061,2874,e
1789463715.6531892,2066,2875,e
1789463715.6555,2055,2875,e
1789463715.6565928,2080,2875,e
1789463715.6591449,2101,2876,e
1789463715.6604328,2066,2875,e
1789463715.6629739,2056,2876,e
1789463715.6651871,2087,2875,e
1789463715.666471,2114,2877,e
1789463715.669012,2082,2875,e
1789463715.6710641,2065,2874,e
1789463715.6733692,2118,2876,e
1789463715.6746619,2111,2875,e
1789463715.677207,2099,2876,e
1789463715.678327,2060,2875,e
1789463715.6808739,2065,2876,e
1789463715.683412,2081,2875,e
1789463715.684581,2084,2875,e
1789463715.687126,2063,2873,e
1789463715.688413,2088,2878,e
1789463715.690712,2108,2875,e
1789463715.693252,2096,2875,e
1789463715.694549,2052,2874,e
1789463715.698246,2054,2875,e
1789463715.698666,2074,2873,e
1789463715.700948,2092,2875,e
1789463715.702465,2074,2874,e
1789463715.705961,2059,2875,e
1789463715.707935,2096,2876,e
1789463715.709227,2082,2874,e
1789463715.7105632,2064,2874,e
1789463715.712867,2065,2875,e
1789463715.7154272,2064,2874,e
1789463715.716715,2080,2874,e
1789463715.7190132,2088,2876,e
1789463715.720319,2066,2875,e
1789463715.7223759,2077,2875,e
1789463715.724916,2116,2876,e
1789463715.727222,2060,2875,e
1789463715.728508,2053,2875,e
1789463715.731047,2043,2874,e
1789463715.733589,2076,2876,e
1789463715.734873,2093,2874,e
1789463715.737432,2060,2875,e
1789463715.7384908,2079,2877,e
1789463715.740809,2114,2875,e
1789463715.7431018,2091,2875,e
1789463715.745164,2082,2875,e
1789463715.750741,2075,2875,e
1789463715.751405,2090,2877,e
1789463715.7517939,2108,2874,e
1789463715.754673,2092,2875,e
1789463715.755031,2083,2877,e
1789463715.757459,2093,2875,e
1789463715.7598588,2079,2875,e
1789463715.761152,2040,2875,e
1789463715.762374,2052,2875,e
1789463715.7645388,2052,2873,e
1789463715.7668512,2066,2874,e
1789463715.770818,2063,2875,e
1789463715.771538,2044,2874,e
1789463715.773176,2088,2876,e
1789463715.774687,2103,2875,e
1789463715.7779388,2098,2875,e
1789463715.7797902,2057,2875,e
1789463715.78109,2072,2877,e
1789463715.78238,2074,2874,e
1789463715.784707,2111,2876,e
1789463715.787256,2075,2875,e
1789463715.78854,2078,2877,e
1789463715.790602,2125,2876,e
1789463715.793142,2120,2875,e
1789463715.794427,2069,2875,e
1789463715.796968,2032,2873,e
1789463715.798329,2072,2875,e
1789463715.800879,2085,2876,e
1789463715.803089,2045,2875,e
1789463715.8053901,2043,2874,e
1789463715.8066728,2083,2876,e
1789463715.8092139,2110,2875,e
1789463715.810345,2063,2874,e
1789463715.812649,2044,2875,e
1789463715.815168,2083,2877,e
1789463715.816365,2114,2876,e
1789463715.819,2101,2874,e
1789463715.822203,2075,2875,e
1789463715.824144,2133,2875,e
1789463715.825578,2126,2876,e
1789463715.8272572,2065,2874,e
1789463715.829395,2071,2875,e
1789463715.8310652,2049,2873,e
1789463715.833128,2082,2875,e
1789463715.835426,2065,2874,e
1789463715.836483,2031,2875,e
1789463715.839024,2075,2876,e
1789463715.840318,2086,2875,e
1789463715.842865,2074,2875,e
1789463715.8451579,2054,2876,e
1789463715.8464441,2043,2876,e
1789463715.848983,2088,2875,e
1789463715.850272,2099,2874,e
1789463715.852813,2059,2875,e
1789463715.855356,2082,2876,e
1789463715.856394,2108,2876,e
1789463715.858695,2071,2874,e
1789463715.8608499,2002,2875,e
1789463715.8632278,2004,2874,e
1789463715.864518,2083,2877,e
1789463715.866821,2108,2877,e
1789463715.872535,2072,2876,e
1789463715.873367,2015,2874,e
1789463715.87403,2081,2877,e
1789463715.876789,2109,2876,e
1789463715.8774168,2106,2875,e
1789463715.8792791,2076,2875,e
1789463715.881923,2054,2875,e
1789463715.883322,2104,2876,e
1789463715.884376,2084,2875,e
1789463715.886938,2070,2874,e
1789463715.889235,2070,2877,e
1789463715.890522,2135,2876,e
1789463715.892822,2133,2875,e
1789463715.895128,2038,2874,e
1789463715.896217,2015,2872,e
1789463715.8987641,2093,2874,e
1789463715.9008799,2106,2876,e
1789463715.9031942,2097,2875,e
1789463715.904479,2083,2877,e
1789463715.907017,2070,2875,e
1789463715.908301,2059,2875,e
1789463715.910846,2062,2875,e
1789463715.913141,2041,2876,e
1789463715.9144242,2133,2877,e
1789463715.9169621,2197,2877,e
1789463715.919032,2036,2875,e
1789463715.9213371,2015,2875,e
1789463715.926024,2089,2877,e
1789463715.926153,2093,2876,e
1789463715.9265752,2093,2874,e
1789463715.928386,2062,2877,e
1789463715.9316878,2034,2875,e
1789463715.934101,2073,2873,e
1789463715.934297,2050,2875,e
1789463715.936783,2009,2875,e
1789463715.93919,2096,2876,e
1789463715.940246,2103,2876,e
1789463715.942549,2105,2875,e
1789463715.944664,2173,2875,e
1789463715.94696,2167,2876,e
1789463715.948245,2130,2877,e
1789463715.950786,1968,2875,e
1789463715.953085,2067,2875,e
1789463715.95437,2228,2877,e
1789463715.956661,2159,2877,e
1789463715.959199,1989,2875,e
1789463715.9602518,1992,2875,e
1789463715.962798,2022,2875,e
1789463715.965131,2073,2877,e
1789463715.966419,2073,2875,e
1789463715.9684968,2033,2875,e
1789463715.970598,2033,2875,e
1789463715.9728909,2045,2874,e
1789463715.975191,2069,2876,e
1789463715.97955,2105,2875,e
1789463715.9799502,2069,2876,e
1789463715.981285,2025,2876,e
1789463715.983072,2009,2875,e
1789463715.9846542,2092,2875,e
1789463715.986845,2167,2877,e
1789463715.988551,2123,2878,e
1789463715.991082,2126,2875,e
1789463715.9923682,2013,2875,e
1789463715.994911,2081,2875,e
1789463715.9962308,2069,2875,e
1789463715.998545,2011,2873,e
1789463716.000609,1989,2875,e
1789463716.002667,2110,2876,e
1789463716.005207,2271,2878,e
1789463716.006252,2095,2876,e
1789463716.0085561,1999,2875,e
1789463716.010619,2264,2875,e
1789463716.0129259,1938,2874,e
1789463716.015331,1941,2874,e
1789463716.0163882,2253,2878,e
1789463716.018699,2137,2877,e
1789463716.020915,1914,2874,e
1789463716.023212,1845,2873,e
1789463716.0244951,1970,2873,e
1789463716.0270321,2003,2875,e
1789463716.031447,1993,2874,e
1789463716.031769,2131,2876,e
1789463716.03394,2067,2876,e
1789463716.035363,1985,2875,e
1789463716.0370948,2093,2874,e
1789463716.039488,2114,2877,e
1789463716.041166,2141,2876,e
1789463716.042455,2119,2876,e
1789463716.044994,2013,2876,e
1789463716.0462809,2026,2873,e
1789463716.048823,2084,2877,e
1789463716.05089,2185,2877,e
1789463716.0521832,2098,2877,e
1789463716.054722,2052,2874,e
1789463716.0572631,2070,2877,e
1789463716.058316,2203,2876,e
1789463716.0606139,2073,2876,e
1789463716.062832,2015,2874,e
1789463716.064233,2061,2875,e
1789463716.0664058,2122,2877,e
1789463716.068672,1995,2873,e
1789463716.0710678,2114,2876,e
1789463716.072352,1991,2875,e
1789463716.0744262,1930,2873,e
1789463716.076715,2066,2876,e
1789463716.08185,2079,2876,e
1789463716.082855,2113,2875,e
1789463716.0829551,2129,2876,e
1789463716.085435,2084,2877,e
1789463716.0869708,2010,2874,e
1789463716.0895941,2075,2874,e
1789463716.091427,2135,2877,e
1789463716.09249,2110,2876,e
1789463716.0947452,2072,2876,e
1789463716.096844,2047,2874,e
1789463716.098186,2108,2875,e
1789463716.100481,1974,2875,e
1789463716.1027899,2025,2875,e
1789463716.10515,1985,2874,e
1789463716.1062279,2180,2876,e
1789463716.108288,2088,2876,e
1789463716.1103628,2100,2876,e
1789463716.112479,2035,2875,e
1789463716.114562,1999,2873,e
1789463716.116822,2065,2874,e
1789463716.118939,2231,2876,e
1789463716.120246,2108,2876,e
1789463716.122584,2030,2874,e
1789463716.1246562,2123,2876,e
1789463716.126959,2022,2876,e
1789463716.1284192,1972,2872,e
1789463716.1315122,1926,2875,e
1789463716.133481,2101,2876,e
1789463716.134953,2120,2877,e
1789463716.137005,2014,2874,e
1789463716.139637,2184,2876,e
1789463716.1413271,2083,2876,e
1789463716.142635,2126,2876,e
1789463716.144902,2126,2875,e
1789463716.147082,2031,2875,e
1789463716.148214,1964,2875,e
1789463716.150371,1940,2874,e
1789463716.1528902,2106,2877,e
1789463716.155238,2009,2873,e
1789463716.156414,2027,2875,e
1789463716.1586199,2053,2875,e
1789463716.160686,2242,2876,e
1789463716.162741,2155,2876,e
1789463716.165014,2167,2878,e
1789463716.166314,2092,2875,e
1789463716.1686919,2095,2874,e
1789463716.171254,2076,2875,e
1789463716.172502,2077,2876,e
1789463716.174674,2142,2876,e
1789463716.1768188,2070,2876,e
1789463716.181321,1865,2874,e
1789463716.181757,2003,2874,e
1789463716.183747,2136,2877,e
1789463716.1856,2063,2874,e
1789463716.188159,2007,2874,e
1789463716.188394,2024,2875,e
1789463716.191089,2140,2876,e
1789463716.1921642,2075,2875,e
1789463716.194724,2185,2876,e
1789463716.197044,2083,2876,e
1789463716.1982248,1964,2875,e
1789463716.200345,2065,2875,e
1789463716.202645,2213,2878,e
1789463716.205066,2134,2877,e
1789463716.206199,1920,2872,e
1789463716.2085278,1941,2873,e
1789463716.210837,2094,2876,e
1789463716.213152,2147,2876,e
1789463716.214365,2009,2873,e
1789463716.216705,2102,2877,e
1789463716.218123,2059,2874,e
1789463716.220194,2086,2875,e
1789463716.222513,1931,2874,e
1789463716.2250628,2118,2876,e
1789463716.22621,2239,2876,e
1789463716.233121,2136,2876,e
1789463716.2332249,2149,2876,e
1789463716.233962,2052,2874,e
1789463716.235105,2122,2874,e
1789463716.236923,1925,2875,e
1789463716.238543,2057,2874,e
1789463716.2410371,2101,2876,e
1789463716.2428741,2110,2874,e
1789463716.2441752,1970,2875,e
1789463716.246491,2036,2876,e
1789463716.249046,1984,2874,e
1789463716.250104,2050,2874,e
1789463716.252408,2081,2876,e
1789463716.254587,2110,2875,e
1789463716.2568939,2090,2877,e
1789463716.2581792,2028,2876,e
1789463716.26072,1859,2873,e
1789463716.2620769,2192,2876,e
1789463716.264386,2036,2875,e
1789463716.2664828,2089,2877,e
1789463716.268862,2234,2877,e
1789463716.270118,2096,2875,e
1789463716.27245,2142,2876,e
1789463716.274525,2121,2876,e
1789463716.276832,2100,2876,e
1789463716.278115,2126,2876,e
1789463716.2806542,2026,2876,e
1789463716.28569,1949,2875,e
1789463716.2860951,2038,2874,e
1789463716.2865438,2107,2875,e
1789463716.288199,2142,2876,e
1789463716.292431,2059,2875,e
1789463716.292562,2135,2876,e
1789463716.295469,1993,2876,e
1789463716.2967649,1974,2873,e
1789463716.298094,1996,2874,e
1789463716.3006442,2075,2875,e
1789463716.303199,2211,2876,e
1789463716.304246,2101,2877,e
1789463716.30654,2096,2877,e
1789463716.308898,2109,2875,e
1789463716.31097,2185,2876,e
1789463716.312257,2140,2876,e
1789463716.314799,2083,2874,e
1789463716.3160708,2152,2879,e
1789463716.318448,2101,2875,e
1789463716.32051,2020,2874,e
1789463716.322764,2095,2876,e
1789463716.325063,2147,2876,e
1789463716.326348,2118,2876,e
1789463716.3288891,1999,2874,e
1789463716.330187,1891,2874,e
1789463716.332455,2155,2876,e
1789463716.33693,2100,2874,e
1789463716.337708,1951,2875,e
1789463716.339315,1968,2873,e
1789463716.341057,2049,2876,e
1789463716.3450618,2079,2873,e
1789463716.345218,2116,2876,e
1789463716.347011,1893,2874,e
1789463716.348308,2197,2876,e
1789463716.350806,2074,2874,e
1789463716.353117,2177,2877,e
1789463716.354403,1974,2873,e
1789463716.3569422,2075,2876,e
1789463716.3582132,2271,2877,e
1789463716.3604538,2097,2875,e
1789463716.3630028,2189,2876,e
1789463716.36406,2096,2877,e
1789463716.366132,2020,2874,e
1789463716.3686771,2199,2879,e
1789463716.371029,1951,2875,e
1789463716.372312,2085,2877,e
1789463716.374851,2069,2876,e
1789463716.37614,2016,2875,e
1789463716.3786838,2049,2876,e
1789463716.380109,2007,2874,e
1789463716.382421,2018,2874,e
1789463716.388452,2067,2875,e
1789463716.388913,2060,2874,e
1789463716.389013,2087,2876,e
1789463716.390861,2117,2876,e
1789463716.392747,2104,2874,e
1789463716.3954072,2074,2876,e
1789463716.397262,2031,2876,e
1789463716.3992572,2016,2874,e
1789463716.4005609,2115,2876,e
1789463716.4026291,2295,2876,e
1789463716.405173,2191,2877,e
1789463716.406375,2019,2875,e
1789463716.408841,2108,2876,e
1789463716.410125,2087,2876,e
1789463716.412676,2023,2874,e
1789463716.415006,2054,2875,e
1789463716.416297,2147,2877,e
1789463716.4183638,2072,2875,e
1789463716.420436,1984,2873,e
1789463716.4227421,2030,2873,e
1789463716.424818,2202,2876,e
1789463716.427115,2028,2875,e
1789463716.4283981,1978,2873,e
1789463716.430942,1942,2874,e
1789463716.43223,2169,2877,e
1789463716.434771,2185,2877,e
1789463716.436107,2111,2877,e
1789463716.4384031,2046,2876,e
1789463716.443084,2075,2875,e
1789463716.443886,2095,2875,e
1789463716.445444,2160,2876,e
1789463716.446723,2109,2877,e
1789463716.448761,2040,2875,e
1789463716.450442,2080,2873,e
1789463716.453418,2077,2874,e
1789463716.454709,1966,2875,e
1789463716.4572659,2198,2876,e
1789463716.45832,2232,2876,e
1789463716.460866,2043,2876,e
1789463716.463159,2006,2873,e
1789463716.464443,2080,2874,e
1789463716.466744,2099,2875,e
1789463716.46886,2000,2875,e
1789463716.470144,1954,2875,e
1789463716.4724438,2064,2877,e
1789463716.474538,2138,2875,e
1789463716.476864,2046,2875,e
1789463716.4781692,2101,2877,e
1789463716.48047,2126,2877,e
1789463716.48301,1940,2876,e
1789463716.484294,2082,2875,e
1789463716.486742,2143,2877,e
1789463716.488895,2097,2876,e
1789463716.49018,2021,2875,e
1789463716.492511,2008,2873,e
1789463716.497003,2036,2876,e
1789463716.4974651,2070,2876,e
1789463716.498732,2104,2877,e
1789463716.5001879,2199,2877,e
1789463716.503194,2105,2877,e
1789463716.5048351,2000,2874,e
1789463716.506508,2104,2876,e
1789463716.509058,2156,2877,e
1789463716.5103638,2102,2875,e
1789463716.512434,2120,2876,e
1789463716.514976,2009,2874,e
1789463716.516024,2047,2874,e
1789463716.518091,2134,2874,e
1789463716.520395,2088,2875,e
1789463716.522454,2099,2876,e
1789463716.524759,2057,2876,e
1789463716.527057,2009,2875,e
1789463716.528341,2111,2876,e
1789463716.530415,2091,2877,e
1789463716.532525,2042,2874,e
1789463716.534843,2007,2875,e
1789463716.5361369,2055,2876,e
1789463716.538681,1983,2874,e
1789463716.539967,2067,2875,e
1789463716.5425081,2131,2875,e
1789463716.5489228,2131,2876,e
1789463716.549345,2007,2876,e
1789463716.54974,2113,2878,e
1789463716.552495,2169,2877,e
1789463716.552586,2065,2875,e
1789463716.555115,2146,2878,e
1789463716.5568378,2184,2877,e
1789463716.558769,2057,2876,e
1789463716.560066,1916,2873,e
1789463716.56237,2040,2876,e
1789463716.5649128,2025,2872,e
1789463716.565971,2104,2877,e
1789463716.568386,2090,2874,e
1789463716.570443,2042,2874,e
1789463716.572743,2124,2877,e
1789463716.57504,2181,2876,e
1789463716.576324,1986,2875,e
1789463716.578864,2000,2874,e
1789463716.580008,1970,2875,e
1789463716.582079,2227,2877,e
1789463716.584378,2134,2878,e
1789463716.586604,2171,2877,e
1789463716.587976,1965,2874,e
1789463716.590272,2004,2875,e
1789463716.592813,2206,2877,e
1789463716.5940962,2151,2875,e
1789463716.596637,2073,2875,e
1789463716.5979362,2085,2876,e
1789463716.6024058,2064,2873,e
1789463716.603256,2005,2874,e
1789463716.604939,2001,2874,e
1789463716.6063821,2098,2876,e
1789463716.609246,2091,2876,e
1789463716.610688,2005,2876,e
1789463716.612268,2080,2875,e
1789463716.614591,2089,2877,e
1789463716.615946,2084,2877,e
1789463716.6185012,2156,2877,e
1789463716.620808,2064,2874,e
1789463716.6219451,2053,2874,e
1789463716.62449,2110,2876,e
1789463716.626782,2109,2876,e
1789463716.629094,2054,2875,e
1789463716.630379,2004,2873,e
1789463716.632673,1956,2874,e
1789463716.6349728,2096,2874,e
1789463716.636263,2097,2877,e
1789463716.638429,2167,2877,e
1789463716.640736,2155,2876,e
1789463716.6420212,2162,2876,e
1789463716.644083,2117,2876,e
1789463716.646245,1993,2874,e
1789463716.6488929,2116,2877,e
1789463716.652452,2056,2874,e
1789463716.6528351,2092,2875,e
1789463716.654329,2002,2873,e
1789463716.657089,2041,2875,e
1789463716.659842,1986,2876,e
1789463716.659977,2051,2876,e
1789463716.662613,2140,2876,e
1789463716.66491,2059,2874,e
1789463716.6661,2133,2876,e
1789463716.6684532,2141,2878,e
1789463716.6707578,1999,2874,e
1789463716.672043,2036,2874,e
1789463716.67435,2110,2876,e
1789463716.676893,2134,2877,e
1789463716.678184,2172,2876,e
1789463716.6806111,2203,2875,e
1789463716.681961,2031,2874,e
1789463716.684027,2075,2875,e
1789463716.6860878,2049,2876,e
1789463716.688395,2058,2874,e
1789463716.690457,2047,2873,e
1789463716.692696,2064,2876,e
1789463716.69398,2040,2875,e
1789463716.696034,1899,2873,e
1789463716.700866,1998,2874,e
1789463716.7012448,2086,2875,e
1789463716.7029371,2103,2876,e
1789463716.704809,2111,2876,e
1789463716.707131,2224,2875,e
1789463716.708713,2125,2876,e
1789463716.710335,2095,2875,e
1789463716.7124321,2071,2876,e
1789463716.714804,2056,2875,e
1789463716.7160928,2016,2874,e
1789463716.718637,2099,2876,e
1789463716.719892,2099,2877,e
1789463716.722205,2065,2876,e
1789463716.724746,2096,2876,e
1789463716.7260318,2017,2875,e
1789463716.728404,2078,2876,e
1789463716.730934,2124,2877,e
1789463716.732219,2076,2874,e
1789463716.734508,2092,2875,e
1789463716.736981,2085,2874,e
1789463716.738276,2071,2877,e
1789463716.740392,2109,2877,e
1789463716.742697,2064,2873,e
1789463716.743986,2086,2876,e
1789463716.7463,2099,2876,e
1789463716.749861,2113,2877,e
1789463716.750547,2042,2875,e
1789463716.752048,2102,2875,e
1789463716.7550132,2088,2877,e
1789463716.756168,2059,2875,e
1789463716.759299,2047,2877,e
1789463716.760349,2069,2875,e
1789463716.762902,2028,2875,e
1789463716.763951,2074,2877,e
1789463716.7662458,2104,2876,e
1789463716.768391,2107,2878,e
1789463716.77069,2064,2874,e
1789463716.771855,2063,2875,e
1789463716.774265,2161,2875,e
1789463716.776813,2045,2876,e
1789463716.7780979,2034,2875,e
1789463716.780407,2050,2876,e
1789463716.7825868,2083,2877,e
1789463716.783864,2081,2873,e
1789463716.786288,2074,2874,e
1789463716.7885902,2085,2877,e
1789463716.790913,2090,2876,e
1789463716.7919512,2117,2876,e
1789463716.7941,2058,2875,e
1789463716.799009,2032,2873,e
1789463716.799364,2050,2874,e
1789463716.801287,2092,2875,e
1789463716.8025541,2056,2875,e
1789463716.805426,2041,2873,e
1789463716.8070369,2058,2876,e
1789463716.808428,2088,2876,e
1789463716.81058,2085,2874,e
1789463716.81275,2059,2876,e
1789463716.814044,2069,2877,e
1789463716.8161862,2071,2874,e
1789463716.818502,2083,2875,e
1789463716.8208,2079,2875,e
1789463716.821994,2062,2876,e
1789463716.824533,2116,2876,e
1789463716.825846,2073,2874,e
1789463716.82814,2058,2875,e
1789463716.8304331,2094,2875,e
1789463716.8330061,2106,2877,e
1789463716.8340511,2058,2876,e
1789463716.836479,2054,2876,e
1789463716.8378491,2022,2874,e
1789463716.8403919,2091,2876,e
1789463716.842855,2084,2875,e
1789463716.8441422,2065,2876,e
1789463716.84888,2035,2875,e
1789463716.849281,2051,2874,e
1789463716.850976,2077,2875,e
1789463716.852439,2069,2875,e
1789463716.854953,2045,2875,e
1789463716.856441,2094,2876,e
1789463716.857915,2108,2875,e
1789463716.8603048,2078,2875,e
1789463716.862852,2062,2875,e
1789463716.8639,2050,2875,e
1789463716.866126,2093,2877,e
1789463716.868343,2081,2875,e
1789463716.8706481,2063,2876,e
1789463716.872931,2074,2877,e
1789463716.874233,2086,2875,e
1789463716.876776,2083,2874,e
1789463716.877861,2046,2875,e
1789463716.880178,2039,2875,e
1789463716.8824902,2099,2876,e
1789463716.883817,2148,2876,e
1789463716.886035,2085,2875,e
1789463716.888088,2103,2876,e
1789463716.890388,2132,2876,e
1789463716.8927932,2126,2876,e
1789463716.8942888,2079,2875,e
1789463716.898199,2069,2876,e
1789463716.898687,2086,2875,e
1789463716.9005492,2059,2874,e
1789463716.9024808,2072,2875,e
1789463716.9064379,2100,2876,e
1789463716.906637,2109,2876,e
1789463716.908472,2112,2876,e
1789463716.910539,2053,2875,e
1789463716.911842,2070,2874,e
1789463716.913897,2088,2876,e
1789463716.916207,2144,2875,e
1789463716.918273,2080,2875,e
1789463716.920331,2079,2875,e
1789463716.922654,2088,2877,e
1789463716.924063,2104,2876,e
1789463716.926404,2121,2875,e
1789463716.928811,2055,2875,e
1789463716.9300978,2059,2875,e
1789463716.932405,2067,2875,e
1789463716.9347148,2085,2875,e
1789463716.936009,2058,2874,e
1789463716.938067,2031,2874,e
1789463716.9401312,2108,2875,e
1789463716.942488,2122,2874,e
1789463716.943821,2075,2875,e
1789463716.948802,2085,2875,e
1789463716.949224,2128,2876,e
1789463716.950759,2091,2874,e
1789463716.95391,2092,2875,e
1789463716.9543319,2078,2876,e
1789463716.957129,2104,2877,e
1789463716.958986,2143,2875,e
1789463716.960303,2076,2875,e
1789463716.9629068,2069,2875,e
1789463716.964224,2057,2875,e
1789463716.9665449,2064,2874,e
1789463716.9688268,2052,2874,e
1789463716.970162,2075,2875,e
1789463716.972424,2051,2874,e
1789463716.9748962,2082,2876,e
1789463716.976125,2093,2874,e
1789463716.978677,2101,2875,e
1789463716.979962,2097,2875,e
1789463716.982514,2055,2873,e
1789463716.98482,2068,2875,e
1789463716.986109,2105,2875,e
1789463716.98841,2077,2873,e
1789463716.9908988,2099,2876,e
1789463716.992186,2055,2875,e
1789463716.994538,2018,2875,e
1789463716.9992971,2051,2875,e
1789463717.00001,2116,2876,e
1789463717.000415,2100,2877,e
1789463717.002916,2082,2874,e
1789463717.005567,2081,2874,e
1789463717.007117,2114,2877,e
1789463717.008946,2054,2875,e
1789463717.01001,2067,2875,e
1789463717.012558,2045,2874,e
1789463717.0138612,2081,2876,e
1789463717.016167,2026,2875,e
1789463717.0184581,2070,2875,e
1789463717.020752,2090,2875,e
1789463717.022035,2100,2877,e
1789463717.024328,2082,2875,e
1789463717.0266151,2115,2875,e
1789463717.028766,2104,2875,e
1789463717.029845,2039,2876,e
1789463717.032149,2073,2874,e
1789463717.034695,2092,2875,e
1789463717.035981,2065,2875,e
1789463717.038419,2019,2875,e
1789463717.04096,2105,2876,e
1789463717.04201,2074,2875,e
1789463717.04455,2019,2874,e
1789463717.048919,2054,2875,e
1789463717.049543,2060,2876,e
1789463717.0521889,2093,2877,e
1789463717.0528169,2112,2878,e
1789463717.054828,2118,2876,e
1789463717.0564108,2085,2877,e
1789463717.0587468,2080,2876,e
1789463717.059867,2059,2876,e
1789463717.06225,2042,2875,e
1789463717.06438,2058,2876,e
1789463717.066686,2055,2873,e
1789463717.067838,2088,2877,e
1789463717.070086,2069,2874,e
1789463717.0723898,2049,2874,e
1789463717.074691,2105,2875,e
1789463717.0767722,2094,2876,e
1789463717.0780602,2067,2875,e
1789463717.0806,2053,2875,e
1789463717.081725,2074,2876,e
1789463717.084026,2082,2874,e
1789463717.0860999,2069,2875,e
1789463717.0884,2086,2877,e
1789463717.090456,2112,2876,e
1789463717.091694,2110,2875,e
1789463717.093993,2091,2876,e
1789463717.09901,2058,2876,e
1789463717.0993888,2104,2876,e
1789463717.101187,2094,2877,e
1789463717.1028621,2125,2877,e
1789463717.104425,2055,2873,e
1789463717.107052,2118,2876,e
1789463717.1088,2138,2876,e
1789463717.1101,2074,2875,e
1789463717.112405,2028,2876,e
1789463717.1145449,2033,2873,e
1789463717.1157289,2089,2874,e
1789463717.11804,2076,2873,e
1789463717.120404,2039,2875,e
1789463717.122708,2098,2877,e
1789463717.123961,2083,2876,e
1789463717.126262,2108,2874,e
1789463717.128803,2061,2875,e
1789463717.1300879,2078,2875,e
1789463717.132235,2078,2873,e
1789463717.134541,2103,2877,e
1789463717.1358259,2071,2874,e
1789463717.138319,2076,2877,e
1789463717.140631,2095,2874,e
1789463717.1418262,2098,2876,e
1789463717.144203,2068,2875,e
1789463717.146276,2066,2876,e
1789463717.149944,2068,2875,e
1789463717.1506078,2113,2876,e
1789463717.1522748,2122,2877,e
1789463717.153864,2045,2874,e
1789463717.1581209,2074,2876,e
1789463717.1583612,2091,2876,e
1789463717.1600351,2121,2876,e
1789463717.162604,2065,2876,e
1789463717.1637042,2058,2875,e
1789463717.166234,2083,2874,e
1789463717.168534,2115,2877,e
1789463717.169725,2079,2873,e
1789463717.171938,2076,2877,e
1789463717.174043,2109,2876,e
1789463717.176588,2126,2876,e
1789463717.1777081,2091,2876,e
1789463717.1800141,2087,2876,e
1789463717.182556,2110,2877,e
1789463717.183841,2118,2877,e
1789463717.186132,2111,2876,e
1789463717.188431,2109,2876,e
1789463717.189724,2150,2876,e
1789463717.192269,2120,2875,e
1789463717.1943328,2153,2877,e
1789463717.196875,2072,2876,e
1789463717.19825,2136,2876,e
1789463717.2018619,2155,2876,e
1789463717.202616,2136,2877,e
1789463717.203966,2109,2877,e
1789463717.206985,2125,2877,e
1789463717.208135,2148,2876,e
1789463717.2109902,2126,2875,e
1789463717.2122838,2116,2875,e
1789463717.2143419,2107,2876,e
1789463717.2157178,2126,2877,e
1789463717.2179708,2124,2877,e
1789463717.2202702,2115,2876,e
1789463717.222562,2109,2876,e
1789463717.223777,2134,2876,e
1789463717.2261279,2135,2876,e
1789463717.228435,2108,2877,e
1789463717.2307389,2103,2877,e
1789463717.2320309,2110,2876,e
1789463717.234336,2156,2877,e
1789463717.235706,2091,2875,e
1789463717.2379038,2096,2878,e
1789463717.2404501,2106,2877,e
1789463717.242744,2119,2875,e
1789463717.244033,2101,2875,e
1789463717.24634,2089,2876,e
1789463717.2488918,2108,2876,e
1789463717.249933,2126,2875,e
1789463717.2540932,2108,2877,e
1789463717.25453,2084,2874,e
1789463717.256494,2095,2878,e
1789463717.258025,2154,2876,e
1789463717.262035,2137,2876,e
1789463717.262224,2098,2876,e
1789463717.264818,2094,2875,e
1789463717.266103,2096,2876,e
1789463717.268651,2118,2877,e
1789463717.2697,2110,2877,e
1789463717.271753,2079,2876,e
1789463717.274382,2090,2877,e
1789463717.27684,2080,2876,e
1789463717.2781298,2045,2876,e
1789463717.280438,2070,2875,e
1789463717.281729,2066,2876,e
1789463717.284275,2083,2874,e
1789463717.286494,2095,2873,e
1789463717.2877812,2104,2876,e
1789463717.290329,2074,2876,e
1789463717.2923741,2129,2876,e
1789463717.293718,2046,2876,e
1789463717.29626,2058,2874,e
1789463717.298629,2089,2877,e
1789463717.2999191,2062,2875,e
1789463717.302502,2064,2875,e
1789463717.3062358,2053,2874,e
1789463717.3065841,2078,2875,e
1789463717.3084679,2105,2876,e
1789463717.310098,2075,2875,e
1789463717.312821,2041,2875,e
1789463717.314421,2041,2872,e
1789463717.316179,2066,2874,e
1789463717.318625,2108,2877,e
1789463717.319872,2069,2875,e
1789463717.322415,2072,2876,e
1789463717.323821,2117,2876,e
1789463717.3263638,2087,2876,e
1789463717.327661,2074,2876,e
1789463717.329823,2072,2876,e
1789463717.332368,2074,2876,e
1789463717.3336608,2096,2874,e
1789463717.335969,2082,2874,e
1789463717.3382668,2058,2874,e
1789463717.3405619,2116,2876,e
1789463717.341847,2100,2874,e
1789463717.344069,2082,2874,e
1789463717.3466089,2080,2876,e
1789463717.34766,2040,2874,e
1789463717.350205,2067,2876,e
1789463717.3525708,2085,2875,e
1789463717.353773,2041,2873,e
1789463717.3588102,2055,2876,e
1789463717.359238,2090,2875,e
1789463717.361133,2057,2874,e
1789463717.362918,2024,2875,e
1789463717.3656461,2047,2873,e
1789463717.367241,2070,2876,e
1789463717.368778,2081,2875,e
1789463717.3701499,2071,2876,e
1789463717.372572,2072,2877,e
1789463717.37362,2080,2875,e
1789463717.375846,2091,2875,e
1789463717.378315,2072,2875,e
1789463717.380446,2063,2876,e
1789463717.3817348,2075,2877,e
1789463717.3841972,2091,2875,e
1789463717.386494,2085,2875,e
1789463717.387699,2050,2873,e
1789463717.390194,2089,2875,e
1789463717.392502,2090,2874,e
1789463717.393655,2067,2875,e
1789463717.3961961,2058,2874,e
1789463717.39759,2075,2876,e
1789463717.400018,2078,2874,e
1789463717.402328,2082,2875,e
1789463717.403619,2055,2875,e
1789463717.405913,2077,2877,e
1789463717.410893,2103,2876,e
1789463717.411272,2083,2874,e
1789463717.413124,2038,2875,e
1789463717.4148679,2061,2876,e
1789463717.418924,2097,2876,e
1789463717.4191139,2079,2875,e
1789463717.420894,2059,2874,e
1789463717.4222012,2054,2874,e
1789463717.4245949,2068,2876,e
1789463717.425889,2059,2875,e
1789463717.4282398,2059,2875,e
1789463717.430547,2070,2875,e
1789463717.4316092,2053,2874,e
1789463717.433887,2094,2876,e
1789463717.436183,2082,2875,e
1789463717.437578,2068,2875,e
1789463717.439878,2080,2877,e
1789463717.4422789,2104,2875,e
1789463717.44459,2064,2874,e
1789463717.445703,2048,2875,e
1789463717.447999,2049,2873,e
1789463717.450392,2063,2875,e
1789463717.451679,2077,2876,e
1789463717.453981,2061,2875,e
1789463717.456285,2089,2877,e
1789463717.4584,2113,2875,e
1789463717.459611,2097,2876,e
1789463717.46178,2072,2875,e
1789463717.466296,2079,2876,e
1789463717.467672,2077,2873,e
1789463717.467871,2098,2874,e
1789463717.4721768,2064,2875,e
1789463717.473671,2064,2873,e
1789463717.473793,2083,2876,e
1789463717.476426,2091,2875,e
1789463717.477723,2046,2875,e
1789463717.480036,2033,2875,e
1789463717.4823601,2059,2873,e
1789463717.484421,2105,2878,e
1789463717.485709,2091,2876,e
1789463717.487767,2103,2877,e
1789463717.489825,2116,2876,e
1789463717.4921322,2125,2875,e
1789463717.494215,2087,2874,e
1789463717.496403,2047,2876,e
1789463717.498461,2063,2873,e
1789463717.49968,2099,2878,e
1789463717.502078,2106,2876,e
1789463717.504364,2058,2874,e
1789463717.505692,2093,2876,e
1789463717.5080261,2119,2875,e
1789463717.510138,2117,2876,e
1789463717.512455,2080,2876,e
1789463717.5137658,2074,2876,e
1789463717.5197492,2096,2877,e
1789463717.520679,2086,2874,e
1789463717.523537,2047,2875,e
1789463717.5254772,2053,2874,e
1789463717.527311,2078,2875,e
1789463717.529084,2097,2876,e
1789463717.529384,2081,2874,e
1789463717.531381,2082,2876,e
1789463717.532485,2111,2876,e
1789463717.533592,2124,2876,e
1789463717.5359318,2116,2877,e
1789463717.538304,2053,2874,e
1789463717.539574,2066,2877,e
1789463717.5421572,2039,2875,e
1789463717.544538,2046,2876,e
1789463717.545909,2020,2876,e
1789463717.5482528,2031,2873,e
1789463717.54963,2073,2877,e
1789463717.551986,2078,2874,e
1789463717.554067,2056,2875,e
1789463717.556478,2134,2877,e
1789463717.557738,2115,2876,e
1789463717.560072,2145,2876,e
1789463717.562386,2094,2876,e
1789463717.564554,2023,2874,e
1789463717.5656052,2098,2877,e
1789463717.567772,2074,2874,e
1789463717.5703208,2113,2877,e
1789463717.572562,2117,2877,e
1789463717.576829,2050,2875,e
1789463717.57736,2084,2877,e
1789463717.578984,2100,2876,e
1789463717.580502,2064,2875,e
1789463717.5819361,2066,2875,e
1789463717.5836842,2102,2877,e
1789463717.5866728,2101,2877,e
1789463717.587927,2043,2875,e
1789463717.5904908,2090,2876,e
1789463717.591787,2086,2876,e
1789463717.594102,2077,2876,e
1789463717.59641,2101,2876,e
1789463717.59871,2114,2877,e
1789463717.600014,2088,2876,e
1789463717.602326,2054,2874,e
1789463717.603484,2076,2874,e
1789463717.605786,2069,2877,e
1789463717.608089,2086,2877,e
1789463717.610395,2121,2875,e
1789463717.611527,2082,2876,e
1789463717.613597,2043,2876,e
1789463717.6161458,2036,2874,e
1789463717.617485,2119,2878,e
1789463717.6197991,2071,2874,e
1789463717.6220958,2029,2875,e
1789463717.624396,2115,2876,e
1789463717.625685,2075,2876,e
1789463717.6312761,2064,2875,e
1789463717.632046,2073,2876,e
1789463717.6335318,2075,2877,e
1789463717.6336188,2088,2875,e
1789463717.636354,2078,2875,e
1789463717.638307,2054,2875,e
1789463717.6398091,2198,2877,e
1789463717.642297,2161,2876,e
1789463717.6443908,2107,2875,e
1789463717.645688,2098,2875,e
1789463717.648236,2009,2874,e
1789463717.649536,2003,2874,e
1789463717.651603,2004,2876,e
1789463717.65391,2037,2875,e
1789463717.656215,2071,2878,e
1789463717.658269,2063,2875,e
1789463717.659557,2032,2874,e
1789463717.661869,2020,2876,e
1789463717.664414,2095,2876,e
1789463717.665483,2109,2877,e
1789463717.667784,2126,2875,e
1789463717.669847,2095,2875,e
1789463717.672153,2089,2875,e
1789463717.6735098,2075,2876,e
1789463717.675811,2046,2875,e
1789463717.678365,2038,2874,e
1789463717.679483,2066,2875,e
1789463717.681814,2077,2877,e
1789463717.685336,2144,2877,e
1789463717.6860101,2099,2874,e
1789463717.687696,2033,2874,e
1789463717.692032,1994,2874,e
1789463717.693585,2119,2877,e
1789463717.693693,2126,2875,e
1789463717.696417,2061,2874,e
1789463717.697495,2030,2873,e
1789463717.699853,2024,2875,e
1789463717.702167,2104,2874,e
1789463717.7034838,2059,2875,e
1789463717.705834,2073,2876,e
1789463717.708169,2150,2876,e
1789463717.7102358,2093,2875,e
1789463717.712304,2038,2874,e
1789463717.7143948,2015,2873,e
1789463717.715483,2135,2876,e
1789463717.717558,2094,2874,e
1789463717.719848,2080,2874,e
1789463717.721919,2134,2876,e
1789463717.724062,2097,2875,e
1789463717.7261481,1960,2872,e
1789463717.728363,2001,2873,e
1789463717.729598,2156,2877,e
1789463717.7317939,2004,2873,e
1789463717.7344189,1981,2874,e
1789463717.73549,2012,2874,e
1789463717.740424,2379,2878,e
1789463717.742224,2259,2877,e
1789463717.743556,2045,2876,e
1789463717.744402,2019,2876,e
1789463717.7463639,2077,2876,e
1789463717.749151,2157,2877,e
1789463717.751272,2017,2874,e
1789463717.752369,2052,2875,e
1789463717.753667,1957,2875,e
1789463717.7560241,1963,2874,e
1789463717.7581928,2052,2876,e
1789463717.760266,2104,2875,e
1789463717.761575,2159,2875,e
1789463717.763926,2037,2873,e
1789463717.766046,2035,2874,e
1789463717.768141,2112,2874,e
1789463717.769512,2087,2875,e
1789463717.77184,2053,2874,e
1789463717.774227,2013,2876,e
1789463717.776321,2080,2874,e
1789463717.777445,2043,2874,e
1789463717.779553,2000,2873,e
1789463717.7816908,2135,2878,e
1789463717.7840362,2167,2877,e
1789463717.786485,2055,2874,e
1789463717.7877572,1987,2874,e
1789463717.790026,2049,2875,e
1789463717.792116,2198,2876,e
1789463717.7964082,2112,2875,e
1789463717.7968938,2068,2874,e
1789463717.799011,2141,2876,e
1789463717.800521,2072,2874,e
1789463717.8022609,2150,2877,e
1789463717.803922,1964,2875,e
1789463717.807464,2015,2874,e
1789463717.807678,2056,2875,e
1789463717.809827,2077,2876,e
1789463717.8123891,2025,2874,e
1789463717.813576,1982,2873,e
1789463717.815885,2167,2877,e
1789463717.818196,2198,2877,e
1789463717.820504,2042,2875,e
1789463717.821549,2061,2875,e
1789463717.8236759,2048,2874,e
1789463717.826237,2110,2875,e
1789463717.828305,2155,2877,e
1789463717.829597,2079,2875,e
1789463717.832096,1969,2872,e
1789463717.834412,1947,2875,e
1789463717.835468,2018,2875,e
1789463717.838016,2077,2875,e
1789463717.840325,2078,2874,e
1789463717.8426409,2135,2877,e
1789463717.843692,2044,2876,e
1789463717.846239,2008,2876,e
1789463717.847529,2121,2876,e
1789463717.8542678,2193,2877,e
1789463717.854708,2097,2874,e
1789463717.854791,2169,2877,e
1789463717.856243,2141,2876,e
1789463717.8576992,2064,2875,e
1789463717.860915,2141,2876,e
1789463717.862433,2090,2876,e
1789463717.8639848,1973,2873,e
1789463717.866056,1992,2874,e
1789463717.8673542,2054,2874,e
1789463717.86966,2035,2875,e
1789463717.871968,2065,2875,e
1789463717.874277,2129,2877,e
1789463717.875391,2062,2875,e
1789463717.877703,2087,2875,e
1789463717.8800151,2033,2875,e
1789463717.8824441,2102,2877,e
1789463717.8862,2110,2877,e
1789463717.886305,2023,2875,e
1789463717.8883789,2069,2874,e
1789463717.890243,2194,2877,e
1789463717.892803,2159,2876,e
1789463717.894272,2022,2875,e
1789463717.896232,2059,2875,e
1789463717.8973582,2106,2875,e
1789463717.899425,2050,2874,e
1789463717.901977,2050,2876,e
1789463717.903355,2017,2874,e
1789463717.905418,2105,2877,e
1789463717.9077241,2140,2876,e
1789463717.909939,2103,2875,e
1789463717.912239,1949,2873,e
1789463717.913354,2012,2874,e
1789463717.915906,2129,2877,e
1789463717.91821,2200,2878,e
1789463717.919511,2069,2873,e
1789463717.92203,2042,2873,e
1789463717.924341,2113,2877,e
1789463717.925395,2094,2875,e
1789463717.927453,2092,2875,e
1789463717.929502,2168,2876,e
1789463717.931801,1991,2873,e
1789463717.934006,2004,2874,e
1789463717.93537,2065,2875,e
1789463717.940303,2058,2874,e
1789463717.941118,2018,2874,e
1789463717.94278,2045,2876,e
1789463717.94449,2123,2875,e
1789463717.945992,2004,2876,e
1789463717.947607,1988,2872,e
1789463717.950527,2070,2875,e
1789463717.9515982,2205,2878,e
1789463717.9536588,2161,2877,e
1789463717.9559581,2094,2875,e
1789463717.958102,2039,2876,e
1789463717.960483,2113,2876,e
1789463717.961774,2085,2876,e
1789463717.96414,2036,2874,e
1789463717.9654279,2009,2875,e
1789463717.967972,2081,2874,e
1789463717.969333,2127,2877,e
1789463717.971551,2129,2876,e
1789463717.973856,2047,2875,e
1789463717.976157,2159,2877,e
1789463717.978271,2127,2876,e
1789463717.979338,2040,2873,e
1789463717.9816499,2001,2875,e
1789463717.983964,2094,2874,e
1789463717.9853282,2153,2876,e
1789463717.98768,1952,2873,e
1789463717.990039,2082,2876,e
1789463717.9950469,2077,2875,e
1789463717.996341,1986,2872,e
1789463717.9977238,2043,2877,e
1789463717.999451,2077,2875,e
1789463718.00013,2318,2877,e
1789463718.0029418,2239,2876,e
1789463718.004734,2079,2875,e
1789463718.007869,2027,2873,e
1789463718.007922,2053,2874,e
1789463718.009356,2071,2875,e
1789463718.019989,2089,2877,e
1789463718.0241961,2050,2877,e
1789463718.027946,1984,2874,e
1789463718.0286489,2028,2874,e
1789463718.028955,2235,2878,e
1789463718.031002,2061,2877,e
1789463718.03107,1938,2874,e
1789463718.03126,2040,2872,e
1789463718.031425,2180,2877,e
1789463718.031533,2089,2876,e
1789463718.031699,2096,2877,e
1789463718.034164,1972,2873,e
1789463718.035543,2101,2877,e
1789463718.037863,2058,2877,e
1789463718.040406,2126,2876,e
1789463718.041863,2111,2876,e
1789463718.044586,2072,2877,e
1789463718.045726,2060,2876,e
1789463718.0482838,2098,2876,e
1789463718.049769,2007,2874,e
1789463718.052282,2001,2874,e
1789463718.053511,2009,2875,e
1789463718.055889,2116,2877,e
1789463718.058377,2138,2877,e
1789463718.0598001,2128,2876,e
1789463718.06231,2185,2877,e
1789463718.063735,2033,2873,e
1789463718.0660322,1983,2874,e
1789463718.0674078,2108,2875,e
1789463718.0698571,2180,2878,e
1789463718.0722072,2102,2877,e
1789463718.073426,2085,2875,e
1789463718.082443,2067,2874,e
1789463718.0860748,2050,2876,e
1789463718.087494,2034,2874,e
1789463718.091153,2046,2875,e
1789463718.093659,2027,2874,e
1789463718.0937889,2032,2875,e
1789463718.0938728,2068,2876,e
1789463718.093995,2068,2875,e
1789463718.094104,2003,2874,e
1789463718.094203,2066,2877,e
1789463718.095563,2140,2876,e
1789463718.0977821,2158,2877,e
1789463718.1001868,2185,2878,e
1789463718.101538,2181,2877,e
1789463718.104239,2041,2875,e
1789463718.1056461,2069,2876,e
1789463718.108223,2090,2875,e
1789463718.109527,2055,2876,e
1789463718.111839,2057,2876,e
1789463718.114136,2060,2876,e
1789463718.115446,2083,2877,e
1789463718.1177979,2121,2877,e
1789463718.1201339,2079,2876,e
1789463718.122562,2047,2874,e
1789463718.1239018,2050,2873,e
1789463718.1263459,1955,2874,e
1789463718.127655,2102,2876,e
1789463718.130183,2134,2876,e
1789463718.1325388,2112,2876,e
1789463718.133832,2042,2876,e
1789463718.1366332,2033,2873,e
1789463718.140636,1960,2874,e
1789463718.141099,2087,2875,e
1789463718.143208,2155,2877,e
1789463718.144934,2215,2877,e
1789463718.1465669,2100,2876,e
1789463718.148588,1979,2872,e
1789463718.150214,2024,2874,e
1789463718.152404,2084,2876,e
1789463718.1534562,2077,2876,e
1789463718.1557639,2099,2877,e
1789463718.158085,2092,2876,e
1789463718.1593869,2104,2876,e
1789463718.1614568,2060,2875,e
1789463718.16374,2047,2876,e
1789463718.166305,2044,2874,e
1789463718.1676018,2093,2876,e
1789463718.169854,2101,2875,e
1789463718.172089,2096,2877,e
1789463718.17431,2165,2876,e
1789463718.17537,2082,2875,e
1789463718.177933,1989,2872,e
1789463718.181349,2014,2874,e
1789463718.181389,2091,2877,e
1789463718.18396,2103,2877,e
1789463718.185303,2059,2874,e
1789463718.187799,2119,2877,e
1789463718.1904829,1995,2873,e
1789463718.191783,1968,2873,e
1789463718.1942568,2123,2875,e
1789463718.195325,2111,2877,e
1789463718.2003572,2151,2876,e
1789463718.2008882,2061,2877,e
1789463718.202946,2053,2873,e
1789463718.204886,2078,2874,e
1789463718.209686,2108,2878,e
1789463718.2099469,2139,2876,e
1789463718.2100961,2098,2875,e
1789463718.212102,2109,2877,e
1789463718.213564,2108,2876,e
1789463718.216115,1957,2873,e
1789463718.217514,1998,2875,e
1789463718.22003,2129,2877,e
1789463718.221333,2112,2877,e
1789463718.2234309,2097,2875,e
1789463718.225989,2175,2876,e
1789463718.227315,2206,2877,e
1789463718.229965,2131,2876,e
1789463718.232467,2017,2874,e
1789463718.233782,2044,2874,e
1789463718.236444,2032,2875,e
1789463718.237685,2010,2875,e
1789463718.240001,2030,2873,e
1789463718.241303,2044,2875,e
1789463718.243499,2061,2876,e
1789463718.2460852,2054,2876,e
1789463718.247209,2032,2876,e
1789463718.249909,2067,2874,e
1789463718.251313,2022,2876,e
1789463718.2536478,2050,2876,e
1789463718.261387,2159,2878,e
1789463718.2625868,2099,2876,e
1789463718.262918,2094,2875,e
1789463718.265632,2079,2876,e
1789463718.2657962,2021,2876,e
1789463718.2669282,2065,2874,e
1789463718.2704031,2202,2878,e
1789463718.270726,2164,2877,e
1789463718.272788,2049,2875,e
1789463718.274236,1993,2873,e
1789463718.2755818,2099,2877,e
1789463718.280881,2014,2876,e
1789463718.2819479,2045,2876,e
1789463718.28387,2046,2876,e
1789463718.285334,2050,2874,e
1789463718.286634,2107,2875,e
1789463718.288162,2081,2875,e
1789463718.2920551,2136,2877,e
1789463718.292428,2084,2876,e
1789463718.294444,2032,2875,e
1789463718.295717,2045,2875,e
1789463718.298105,2042,2876,e
1789463718.2996092,2107,2877,e
1789463718.301877,2142,2877,e
1789463718.303276,2100,2878,e
1789463718.305411,2048,2874,e
1789463718.3077672,2011,2874,e
1789463718.310107,2160,2876,e
1789463718.311408,2173,2877,e
1789463718.3137338,2108,2875,e
1789463718.316292,2056,2875,e
1789463718.3174899,2058,2873,e
1789463718.3198159,2082,2874,e
1789463718.321895,2077,2875,e
1789463718.3232498,2102,2876,e
1789463718.325566,2034,2876,e
1789463718.327965,2005,2875,e
1789463718.3300369,2069,2875,e
1789463718.33234,2072,2875,e
1789463718.3334038,2157,2877,e
1789463718.335718,2089,2874,e
1789463718.3377972,2072,2875,e
1789463718.343807,2111,2876,e
1789463718.344297,2064,2875,e
1789463718.3447769,2087,2875,e
1789463718.3467379,2020,2876,e
1789463718.3492968,2027,2875,e
1789463718.3494558,2090,2876,e
1789463718.352031,2218,2877,e
1789463718.353769,2043,2876,e
1789463718.355422,2015,2876,e
1789463718.3576682,2121,2876,e
1789463718.359784,2160,2876,e
1789463718.3621051,2068,2875,e
1789463718.363234,2047,2875,e
1789463718.3653162,2039,2876,e
1789463718.3675,2043,2875,e
1789463718.369901,2074,2876,e
1789463718.371965,2075,2875,e
1789463718.374403,2139,2878,e
1789463718.3756921,2162,2876,e
1789463718.378239,2063,2875,e
1789463718.37953,1962,2872,e
1789463718.381841,2029,2874,e
1789463718.383981,2088,2878,e
1789463718.38528,2115,2877,e
1789463718.387593,2051,2874,e
1789463718.390155,2035,2875,e
1789463718.391358,2120,2876,e
1789463718.393462,2134,2875,e
1789463718.395778,2084,2876,e
1789463718.3983428,2062,2875,e
1789463718.403282,2020,2874,e
1789463718.403798,2047,2875,e
1789463718.405014,2075,2874,e
1789463718.406641,2077,2876,e
1789463718.407846,2098,2876,e
1789463718.410086,2104,2875,e
1789463718.411864,2059,2876,e
1789463718.413456,2022,2873,e
1789463718.416051,2076,2873,e
1789463718.417347,2084,2875,e
1789463718.4199018,2093,2878,e
1789463718.422206,2057,2876,e
1789463718.4232562,2061,2877,e
1789463718.4255738,2123,2876,e
1789463718.427878,2082,2877,e
1789463718.430184,2084,2877,e
1789463718.431479,2111,2878,e
1789463718.4335392,2094,2874,e
1789463718.435603,2094,2875,e
1789463718.437973,2064,2875,e
1789463718.440288,2069,2875,e
1789463718.441587,2084,2875,e
1789463718.443891,2075,2875,e
1789463718.445185,2075,2876,e
1789463718.447736,2068,2876,e
1789463718.449792,2078,2874,e
1789463718.452102,2083,2874,e
1789463718.453158,2094,2878,e
1789463718.455466,2071,2876,e
1789463718.46079,2082,2876,e
1789463718.4612322,2106,2875,e
1789463718.46167,2081,2875,e
1789463718.464229,2065,2876,e
1789463718.465743,2055,2873,e
1789463718.467607,2070,2876,e
1789463718.469255,2060,2874,e
1789463718.472085,2046,2874,e
1789463718.4733791,2076,2876,e
1789463718.47569,2092,2874,e
1789463718.478008,2058,2874,e
1789463718.4793038,2036,2876,e
1789463718.4818518,2054,2874,e
1789463718.483973,2106,2878,e
1789463718.485107,2082,2875,e
1789463718.4876559,2037,2874,e
1789463718.489967,2074,2876,e
1789463718.491321,2117,2876,e
1789463718.4936268,2096,2875,e
1789463718.4959328,2072,2875,e
1789463718.497227,2054,2876,e
1789463718.499556,2070,2874,e
1789463718.501769,2117,2878,e
1789463718.504092,2094,2875,e
1789463718.5053928,2073,2877,e
1789463718.507521,2068,2876,e
1789463718.509707,2099,2876,e
1789463718.512002,2072,2875,e
1789463718.5132952,2044,2876,e
1789463718.518354,2062,2874,e
1789463718.519497,2083,2875,e
1789463718.519994,2081,2875,e
1789463718.5214121,2050,2875,e
1789463718.524284,2110,2876,e
1789463718.526245,2104,2874,e
1789463718.52816,2026,2875,e
1789463718.529699,2066,2876,e
1789463718.531092,2076,2877,e
1789463718.5334458,2064,2873,e
1789463718.536008,2069,2875,e
1789463718.537301,2074,2875,e
1789463718.5396018,2094,2877,e
1789463718.542258,2093,2875,e
1789463718.543307,2112,2875,e
1789463718.545855,2066,2874,e
1789463718.5481658,2072,2875,e
1789463718.549461,2072,2874,e
1789463718.551771,2093,2876,e
1789463718.5538392,2114,2877,e
1789463718.556143,2114,2875,e
1789463718.5574322,2065,2876,e
1789463718.5597372,2104,2875,e
1789463718.56205,2092,2874,e
1789463718.5631418,2105,2877,e
1789463718.565697,2099,2877,e
1789463718.568009,2105,2877,e
1789463718.569113,2098,2874,e
1789463718.5714262,2090,2877,e
1789463718.576886,2098,2875,e
1789463718.577358,2140,2876,e
1789463718.5777931,2123,2876,e
1789463718.579471,2057,2876,e
1789463718.582973,2083,2876,e
1789463718.583123,2118,2877,e
1789463718.5861702,2086,2874,e
1789463718.5880818,2118,2877,e
1789463718.589278,2083,2877,e
1789463718.591555,2092,2875,e
1789463718.5938659,2113,2876,e
1789463718.595159,2053,2876,e
1789463718.597704,2062,2877,e
1789463718.599092,2064,2874,e
1789463718.601423,2140,2877,e
1789463718.60373,2069,2875,e
1789463718.605119,2079,2877,e
1789463718.607424,2130,2875,e
1789463718.60973,2130,2875,e
1789463718.612042,2095,2876,e
1789463718.6133351,2083,2875,e
1789463718.615644,2068,2874,e
1789463718.618201,2131,2877,e
1789463718.619243,2074,2874,e
1789463718.621561,2073,2874,e
1789463718.6241112,2101,2877,e
1789463718.6254022,2091,2876,e
1789463718.6277199,2087,2875,e
1789463718.6300328,2073,2877,e
1789463718.631088,2075,2875,e
1789463718.6351411,2080,2874,e
1789463718.635232,2100,2874,e
1789463718.6373398,2048,2876,e
1789463718.639906,2058,2875,e
1789463718.643701,2099,2876,e
1789463718.6437938,2091,2875,e
1789463718.6458151,2072,2874,e
1789463718.647112,2030,2874,e
1789463718.649181,2093,2877,e
1789463718.6517918,2075,2874,e
1789463718.654093,2075,2875,e
1789463718.655384,2094,2876,e
1789463718.657692,2106,2876,e
1789463718.6602721,2086,2875,e
1789463718.6615639,2067,2875,e
1789463718.663875,2062,2875,e
1789463718.66595,2028,2874,e
1789463718.6671019,2092,2875,e
1789463718.669163,2075,2875,e
1789463718.671226,2067,2873,e
1789463718.673773,2077,2876,e
1789463718.676094,2082,2875,e
1789463718.67716,2041,2875,e
1789463718.6794722,2052,2875,e
1789463718.681781,2034,2874,e
1789463718.683074,2087,2876,e
1789463718.685626,2105,2875,e
1789463718.687886,2075,2874,e
1789463718.692106,2080,2877,e
1789463718.6928372,2095,2875,e
1789463718.694508,2080,2874,e
1789463718.6959481,2084,2875,e
1789463718.6974158,2071,2876,e
1789463718.699334,2071,2875,e
1789463718.703017,2058,2875,e
1789463718.7031198,2045,2875,e
1789463718.705436,2063,2875,e
1789463718.707516,2069,2877,e
1789463718.7100742,2085,2875,e
1789463718.711369,2033,2875,e
1789463718.713917,2066,2877,e
1789463718.7162309,2092,2877,e
1789463718.7172759,2106,2878,e
1789463718.7198231,2101,2875,e
1789463718.7219882,2054,2876,e
1789463718.72307,2060,2877,e
1789463718.7253902,2121,2876,e
1789463718.727456,2088,2874,e
1789463718.729766,2105,2875,e
1789463718.7318342,2044,2876,e
1789463718.7338932,2100,2876,e
1789463718.736208,2100,2875,e
1789463718.737257,2104,2878,e
1789463718.739317,2029,2874,e
1789463718.741633,2091,2875,e
1789463718.743943,2104,2876,e
1789463718.745197,2101,2875,e
1789463718.749674,2045,2876,e
1789463718.750463,2029,2874,e
1789463718.753089,2123,2876,e
1789463718.7545202,2123,2876,e
1789463718.756758,2049,2874,e
1789463718.758485,2080,2877,e
1789463718.76062,2026,2875,e
1789463718.761709,2032,2876,e
1789463718.764288,2019,2876,e
1789463718.765375,2076,2875,e
1789463718.7674592,2098,2878,e
1789463718.769582,2083,2877,e
1789463718.771678,2056,2874,e
1789463718.774103,2147,2877,e
1789463718.77516,2111,2876,e
1789463718.777225,2127,2876,e
1789463718.779302,2107,2875,e
1789463718.781848,2089,2875,e
1789463718.78301,2064,2873,e
1789463718.7853289,2041,2874,e
1789463718.787549,2041,2874,e
1789463718.789612,2047,2873,e
1789463718.792049,2111,2876,e
1789463718.7932549,2105,2875,e
1789463718.795802,2090,2875,e
1789463718.798035,2044,2876,e
1789463718.799089,2053,2874,e
1789463718.801402,2114,2878,e
1789463718.803589,2100,2875,e
1789463718.807408,2104,2877,e
1789463718.807821,2079,2875,e
1789463718.809984,2114,2876,e
1789463718.8117461,2088,2876,e
1789463718.814848,2058,2874,e
1789463718.8165371,2100,2877,e
1789463718.818662,2083,2874,e
1789463718.819735,2080,2875,e
1789463718.821793,2047,2874,e
1789463718.8241029,2061,2877,e
1789463718.825399,2128,2876,e
1789463718.827472,2109,2875,e
1789463718.82984,2026,2875,e
1789463718.830986,2017,2874,e
1789463718.833302,2050,2874,e
1789463718.835851,2062,2875,e
1789463718.837148,2043,2875,e
1789463718.8396952,2056,2875,e
1789463718.8418329,2103,2876,e
1789463718.843004,2026,2875,e
1789463718.8453178,1999,2876,e
1789463718.847866,2039,2877,e
1789463718.849154,2072,2874,e
1789463718.851698,2148,2878,e
1789463718.853757,2111,2878,e
1789463718.8549812,2075,2877,e
1789463718.857279,2133,2877,e
1789463718.859348,2099,2876,e
1789463718.8636138,2039,2876,e
1789463718.864374,2030,2874,e
1789463718.8659992,2061,2875,e
1789463718.867487,2083,2875,e
1789463718.869479,2081,2875,e
1789463718.8723469,2053,2875,e
1789463718.874131,2032,2873,e
1789463718.875263,2078,2877,e
1789463718.877572,2096,2874,e
1789463718.879879,2078,2875,e
1789463718.881172,2043,2874,e
1789463718.883477,2107,2877,e
1789463718.885786,2067,2874,e
1789463718.886997,2057,2874,e
1789463718.889291,2070,2876,e
1789463718.891608,2116,2874,e
1789463718.893942,2130,2876,e
1789463718.8949928,2089,2875,e
1789463718.897562,2075,2876,e
1789463718.900144,2070,2875,e
1789463718.9012039,2086,2875,e
1789463718.90375,2105,2877,e
1789463718.905039,2077,2877,e
1789463718.907586,2141,2875,e
1789463718.909889,2095,2876,e
1789463718.910978,2063,2876,e
1789463718.913383,2082,2875,e
1789463718.915445,2057,2874,e
1789463718.9200058,2075,2875,e
1789463718.920419,2090,2873,e
1789463718.922076,2036,2874,e
1789463718.923738,2060,2876,e
1789463718.926433,2089,2874,e
1789463718.928111,2086,2875,e
1789463718.929609,2064,2876,e
1789463718.931968,2075,2875,e
1789463718.933263,2082,2875,e
1789463718.935812,2109,2875,e
1789463718.937106,2072,2876,e
1789463718.939581,2067,2876,e
1789463718.9421399,2081,2876,e
1789463718.943189,2090,2874,e
1789463718.9455092,2072,2875,e
1789463718.948066,2049,2876,e
1789463718.94911,2075,2876,e
1789463718.951423,2074,2874,e
1789463718.95352,2077,2876,e
1789463718.955859,2062,2874,e
1789463718.9571579,2102,2875,e
1789463718.9597068,2105,2876,e
1789463718.960999,2069,2874,e
1789463718.963305,2036,2876,e
1789463718.965369,2050,2874,e
1789463718.9679239,2089,2875,e
1789463718.969167,2088,2875,e
1789463718.9744608,2055,2875,e
1789463718.974841,2080,2876,e
1789463718.975352,2123,2875,e
1789463718.977101,2068,2876,e
1789463718.9796212,2046,2875,e
1789463718.9834828,2062,2876,e
1789463718.9835699,2101,2878,e
1789463718.9855402,2110,2878,e
1789463718.987752,2107,2877,e
1789463718.9890602,2070,2876,e
1789463718.991389,2075,2875,e
1789463718.993721,2119,2875,e
1789463718.996036,2032,2876,e
1789463718.997335,2059,2876,e
1789463718.999419,2084,2875,e
1789463719.001484,2066,2874,e
1789463719.0039942,2059,2874,e
1789463719.005038,2045,2873,e
1789463719.007586,2088,2877,e
1789463719.009717,2099,2875,e
1789463719.011013,2088,2875,e
1789463719.013561,2048,2875,e
1789463719.0161211,2034,2874,e
1789463719.0174131,2084,2874,e
1789463719.019959,2106,2877,e
1789463719.02125,2071,2874,e
1789463719.023773,2059,2877,e
1789463719.025064,2096,2875,e
1789463719.0276191,2085,2875,e
1789463719.031929,2072,2875,e
1789463719.0327208,2078,2876,e
1789463719.034724,2088,2877,e
1789463719.036736,2073,2874,e
1789463719.037397,2068,2876,e
1789463719.039586,2071,2877,e
1789463719.0412009,2098,2875,e
1789463719.0431511,2094,2875,e
1789463719.045238,2058,2876,e
1789463719.0478861,2049,2875,e
1789463719.048955,2100,2876,e
1789463719.05129,2077,2874,e
1789463719.053609,2105,2877,e
1789463719.055927,2078,2877,e
1789463719.057121,2094,2875,e
1789463719.059435,2093,2875,e
1789463719.061826,2088,2876,e
1789463719.062931,2044,2876,e
1789463719.065252,2061,2874,e
1789463719.067321,2080,2874,e
1789463719.0696378,2083,2874,e
1789463719.070933,2066,2874,e
1789463719.073009,2076,2876,e
1789463719.075079,2096,2875,e
1789463719.0776331,2072,2875,e
1789463719.07972,2062,2876,e
1789463719.0810199,2039,2874,e
1789463719.083092,2076,2874,e
1789463719.085412,2079,2874,e
1789463719.0901482,2066,2874,e
1789463719.090271,2071,2877,e
1789463719.092457,2080,2875,e
1789463719.094334,2097,2875,e
1789463719.095577,2058,2874,e
1789463719.0976472,2079,2876,e
1789463719.099367,2055,2875,e
1789463719.1014469,2096,2874,e
1789463719.1037838,2076,2874,e
1789463719.105078,2060,2873,e
1789463719.107639,2096,2876,e
1789463719.108931,2082,2875,e
1789463719.111001,2056,2875,e
1789463719.113548,2043,2874,e
1789463719.11487,2054,2874,e
1789463719.1172411,2086,2875,e
1789463719.119787,2090,2875,e
1789463719.121079,2072,2875,e
1789463719.1233768,2070,2876,e
1789463719.125922,2092,2875,e
1789463719.127229,2062,2876,e
1789463719.1297762,2073,2875,e
1789463719.131068,2055,2876,e
1789463719.1333702,2070,2875,e
1789463719.135494,2065,2875,e
1789463719.136856,2077,2874,e
1789463719.1394,2078,2878,e
1789463719.1419442,2062,2875,e
1789463719.143231,2086,2875,e
1789463719.148034,2060,2875,e
1789463719.1490932,2056,2876,e
1789463719.150228,2072,2874,e
1789463719.1519942,2078,2875,e
1789463719.155007,2083,2876,e
1789463719.155212,2057,2874,e
1789463719.158402,2090,2876,e
1789463719.159449,2097,2873,e
1789463719.161878,2072,2874,e
1789463719.162932,2083,2877,e
1789463719.165479,2066,2876,e
1789463719.167546,2075,2875,e
1789463719.168899,2103,2878,e
1789463719.171446,2049,2875,e
1789463719.173751,2075,2876,e
1789463719.174958,2115,2875,e
1789463719.1775072,2105,2875,e
1789463719.17982,2051,2874,e
1789463719.181025,2050,2876,e
1789463719.1833322,2077,2874,e
1789463719.185879,2084,2874,e
1789463719.187167,2048,2874,e
1789463719.189467,2065,2876,e
1789463719.1920488,2090,2876,e
1789463719.1933382,2094,2875,e
1789463719.195882,2046,2875,e
1789463719.19717,2041,2875,e
1789463719.202851,2090,2877,e
1789463719.20397,2087,2874,e
1789463719.204084,2077,2875,e
1789463719.205427,2065,2876,e
1789463719.2080798,2092,2876,e
1789463719.211304,2083,2875,e
1789463719.211524,2065,2875,e
1789463719.21347,2055,2875,e
1789463719.21491,2088,2875,e
1789463719.21738,2078,2874,e
1789463719.219702,2095,2875,e
1789463719.2220101,2048,2874,e
1789463719.2230551,2053,2874,e
1789463719.225358,2097,2875,e
1789463719.227659,2088,2875,e
1789463719.228946,2058,2875,e
1789463719.2310112,2052,2876,e
1789463719.233554,2070,2874,e
1789463719.2356281,2091,2876,e
1789463719.237699,2072,2875,e
1789463719.239776,2089,2877,e
1789463719.2410638,2106,2877,e
1789463719.243297,2089,2875,e
1789463719.2456021,2043,2876,e
1789463719.2468889,2053,2877,e
1789463719.2492428,2077,2877,e
1789463719.2515469,2082,2876,e
1789463719.252835,2075,2875,e
1789463719.25822,2066,2875,e
1789463719.258666,2079,2876,e
1789463719.260536,2088,2876,e
1789463719.262096,2072,2874,e
1789463719.264811,2064,2874,e
1789463719.2662039,2067,2876,e
1789463719.2679849,2062,2874,e
1789463719.26904,2080,2875,e
1789463719.271352,2091,2878,e
1789463719.273896,2074,2877,e
1789463719.274949,2123,2876,e
1789463719.277508,2096,2874,e
1789463719.278858,2058,2876,e
1789463719.281405,2056,2876,e
1789463719.2837021,2098,2877,e
1789463719.2849941,2133,2877,e
1789463719.287512,2117,2877,e
1789463719.289813,2061,2876,e
1789463719.2910998,2109,2877,e
1789463719.2936409,2082,2877,e
1789463719.2949262,2037,2876,e
1789463719.2972338,2040,2873,e
1789463719.299776,2055,2874,e
1789463719.3010619,2033,2875,e
1789463719.303278,2051,2874,e
1789463719.3053372,2064,2877,e
1789463719.3104599,2085,2876,e
1789463719.310889,2109,2874,e
1789463719.3109891,2030,2876,e
1789463719.31412,2018,2874,e
1789463719.315688,2039,2875,e
1789463719.3171608,2076,2876,e
1789463719.320123,2062,2875,e
1789463719.321177,2017,2875,e
1789463719.323723,2009,2873,e
1789463719.3250098,2087,2876,e
1789463719.3275578,2134,2875,e
1789463719.328848,2055,2876,e
1789463719.331406,2048,2873,e
1789463719.333465,2076,2875,e
1789463719.335764,2106,2875,e
1789463719.336811,2111,2877,e
1789463719.339243,1986,2874,e
1789463719.3417861,1981,2874,e
1789463719.343074,1988,2874,e
1789463719.3456151,1935,2874,e
1789463719.346907,2012,2875,e
1789463719.348974,2156,2877,e
1789463719.351184,2129,2877,e
1789463719.353733,1966,2875,e
1789463719.354784,1940,2874,e
1789463719.357196,2011,2874,e
1789463719.3592708,2026,2874,e
1789463719.363706,2112,2876,e
1789463719.364427,2096,2875,e
1789463719.366067,1939,2873,e
1789463719.3676999,1914,2874,e
1789463719.369388,2099,2876,e
1789463719.3718898,2247,2877,e
1789463719.3737159,2022,2874,e
1789463719.374927,2002,2875,e
1789463719.377476,2114,2876,e
1789463719.378765,2190,2875,e
1789463719.400397,1983,2873,e
1789463719.407774,1888,2875,e
1789463719.411361,1910,2874,e
1789463719.4114518,1926,2874,e
1789463719.417603,2024,2874,e
1789463719.426978,1982,2873,e
1789463719.4288561,1993,2876,e
1789463719.429344,2242,2877,e
1789463719.429385,2168,2876,e
1789463719.4294138,2013,2874,e
1789463719.429442,2013,2874,e
1789463719.4294689,2180,2877,e
1789463719.429495,2071,2874,e
1789463719.429522,2002,2874,e
1789463719.429549,2184,2876,e
1789463719.429576,2180,2876,e
1789463719.429603,2095,2875,e
1789463719.429631,2057,2876,e
1789463719.4296598,2052,2875,e
1789463719.429687,2064,2875,e
1789463719.429714,2077,2875,e
1789463719.429742,2077,2873,e
1789463719.429769,2068,2876,e
1789463719.4297972,1969,2875,e
1789463719.429826,2047,2875,e
1789463719.43112,1964,2873,e
1789463719.4336262,1908,2874,e
1789463719.434753,2034,2874,e
1789463719.437302,2134,2875,e
1789463719.4393559,2139,2878,e
1789463719.4419022,2060,2877,e
1789463719.4429429,2055,2875,e
1789463719.445247,2075,2875,e
1789463719.447554,1922,2873,e
1789463719.4488451,2038,2874,e
1789463719.451224,1982,2874,e
1789463719.453772,2299,2877,e
1789463719.4550579,2148,2876,e
1789463719.457362,1867,2873,e
1789463719.459657,1973,2872,e
1789463719.460723,2067,2875,e
1789463719.463032,2142,2876,e
1789463719.4655821,2118,2876,e
1789463719.4668732,2149,2877,e
1789463719.469172,2115,2876,e
1789463719.473374,2138,2877,e
1789463719.473811,2105,2877,e
1789463719.475627,2000,2874,e
1789463719.477651,1979,2874,e
1789463719.48162,1991,2873,e
1789463719.48173,2001,2874,e
1789463719.483548,2012,2873,e
1789463719.485873,1991,2873,e
1789463719.487177,2173,2876,e
1789463719.489484,2002,2873,e
1789463719.491783,2199,2876,e
1789463719.492954,2153,2876,e
1789463719.495497,2079,2877,e
1789463719.497804,2066,2877,e
1789463719.498961,2170,2876,e
1789463719.501503,1904,2874,e
1789463719.503801,1972,2874,e
1789463719.504852,2072,2874,e
1789463719.5071502,2037,2874,e
1789463719.5097,1913,2874,e
1789463719.510988,2086,2877,e
1789463719.5132952,2138,2876,e
1789463719.515597,2034,2876,e
1789463719.5168252,2012,2873,e
1789463719.519368,2140,2877,e
1789463719.5207229,2136,2876,e
1789463719.5261629,2077,2876,e
1789463719.5266361,2102,2876,e
1789463719.527345,2124,2876,e
1789463719.529641,2231,2876,e
1789463719.53106,2001,2873,e
1789463719.532845,1950,2874,e
1789463719.5360792,2059,2875,e
1789463719.5371258,2046,2874,e
1789463719.539443,2059,2875,e
1789463719.541756,2110,2877,e
1789463719.543045,2122,2875,e
1789463719.545343,2103,2875,e
1789463719.547651,2019,2876,e
1789463719.5489368,2060,2875,e
1789463719.5514839,2069,2875,e
1789463719.552769,2115,2875,e
1789463719.5550761,2070,2875,e
1789463719.5573828,2078,2876,e
1789463719.559689,2138,2875,e
1789463719.56098,1996,2875,e
1789463719.5632892,2025,2876,e
1789463719.565832,2154,2877,e
1789463719.567007,2098,2875,e
1789463719.5695481,1979,2875,e
1789463719.571838,1971,2876,e
1789463719.57311,2063,2875,e
1789463719.5780969,2273,2876,e
1789463719.578911,2156,2875,e
1789463719.579,1972,2875,e
1789463719.5823328,1903,2874,e
1789463719.584691,2128,2875,e
1789463719.58482,2122,2875,e
1789463719.587832,2133,2878,e
1789463719.589001,2106,2877,e
1789463719.591177,2117,2876,e
1789463719.593478,2128,2875,e
1789463719.594763,1901,2874,e
1789463719.597319,1977,2874,e
1789463719.59962,2228,2877,e
1789463719.600717,2179,2878,e
1789463719.602986,1907,2874,e
1789463719.605293,2159,2877,e
1789463719.6076002,2175,2877,e
1789463719.608727,2054,2875,e
1789463719.610802,2134,2876,e
1789463719.61323,2105,2876,e
1789463719.615535,2081,2873,e
1789463719.617594,2053,2875,e
1789463719.618879,2089,2874,e
1789463719.621281,1965,2875,e
1789463719.623577,1862,2874,e
1789463719.624715,2056,2876,e
1789463719.629083,2156,2875,e
1789463719.629453,2111,2876,e
1789463719.631434,2106,2876,e
1789463719.633215,2191,2875,e
1789463719.636933,2174,2877,e
1789463719.637126,2106,2875,e
1789463719.639703,2093,2873,e
1789463719.640755,2128,2876,e
1789463719.643233,2056,2876,e
1789463719.645544,2031,2875,e
1789463719.64683,1933,2874,e
1789463719.6489012,2019,2875,e
1789463719.6511948,2160,2877,e
1789463719.653499,2157,2877,e
1789463719.655828,2156,2877,e
1789463719.657116,2068,2875,e
1789463719.659425,2054,2876,e
1789463719.6607108,1960,2874,e
1789463719.663253,1889,2874,e
1789463719.665798,2074,2877,e
1789463719.6670852,2297,2877,e
1789463719.669149,2254,2875,e
1789463719.6716878,2041,2876,e
1789463719.6729732,1966,2874,e
1789463719.6752791,2042,2873,e
1789463719.679978,2195,2875,e
1789463719.6810071,2054,2874,e
1789463719.681387,2010,2874,e
1789463719.683562,2040,2876,e
1789463719.685323,2103,2875,e
1789463719.686707,1989,2873,e
1789463719.689415,2105,2876,e
1789463719.6907048,2295,2877,e
1789463719.69326,2348,2877,e
1789463719.695808,1976,2875,e
1789463719.6971,1881,2874,e
1789463719.69933,1990,2874,e
1789463719.7015529,2037,2874,e
1789463719.703864,2093,2876,e
1789463719.7051232,2029,2876,e
1789463719.707662,1905,2874,e
1789463719.70871,2086,2875,e
1789463719.711016,2287,2877,e
1789463719.71331,2184,2877,e
1789463719.715852,2160,2878,e
1789463719.717136,2108,2877,e
1789463719.719334,1996,2874,e
1789463719.720642,1953,2874,e
1789463719.723026,2074,2877,e
1789463719.725386,2104,2876,e
1789463719.7266738,2037,2876,e
1789463719.731613,2010,2876,e
1789463719.7322502,2031,2874,e
1789463719.733844,2114,2876,e
1789463719.735588,2099,2874,e
1789463719.737846,2098,2878,e
1789463719.73927,2100,2876,e
1789463719.740934,2124,2875,e
1789463719.743486,2069,2876,e
1789463719.7447839,2004,2875,e
1789463719.747091,2139,2877,e
1789463719.749635,2001,2874,e
1789463719.7509198,2049,2875,e
1789463719.753338,2043,2874,e
1789463719.75465,1989,2874,e
1789463719.756945,2183,2876,e
1789463719.75899,2144,2876,e
1789463719.761529,2157,2875,e
1789463719.7626162,2133,2876,e
1789463719.765156,2128,2877,e
1789463719.767206,2101,2874,e
1789463719.7695029,2158,2877,e
1789463719.7707908,1966,2874,e
1789463719.773089,1991,2874,e
1789463719.775393,2063,2876,e
1789463719.776675,2192,2875,e
1789463719.781245,2036,2876,e
1789463719.7818801,2029,2876,e
1789463719.78378,2061,2874,e
1789463719.785234,2180,2878,e
1789463719.7878752,2165,2878,e
1789463719.789249,2148,2877,e
1789463719.79103,1982,2873,e
1789463719.793355,2050,2876,e
1789463719.7946491,1954,2874,e
1789463719.797195,1942,2874,e
1789463719.799396,2213,2876,e
1789463719.800682,2140,2877,e
1789463719.8032231,2154,2877,e
1789463719.804645,2080,2877,e
1789463719.806993,2126,2877,e
1789463719.8090408,2134,2876,e
1789463719.811579,2109,2876,e
1789463719.812862,2061,2876,e
1789463719.815401,2011,2874,e
1789463719.8176692,2001,2874,e
1789463719.818959,2012,2874,e
1789463719.8214972,2030,2874,e
1789463719.822782,2042,2874,e
1789463719.82532,2117,2876,e
1789463719.826605,2020,2875,e
1789463719.831295,1952,2874,e
1789463719.8313851,2092,2877,e
1789463719.833384,2133,2877,e
1789463719.83486,2130,2877,e
1789463719.8373592,2168,2878,e
1789463719.838827,2086,2876,e
1789463719.841648,2102,2877,e
1789463719.842946,2157,2876,e
1789463719.845118,2058,2876,e
1789463719.84742,2051,2874,e
1789463719.84955,2114,2877,e
1789463719.850622,2030,2875,e
1789463719.853162,2071,2876,e
1789463719.855605,2009,2873,e
1789463719.8566499,2127,2877,e
1789463719.8589492,2018,2874,e
1789463719.861023,1980,2873,e
1789463719.863321,2088,2877,e
1789463719.864637,2033,2874,e
1789463719.8671832,2261,2877,e
1789463719.869747,2026,2875,e
1789463719.871038,1930,2874,e
1789463719.8735769,2043,2874,e
1789463719.87486,2101,2877,e
1789463719.880992,2232,2876,e
1789463719.881369,1954,2874,e
1789463719.881697,1959,2874,e
1789463719.884098,1911,2874,e
1789463719.885569,2058,2874,e
1789463719.888108,2142,2877,e
1789463719.889774,2122,2876,e
1789463719.891068,2248,2876,e
1789463719.8931441,2155,2876,e
1789463719.89545,2233,2876,e
1789463719.896737,2101,2876,e
1789463719.899286,2067,2874,e
1789463719.900599,2101,2875,e
1789463719.9028978,2061,2875,e
1789463719.904997,1934,2874,e
1789463719.907053,2099,2877,e
1789463719.909593,2125,2875,e
1789463719.9106922,1944,2873,e
1789463719.912998,1968,2875,e
1789463719.915539,2016,2875,e
1789463719.91664,2123,2875,e
1789463719.918779,2000,2875,e
1789463719.921343,2051,2874,e
1789463719.922632,2081,2875,e
1789463719.924738,2136,2875,e
1789463719.930315,2090,2876,e
1789463719.930429,2169,2875,e
1789463719.9310238,2082,2876,e
1789463719.933474,2165,2877,e
1789463719.934928,2094,2874,e
1789463719.93746,2100,2874,e
1789463719.9390988,2067,2876,e
1789463719.9414,2031,2876,e
1789463719.943699,2073,2875,e
1789463719.9447439,2158,2876,e
1789463719.946958,2057,2875,e
1789463719.9494982,2046,2874,e
1789463719.95059,1986,2874,e
1789463719.9529788,2059,2875,e
1789463719.9555352,2062,2873,e
1789463719.956823,2064,2875,e
1789463719.95889,2082,2875,e
1789463719.9614289,2059,2875,e
1789463719.963522,2052,2875,e
1789463719.964609,2062,2874,e
1789463719.966811,2152,2877,e
1789463719.9689012,2202,2878,e
1789463719.971307,2121,2877,e
1789463719.9726012,1958,2873,e
1789463719.9751391,1957,2873,e
1789463719.98016,1955,2872,e
1789463719.980587,1946,2872,e
1789463719.981258,2104,2876,e
1789463719.982916,2091,2876,e
1789463719.985906,2184,2877,e
1789463719.988495,2184,2876,e
1789463719.9887621,2102,2876,e
1789463719.9912388,2173,2877,e
1789463719.993552,2079,2875,e
1789463719.994615,2086,2876,e
1789463719.996914,1920,2873,e
1789463719.999213,2025,2874,e
1789463720.001516,2117,2876,e
1789463720.002607,2041,2877,e
1789463720.005107,1921,2873,e
1789463720.007416,2052,2876,e
1789463720.008706,2189,2878,e
1789463720.01125,2140,2877,e
1789463720.013597,2109,2876,e
1789463720.0146391,2229,2878,e
1789463720.016939,2149,2876,e
1789463720.018996,2065,2873,e
1789463720.0215418,2043,2873,e
1789463720.022827,2087,2876,e
1789463720.0250602,2135,2875,e
1789463720.027593,2107,2875,e
1789463720.031241,1942,2872,e
1789463720.031855,2009,2874,e
1789463720.033243,2084,2877,e
1789463720.03458,2131,2876,e
1789463720.037345,2075,2876,e
1789463720.038949,2016,2873,e
1789463720.0415812,2028,2874,e
1789463720.043037,2135,2877,e
1789463720.045625,2182,2877,e
1789463720.046669,2030,2876,e
1789463720.049214,2007,2873,e
1789463720.051302,2112,2876,e
1789463720.053608,2051,2875,e
1789463720.054894,2007,2875,e
1789463720.0569541,2106,2877,e
1789463720.059246,2153,2876,e
1789463720.060531,2141,2876,e
1789463720.06307,2086,2876,e
1789463720.0656111,2048,2877,e
1789463720.06672,2059,2875,e
1789463720.069268,2054,2874,e
1789463720.071564,1960,2874,e
1789463720.0728478,2085,2877,e
1789463720.0753868,2198,2876,e
1789463720.076671,1994,2875,e
1789463720.08112,2072,2876,e
1789463720.081556,2168,2876,e
1789463720.083324,2118,2877,e
1789463720.084887,2118,2877,e
1789463720.087486,2069,2875,e
1789463720.0890582,2094,2874,e
1789463720.0908391,2106,2877,e
1789463720.093363,2158,2876,e
1789463720.094651,2074,2875,e
1789463720.0969431,1907,2874,e
1789463720.0991611,2023,2875,e
1789463720.1014662,2153,2876,e
1789463720.102508,2101,2875,e
1789463720.1046112,2066,2874,e
1789463720.1066601,1972,2874,e
1789463720.109201,2053,2876,e
1789463720.111686,2090,2876,e
1789463720.112732,2129,2876,e
1789463720.115274,2054,2877,e
1789463720.117406,2074,2876,e
1789463720.11869,2081,2874,e
1789463720.121239,2079,2876,e
1789463720.122524,2125,2877,e
1789463720.124945,2166,2877,e
1789463720.127485,2127,2876,e
1789463720.131385,2100,2876,e
1789463720.131729,2046,2875,e
1789463720.133583,2063,2874,e
1789463720.135245,2115,2878,e
1789463720.137623,2091,2875,e
1789463720.139075,2069,2875,e
1789463720.14167,2108,2877,e
1789463720.142967,2113,2876,e
1789463720.145515,2024,2875,e
1789463720.14656,1974,2874,e
1789463720.148865,2047,2874,e
1789463720.151406,2074,2874,e
1789463720.152694,2071,2875,e
1789463720.155096,2042,2874,e
1789463720.1565068,2111,2877,e
1789463720.158862,2111,2875,e
1789463720.1609879,2076,2874,e
1789463720.163334,2068,2876,e
1789463720.164624,2079,2876,e
1789463720.167103,2072,2874,e
1789463720.169173,2070,2876,e
1789463720.1704571,2054,2874,e
1789463720.172995,2064,2877,e
1789463720.1750588,2083,2877,e
1789463720.177599,2050,2875,e
1789463720.18165,2044,2876,e
1789463720.182016,2046,2876,e
1789463720.184145,2059,2875,e
1789463720.18591,2116,2878,e
1789463720.188236,2100,2878,e
1789463720.19002,2077,2877,e
1789463720.191657,2067,2876,e
1789463720.192713,2102,2876,e
1789463720.19502,2049,2876,e
1789463720.1973288,2068,2876,e
1789463720.1994,2062,2875,e
1789463720.2005088,2065,2874,e
1789463720.202681,2073,2874,e
1789463720.204978,2044,2874,e
1789463720.207521,2063,2876,e
1789463720.208763,2110,2874,e
1789463720.210918,2094,2875,e
1789463720.212975,2039,2875,e
1789463720.215282,2066,2876,e
1789463720.2165692,2081,2874,e
1789463720.218861,2095,2875,e
1789463720.221257,2068,2875,e
1789463720.222542,2056,2874,e
1789463720.225079,2068,2876,e
1789463720.230665,2090,2875,e
1789463720.231856,2078,2875,e
1789463720.232471,2055,2875,e
1789463720.232565,2072,2877,e
1789463720.237976,2092,2874,e
1789463720.238859,2110,2877,e
1789463720.24003,2019,2874,e
1789463720.241677,2083,2875,e
1789463720.242927,2109,2874,e
1789463720.245037,2094,2874,e
1789463720.246729,2076,2875,e
1789463720.249304,2082,2876,e
1789463720.250593,2103,2877,e
1789463720.2530189,2064,2875,e
1789463720.255247,2060,2875,e
1789463720.256542,2072,2876,e
1789463720.2588449,2116,2875,e
1789463720.2609122,2091,2875,e
1789463720.263457,2035,2875,e
1789463720.2647429,2038,2876,e
1789463720.267048,2088,2876,e
1789463720.269592,2111,2877,e
1789463720.270875,2079,2875,e
1789463720.273033,2083,2876,e
1789463720.275315,2100,2877,e
1789463720.2766058,2131,2877,e
1789463720.278663,2071,2875,e
1789463720.2809632,2071,2876,e
1789463720.283009,2090,2876,e
1789463720.285314,2090,2874,e
1789463720.288848,2080,2875,e
1789463720.28916,2062,2876,e
1789463720.291208,2085,2877,e
1789463720.292508,2091,2876,e
1789463720.295559,2101,2875,e
1789463720.29707,2056,2874,e
1789463720.298814,2041,2872,e
1789463720.300918,2078,2875,e
1789463720.303231,2069,2874,e
1789463720.30452,2100,2877,e
1789463720.307061,2075,2875,e
1789463720.3094678,2135,2875,e
1789463720.3105211,2093,2874,e
1789463720.312928,2050,2876,e
1789463720.3153431,2048,2876,e
1789463720.316632,2068,2873,e
1789463720.319173,2025,2874,e
1789463720.320459,2086,2876,e
1789463720.322931,2071,2877,e
1789463720.325453,2141,2876,e
1789463720.3264918,2123,2874,e
1789463720.329034,2066,2875,e
1789463720.331164,2061,2875,e
1789463720.333469,2090,2877,e
1789463720.334521,2125,2876,e
1789463720.3368168,2123,2877,e
1789463720.340589,2082,2876,e
1789463720.3409889,2091,2876,e
1789463720.3430731,2058,2876,e
1789463720.344584,2071,2876,e
1789463720.347877,2055,2875,e
1789463720.3494358,2058,2874,e
1789463720.351367,2117,2878,e
1789463720.3526652,2043,2873,e
1789463720.355225,2096,2877,e
1789463720.356514,2084,2876,e
1789463720.359055,2127,2875,e
1789463720.360343,2086,2876,e
1789463720.362571,2054,2876,e
1789463720.365118,2032,2874,e
1789463720.3674262,2070,2875,e
1789463720.368478,2099,2874,e
1789463720.3707762,2079,2874,e
1789463720.3730078,2038,2874,e
1789463720.374381,2086,2875,e
1789463720.37668,2077,2875,e
1789463720.3792262,2042,2876,e
1789463720.380522,2069,2875,e
1789463720.382828,2066,2874,e
1789463720.385128,2071,2875,e
1789463720.387418,2071,2875,e
1789463720.388701,2043,2874,e
1789463720.3909981,2107,2876,e
1789463720.394617,2083,2875,e
1789463720.3950531,2074,2874,e
1789463720.397187,2050,2876,e
1789463720.398994,2064,2874,e
1789463720.401422,2094,2875,e
1789463720.4029188,2101,2874,e
1789463720.404953,2047,2875,e
1789463720.407553,2025,2874,e
1789463720.408842,2107,2875,e
1789463720.410968,2059,2875,e
1789463720.412383,2074,2875,e
1789463720.4145558,2090,2876,e
1789463720.4170282,2119,2877,e
1789463720.418349,2086,2874,e
1789463720.4204092,2114,2877,e
1789463720.42271,2085,2877,e
1789463720.4252532,2116,2875,e
1789463720.42652,2077,2875,e
1789463720.428573,2048,2875,e
1789463720.4308832,2044,2876,e
1789463720.433016,2031,2875,e
1789463720.434361,2092,2875,e
1789463720.436967,2056,2875,e
1789463720.4419389,2079,2877,e
1789463720.442121,2115,2875,e
1789463720.4435258,2105,2874,e
1789463720.445003,2075,2875,e
1789463720.4463701,2075,2877,e
1789463720.4506361,2081,2875,e
1789463720.45067,2069,2874,e
1789463720.454255,2082,2875,e
1789463720.455169,2075,2874,e
1789463720.458008,2091,2877,e
1789463720.459629,2084,2875,e
1789463720.4614122,2096,2874,e
1789463720.4627242,2061,2875,e
1789463720.4648519,2043,2873,e
1789463720.467378,2093,2876,e
1789463720.4712498,2057,2876,e
1789463720.472126,2091,2875,e
1789463720.4737978,2046,2874,e
1789463720.4751701,2074,2876,e
1789463720.476872,2120,2875,e
1789463720.4795148,2055,2875,e
1789463720.480808,2041,2876,e
1789463720.483052,2098,2876,e
1789463720.485526,2108,2878,e
1789463720.4868228,2074,2875,e
1789463720.489226,2070,2875,e
1789463720.490527,2095,2876,e
1789463720.492824,2107,2876,e
1789463720.494891,2073,2875,e
1789463720.497185,2022,2875,e
1789463720.498328,2082,2877,e
1789463720.500641,2048,2874,e
1789463720.502964,2119,2878,e
1789463720.505291,2115,2877,e
1789463720.506392,2058,2876,e
1789463720.5088372,2078,2877,e
1789463720.511371,2088,2876,e
1789463720.5124202,2033,2875,e
1789463720.5148559,2075,2876,e
1789463720.5172591,2078,2874,e
1789463720.5185668,2049,2874,e
1789463720.520917,2065,2875,e
1789463720.523016,2069,2877,e
1789463720.527426,2130,2876,e
1789463720.5296588,2127,2876,e
1789463720.531171,2106,2875,e
1789463720.532591,2037,2876,e
1789463720.533029,2075,2874,e
1789463720.5367,2109,2876,e
1789463720.5369978,2086,2876,e
1789463720.5388448,2037,2874,e
1789463720.541003,2066,2875,e
1789463720.5431628,2065,2876,e
1789463720.544429,2087,2875,e
1789463720.546929,2052,2875,e
1789463720.5490618,2038,2874,e
1789463720.551129,2161,2878,e
1789463720.552416,2179,2877,e
1789463720.554965,2097,2877,e
1789463720.5572941,2019,2873,e
1789463720.55858,2126,2876,e
1789463720.5611231,2117,2876,e
1789463720.5634391,2076,2876,e
1789463720.5647302,2003,2874,e
1789463720.567275,2036,2874,e
1789463720.568568,2018,2875,e
1789463720.5711172,2054,2875,e
1789463720.572403,2056,2876,e
1789463720.5749462,2069,2875,e
1789463720.580699,2076,2875,e
1789463720.5807848,2058,2876,e
1789463720.581515,2050,2876,e
1789463720.583101,2083,2877,e
1789463720.584633,2090,2874,e
1789463720.5888681,2164,2877,e
1789463720.588963,2142,2877,e
1789463720.59064,2069,2875,e
1789463720.593191,2103,2876,e
1789463720.594553,2111,2875,e
1789463720.596969,2050,2876,e
1789463720.599264,2034,2874,e
1789463720.600559,2057,2875,e
1789463720.603105,2018,2874,e
1789463720.6042418,2020,2874,e
1789463720.606785,2046,2876,e
1789463720.60909,2082,2877,e
1789463720.610376,2089,2875,e
1789463720.612921,2050,2876,e
1789463720.6151402,2066,2876,e
1789463720.6162171,2094,2874,e
1789463720.6185238,2109,2876,e
1789463720.620586,2051,2874,e
1789463720.6228921,2084,2876,e
1789463720.625189,2099,2877,e
1789463720.626474,2094,2875,e
1789463720.632979,2053,2875,e
1789463720.633728,2062,2875,e
1789463720.6338382,2068,2874,e
1789463720.636108,2049,2875,e
1789463720.636529,2095,2875,e
1789463720.6392431,2069,2877,e
1789463720.640714,2062,2874,e
1789463720.643327,2047,2876,e
1789463720.64462,2078,2875,e
1789463720.6470249,2066,2876,e
1789463720.648318,2050,2874,e
1789463720.6504261,2082,2874,e
1789463720.65297,2101,2874,e
1789463720.6542552,2059,2875,e
1789463720.656554,2042,2873,e
1789463720.658852,2077,2875,e
1789463720.661161,2099,2875,e
1789463720.662445,2074,2874,e
1789463720.6649852,2003,2873,e
1789463720.66705,2080,2875,e
1789463720.6683378,2087,2875,e
1789463720.670881,2088,2875,e
1789463720.67294,2047,2874,e
1789463720.674272,2067,2875,e
1789463720.676815,2061,2875,e
1789463720.679219,2075,2875,e
1789463720.682177,2075,2876,e
1789463720.683104,2071,2877,e
1789463720.6846368,2073,2874,e
1789463720.687326,2046,2874,e
1789463720.688781,2067,2875,e
1789463720.6917582,2061,2877,e
1789463720.693055,2102,2875,e
1789463720.6943412,2067,2875,e
1789463720.696821,2050,2875,e
1789463720.6993752,2055,2876,e
1789463720.700664,2082,2875,e
1789463720.7032058,2083,2876,e
1789463720.704492,2069,2875,e
1789463720.707032,2078,2876,e
1789463720.709144,2068,2875,e
1789463720.710428,2093,2874,e
1789463720.712727,2063,2874,e
1789463720.7152379,2066,2875,e
1789463720.716522,2071,2876,e
1789463720.719069,2127,2878,e
1789463720.7202299,2089,2875,e
1789463720.722292,2038,2874,e
1789463720.72483,2075,2877,e
1789463720.727138,2108,2875,e
1789463720.728222,2077,2873,e
1789463720.733417,2047,2875,e
1789463720.733783,2053,2877,e
1789463720.736066,2065,2874,e
1789463720.737864,2079,2874,e
1789463720.7393641,2073,2876,e
1789463720.74093,2070,2877,e
1789463720.74263,2104,2875,e
1789463720.7447019,2074,2875,e
1789463720.746835,2049,2875,e
1789463720.74915,2060,2876,e
1789463720.752887,2094,2876,e
1789463720.753262,2084,2875,e
1789463720.7552881,2082,2875,e
1789463720.757654,2073,2877,e
1789463720.7596102,2119,2876,e
1789463720.761046,2101,2875,e
1789463720.762817,2045,2876,e
1789463720.7654269,2042,2875,e
1789463720.766537,2092,2877,e
1789463720.768838,2098,2877,e
1789463720.77139,2080,2875,e
1789463720.772681,2071,2877,e
1789463720.7749891,2113,2876,e
1789463720.776277,2096,2876,e
1789463720.778826,2079,2875,e
1789463720.78117,2064,2875,e
1789463720.782227,2068,2876,e
1789463720.784775,2078,2873,e
1789463720.787068,2083,2875,e
1789463720.7882318,2079,2876,e
1789463720.790538,2086,2876,e
1789463720.793088,2132,2875,e
1789463720.7942321,2085,2875,e
1789463720.796361,2069,2876,e
1789463720.7986739,2056,2876,e
1789463720.8034801,2062,2874,e
1789463720.804215,2089,2875,e
1789463720.804672,2071,2875,e
1789463720.80621,2060,2878,e
1789463720.809251,2068,2875,e
1789463720.8120441,2085,2875,e
1789463720.81371,2067,2875,e
1789463720.815031,2081,2875,e
1789463720.816885,2063,2875,e
1789463720.8181791,2094,2875,e
1789463720.8202398,2083,2876,e
1789463720.823952,2060,2875,e
1789463720.825734,2086,2876,e
1789463720.8272069,2098,2875,e
1789463720.828892,2045,2875,e
1789463720.831397,2041,2875,e
1789463720.833206,2085,2877,e
1789463720.834253,2075,2876,e
1789463720.836353,2080,2875,e
1789463720.838698,2055,2875,e
1789463720.84075,2095,2877,e
1789463720.8431501,2117,2875,e
1789463720.844196,2105,2875,e
1789463720.846505,2029,2874,e
1789463720.848779,2074,2875,e
1789463720.850133,2080,2874,e
1789463720.8526871,2100,2875,e
1789463720.8552341,2054,2875,e
1789463720.8564239,2040,2873,e
1789463720.8587189,2082,2876,e
1789463720.86078,2092,2874,e
1789463720.8621151,2058,2874,e
1789463720.864426,2045,2875,e
1789463720.866723,2078,2877,e
1789463720.86812,2100,2877,e
1789463720.870871,2090,2875,e
1789463720.874804,2089,2877,e
1789463720.876363,2123,2877,e
1789463720.876491,2115,2875,e
1789463720.879461,2047,2876,e
1789463720.881845,2069,2875,e
1789463720.883617,2064,2874,e
1789463720.884908,2068,2874,e
1789463720.886616,2115,2876,e
1789463720.88892,2059,2872,e
1789463720.891228,2068,2877,e
1789463720.892514,2080,2876,e
1789463720.894572,2077,2875,e
1789463720.89687,2069,2875,e
1789463720.899177,2065,2874,e
1789463720.900467,2098,2877,e
1789463720.9025412,2061,2874,e
1789463720.904841,2057,2874,e
1789463720.907139,2068,2877,e
1789463720.908182,2087,2875,e
1789463720.910478,2100,2875,e
1789463720.912769,2062,2876,e
1789463720.9141078,2064,2876,e
1789463720.9167511,2069,2873,e
1789463720.9181151,2072,2875,e
1789463720.920408,2073,2875,e
1789463720.922533,2072,2875,e
1789463720.926079,2096,2878,e
1789463720.926493,2105,2875,e
1789463720.929536,2073,2874,e
1789463720.9308438,2075,2876,e
1789463720.932744,2077,2876,e
1789463720.9342148,2091,2874,e
1789463720.936755,2097,2874,e
1789463720.938123,2071,2875,e
1789463720.940671,2065,2876,e
1789463720.943103,2105,2875,e
1789463720.944393,2077,2875,e
1789463720.946934,2052,2874,e
1789463720.94822,2026,2874,e
1789463720.95062,2091,2877,e
1789463720.9529119,2091,2874,e
1789463720.955015,2082,2875,e
1789463720.956314,2092,2876,e
1789463720.958611,2084,2874,e
1789463720.960703,2107,2874,e
1789463720.963008,2085,2874,e
1789463720.9641228,2049,2875,e
1789463720.9664252,2067,2873,e
1789463720.968479,2087,2875,e
1789463720.970774,2082,2875,e
1789463720.973185,2021,2875,e
1789463720.9770198,2077,2876,e
1789463720.9774468,2120,2875,e
1789463720.979247,2099,2875,e
1789463720.980811,2060,2875,e
1789463720.9823098,2070,2876,e
1789463720.98459,2108,2878,e
1789463720.987159,2121,2878,e
1789463720.9881952,2072,2874,e
1789463720.99026,2099,2877,e
1789463720.992692,2106,2876,e
1789463720.9952471,2089,2875,e
1789463720.996292,2045,2876,e
1789463720.998603,2072,2875,e
1789463721.0011468,2086,2876,e
1789463721.002444,2061,2875,e
1789463721.004744,2020,2875,e
1789463721.007305,2036,2874,e
1789463721.008554,2140,2876,e
1789463721.010985,2090,2875,e
1789463721.012029,1985,2874,e
1789463721.014081,2050,2875,e
1789463721.016626,2075,2874,e
1789463721.018684,2094,2875,e
1789463721.020747,2125,2878,e
1789463721.02302,2084,2877,e
1789463721.026762,2094,2876,e
1789463721.0275478,2099,2876,e
1789463721.02894,2057,2876,e
1789463721.0303712,2058,2874,e
1789463721.033074,2107,2876,e
1789463721.034492,2077,2874,e
1789463721.037382,2082,2875,e
1789463721.03869,2064,2874,e
1789463721.0412202,2084,2875,e
1789463721.0425138,2114,2875,e
1789463721.04464,2107,2875,e
1789463721.046693,2070,2875,e
1789463721.048745,2074,2877,e
1789463721.051043,2144,2876,e
1789463721.0520809,2021,2874,e
1789463721.054594,2042,2875,e
1789463721.057156,2048,2875,e
1789463721.0584488,2043,2875,e
1789463721.060527,2077,2874,e
1789463721.062591,2043,2875,e
1789463721.063976,2028,2876,e
1789463721.066289,2087,2877,e
1789463721.0685859,2165,2877,e
1789463721.070867,2092,2876,e
1789463721.072159,2067,2875,e
1789463721.0747032,2103,2877,e
1789463721.075993,2096,2874,e
1789463721.0804732,2066,2876,e
1789463721.081235,2054,2875,e
1789463721.0829408,2162,2876,e
1789463721.083998,2064,2877,e
1789463721.087283,2069,2874,e
1789463721.088883,2101,2878,e
1789463721.0902069,2146,2877,e
1789463721.092649,2098,2876,e
1789463721.09509,2083,2876,e
1789463721.0963871,2016,2876,e
1789463721.100557,2056,2876,e
1789463721.101845,2054,2873,e
1789463721.102978,2023,2875,e
1789463721.104697,2010,2876,e
1789463721.1060731,2065,2875,e
1789463721.1091998,2129,2874,e
1789463721.111755,2093,2876,e
1789463721.112982,2065,2875,e
1789463721.114143,2052,2875,e
1789463721.1166432,2055,2873,e
1789463721.118814,2092,2875,e
1789463721.119966,2047,2875,e
1789463721.122474,2021,2874,e
1789463721.124558,2101,2876,e
1789463721.126915,2147,2874,e
1789463721.1280708,2103,2875,e
1789463721.130382,2020,2875,e
1789463721.132683,2007,2873,e
1789463721.134749,2068,2876,e
1789463721.135966,2134,2878,e
1789463721.138528,2201,2876,e
1789463721.14003,2132,2876,e
1789463721.142221,2103,2876,e
1789463721.144773,1944,2872,e
1789463721.1468391,2173,2876,e
1789463721.148128,2268,2877,e
1789463721.15359,1999,2875,e
1789463721.1536582,1873,2874,e
1789463721.155948,1995,2873,e
1789463721.156128,1990,2873,e
1789463721.158847,2189,2876,e
1789463721.160749,2205,2875,e
1789463721.1621969,2205,2875,e
1789463721.164675,1862,2873,e
1789463721.165971,1974,2874,e
1789463721.168721,2191,2877,e
1789463721.173932,2424,2877,e
1789463721.1756191,1846,2874,e
1789463721.175764,1663,2873,e
1789463721.178061,2033,2876,e
1789463721.1784582,2165,2875,e
1789463721.1804109,2126,2875,e
1789463721.1834922,2075,2876,e
1789463721.184782,1931,2874,e
1789463721.18607,2006,2875,e
1789463721.1883829,2359,2877,e
1789463721.19045,2384,2876,e
1789463721.192994,2250,2876,e
1789463721.1942809,1823,2873,e
1789463721.1963258,2005,2874,e
1789463721.19876,2079,2874,e
1789463721.2001002,2025,2874,e
1789463721.2021708,2133,2876,e
1789463721.204231,2081,2875,e
1789463721.206791,1952,2873,e
1789463721.208884,1896,2872,e
1789463721.210171,2078,2876,e
1789463721.2127218,2099,2876,e
1789463721.214009,2136,2877,e
1789463721.2165601,2110,2876,e
1789463721.218902,2109,2877,e
1789463721.220193,2057,2874,e
1789463721.225468,2037,2874,e
1789463721.226206,2100,2876,e
1789463721.2266681,1992,2874,e
1789463721.2293918,1919,2874,e
1789463721.232061,2099,2876,e
1789463721.232215,2110,2876,e
1789463721.2350368,2083,2876,e
1789463721.236337,2235,2876,e
1789463721.23842,2144,2877,e
1789463721.2407339,2325,2877,e
1789463721.2420218,2186,2877,e
1789463721.244092,1922,2874,e
1789463721.246399,2164,2877,e
1789463721.248945,2415,2876,e
1789463721.2502332,2115,2876,e
1789463721.252543,1874,2873,e
1789463721.255085,1913,2874,e
1789463721.256371,1988,2874,e
1789463721.258911,1976,2874,e
1789463721.2601962,2042,2874,e
1789463721.26274,1962,2874,e
1789463721.264025,2043,2876,e
1789463721.2665632,1994,2874,e
1789463721.2689972,1973,2873,e
1789463721.270281,1950,2874,e
1789463721.272823,2333,2878,e
1789463721.2776031,2097,2876,e
1789463721.277683,2254,2877,e
1789463721.2795,2103,2876,e
1789463721.281201,2120,2875,e
1789463721.2828438,1988,2874,e
1789463721.284045,2143,2877,e
1789463721.28705,2037,2875,e
1789463721.288092,1987,2874,e
1789463721.290178,2178,2876,e
1789463721.292693,2058,2875,e
1789463721.2939808,2055,2875,e
1789463721.296263,2048,2874,e
1789463721.298804,1982,2874,e
1789463721.299862,2064,2874,e
1789463721.30241,2111,2877,e
1789463721.3047109,1994,2874,e
1789463721.3059971,1882,2874,e
1789463721.30845,1977,2874,e
1789463721.311008,2196,2876,e
1789463721.312292,2078,2875,e
1789463721.314659,2018,2876,e
1789463721.316767,2026,2874,e
1789463721.31806,2056,2873,e
1789463721.320611,2135,2876,e
1789463721.3219001,2084,2875,e
1789463721.3239858,2134,2876,e
1789463721.329955,2118,2876,e
1789463721.33041,2159,2876,e
1789463721.331879,2167,2876,e
1789463721.3320022,2097,2876,e
1789463721.334989,1993,2874,e
1789463721.3362958,2054,2875,e
1789463721.339426,2133,2874,e
1789463721.340568,2234,2876,e
1789463721.3419662,2140,2875,e
1789463721.34472,2032,2875,e
1789463721.345885,1946,2872,e
1789463721.3484318,2105,2876,e
1789463721.350805,2046,2874,e
1789463721.352097,2138,2877,e
1789463721.354645,2015,2873,e
1789463721.355933,2090,2877,e
1789463721.3584042,2105,2876,e
1789463721.3604789,2128,2876,e
1789463721.362934,2013,2875,e
1789463721.3639889,1988,2874,e
1789463721.3662238,2133,2877,e
1789463721.368531,2094,2874,e
1789463721.370591,2135,2877,e
1789463721.372899,2047,2874,e
1789463721.373944,2065,2876,e
1789463721.37602,2044,2876,e
1789463721.378325,2174,2875,e
1789463721.382772,2141,2876,e
1789463721.383577,2103,2877,e
1789463721.385238,2126,2876,e
1789463721.386863,2134,2877,e
1789463721.3897102,1972,2874,e
1789463721.3912342,2107,2877,e
1789463721.3931148,2071,2876,e
1789463721.3941681,1994,2876,e
1789463721.396377,1970,2872,e
1789463721.3989341,2027,2877,e
1789463721.402814,2062,2875,e
1789463721.403181,2114,2878,e
1789463721.405185,2098,2877,e
1789463721.407555,2038,2873,e
1789463721.409455,2041,2874,e
1789463721.410898,2098,2877,e
1789463721.41258,2140,2876,e
1789463721.413878,2150,2875,e
1789463721.416074,2103,2876,e
1789463721.418192,2028,2873,e
1789463721.420498,2091,2873,e
1789463721.421879,2125,2876,e
1789463721.4242449,2263,2877,e
1789463721.426538,2190,2875,e
1789463721.428837,2074,2875,e
1789463721.429887,1972,2873,e
1789463721.432346,2009,2874,e
1789463721.43464,2046,2875,e
1789463721.436945,2188,2877,e
1789463721.4379919,1996,2874,e
1789463721.44029,1989,2874,e
1789463721.4425879,2128,2876,e
1789463721.444642,2048,2876,e
1789463721.4459279,2039,2876,e
1789463721.448229,2031,2874,e
1789463721.450709,2100,2876,e
1789463721.455111,2138,2877,e
1789463721.455474,2042,2874,e
1789463721.456834,2088,2876,e
1789463721.458293,2065,2876,e
1789463721.4623208,2037,2876,e
1789463721.462511,2088,2876,e
1789463721.464353,2016,2874,e
1789463721.466922,2145,2877,e
1789463721.468242,1929,2874,e
1789463721.470793,2003,2874,e
1789463721.47472,1874,2874,e
1789463721.475393,2383,2877,e
1789463721.477024,2302,2876,e
1789463721.4791071,2099,2875,e
1789463721.481246,1993,2873,e
1789463721.482707,2187,2878,e
1789463721.484133,2113,2874,e
1789463721.486568,2268,2878,e
1789463721.488876,2191,2877,e
1789463721.490037,2053,2876,e
1789463721.4925508,2014,2875,e
1789463721.494775,1938,2872,e
1789463721.496063,1986,2874,e
1789463721.498606,2098,2876,e
1789463721.5006669,2099,2877,e
1789463721.502969,2044,2874,e
1789463721.504252,2033,2874,e
1789463721.5067918,2098,2876,e
1789463721.508076,2180,2876,e
1789463721.5103822,2055,2876,e
1789463721.512718,2061,2876,e
1789463721.513758,1926,2874,e
1789463721.516268,2048,2875,e
1789463721.518708,2216,2878,e
1789463721.519996,2107,2876,e
1789463721.525194,1949,2874,e
1789463721.525292,2029,2875,e
1789463721.527201,2085,2876,e
1789463721.528599,2156,2876,e
1789463721.531216,2072,2876,e
1789463721.532779,2004,2875,e
1789463721.534631,2092,2875,e
1789463721.535757,1980,2876,e
1789463721.5378728,2043,2874,e
1789463721.5404649,2004,2874,e
1789463721.5426528,2063,2876,e
1789463721.543892,2113,2876,e
1789463721.54629,2030,2876,e
1789463721.548373,2113,2875,e
1789463721.5504372,2146,2878,e
1789463721.552528,2123,2876,e
1789463721.5538502,2036,2874,e
1789463721.5561469,2092,2876,e
1789463721.5584419,2207,2876,e
1789463721.560816,2041,2876,e
1789463721.5618901,2046,2875,e
1789463721.5641558,2045,2876,e
1789463721.566647,2099,2876,e
1789463721.567779,2110,2876,e
1789463721.569869,2007,2874,e
1789463721.572001,1944,2874,e
1789463721.574372,2145,2876,e
1789463721.578662,2164,2877,e
1789463721.579158,2027,2875,e
1789463721.580537,1848,2873,e
1789463721.583102,2090,2876,e
1789463721.586633,2234,2877,e
1789463721.586763,2134,2877,e
1789463721.588671,2062,2874,e
1789463721.589781,2167,2878,e
1789463721.592201,2137,2877,e
1789463721.594286,2071,2876,e
1789463721.596598,1882,2873,e
1789463721.5977569,2059,2874,e
1789463721.600412,2256,2878,e
1789463721.6025128,2128,2877,e
1789463721.60385,1927,2874,e
1789463721.606289,1903,2874,e
1789463721.608691,2048,2874,e
1789463721.609948,2094,2876,e
1789463721.6120782,1922,2873,e
1789463721.614149,2102,2877,e
1789463721.6163158,2283,2876,e
1789463721.6186528,2163,2878,e
1789463721.619745,2094,2876,e
1789463721.621815,2053,2874,e
1789463721.6241431,2192,2877,e
1789463721.626511,2175,2876,e
1789463721.630422,2099,2877,e
1789463721.631135,1928,2875,e
1789463721.632616,1935,2874,e
1789463721.6348548,2018,2873,e
1789463721.636103,2172,2877,e
1789463721.638987,2098,2875,e
1789463721.6410758,2057,2877,e
1789463721.642174,2093,2875,e
1789463721.644651,2096,2876,e
1789463721.645727,1970,2874,e
1789463721.648095,2089,2876,e
1789463721.65041,2103,2875,e
1789463721.6517818,2060,2875,e
1789463721.6540952,2054,2876,e
1789463721.65653,2021,2876,e
1789463721.657734,2079,2876,e
1789463721.660243,2107,2877,e
1789463721.662564,2130,2877,e
1789463721.663841,2155,2877,e
1789463721.66616,2111,2877,e
1789463721.668235,2044,2876,e
1789463721.670454,2017,2874,e
1789463721.6727612,2029,2874,e
1789463721.67403,2108,2877,e
1789463721.676341,2135,2876,e
1789463721.6788979,2117,2875,e
1789463721.680328,2024,2874,e
1789463721.6843112,1995,2874,e
1789463721.685075,2081,2877,e
1789463721.686496,2169,2877,e
1789463721.688663,1979,2874,e
1789463721.6912498,2083,2877,e
1789463721.693115,2076,2877,e
1789463721.694941,2159,2876,e
1789463721.6962602,2077,2875,e
1789463721.698602,2096,2877,e
1789463721.69974,2090,2877,e
1789463721.7020621,1984,2874,e
1789463721.704133,1955,2874,e
1789463721.706741,2004,2874,e
1789463721.707784,2158,2877,e
1789463721.7100632,2257,2877,e
1789463721.712495,2010,2877,e
1789463721.714806,2028,2873,e
1789463721.716108,2147,2877,e
1789463721.718493,2105,2874,e
1789463721.7197928,2139,2877,e
1789463721.722351,2045,2874,e
1789463721.724812,2129,2876,e
1789463721.725874,2101,2876,e
1789463721.728435,2012,2876,e
1789463721.730668,1922,2874,e
1789463721.731903,2086,2877,e
1789463721.737311,2129,2877,e
1789463721.7384589,1869,2874,e
1789463721.740264,2047,2874,e
1789463721.740555,2251,2878,e
1789463721.742168,2017,2876,e
1789463721.745312,2061,2875,e
1789463721.7471611,2151,2876,e
1789463721.7489731,2254,2876,e
1789463721.7502751,2232,2877,e
1789463721.7526982,2176,2877,e
1789463721.754003,2129,2877,e
1789463721.7563462,2012,2874,e
1789463721.758909,1973,2874,e
1789463721.76009,2054,2876,e
1789463721.762655,2098,2876,e
1789463721.763721,1879,2873,e
1789463721.7662342,1952,2873,e
1789463721.768557,2112,2877,e
1789463721.769855,2114,2877,e
1789463721.772407,2071,2876,e
1789463721.773706,2151,2876,e
1789463721.775979,2018,2874,e
1789463721.77811,2137,2877,e
1789463721.780409,2164,2875,e
1789463721.7828119,2155,2877,e
1789463721.784144,2089,2876,e
1789463721.7865422,2027,2873,e
1789463721.7888472,2109,2877,e
1789463721.790035,2150,2876,e
1789463721.794028,1985,2874,e
1789463721.794708,2129,2877,e
1789463721.796695,2079,2876,e
1789463721.798305,2024,2875,e
1789463721.799903,2012,2874,e
1789463721.8028002,2117,2878,e
1789463721.804908,2098,2876,e
1789463721.806277,2116,2875,e
1789463721.808583,2131,2876,e
1789463721.809876,1989,2874,e
1789463721.8148339,2041,2877,e
1789463721.815991,1974,2874,e
1789463721.817173,2113,2877,e
1789463721.819065,2137,2876,e
1789463721.820949,2012,2873,e
1789463721.824082,1958,2874,e
1789463721.82422,2039,2874,e
1789463721.826248,2177,2877,e
1789463721.82766,2146,2877,e
1789463721.830118,2063,2876,e
1789463721.832268,2049,2875,e
1789463721.8347561,2061,2875,e
1789463721.8360178,2040,2875,e
1789463721.838453,1990,2874,e
1789463721.8396008,2031,2874,e
1789463721.8419259,2139,2876,e
1789463721.844218,2112,2876,e
1789463721.8463192,2060,2876,e
1789463721.848585,2017,2873,e
1789463721.849992,2047,2875,e
1789463721.852243,2132,2877,e
1789463721.853654,2079,2874,e
1789463721.855963,2110,2878,e
1789463721.858526,2146,2875,e
1789463721.859613,2090,2877,e
1789463721.8621922,2041,2876,e
1789463721.864514,2004,2873,e
1789463721.865653,2039,2874,e
1789463721.8680708,2172,2876,e
1789463721.8729951,2099,2876,e
1789463721.873457,1948,2874,e
1789463721.87504,2018,2875,e
1789463721.876826,2162,2876,e
1789463721.878377,2147,2876,e
1789463721.880138,2124,2876,e
1789463721.8819149,1964,2873,e
1789463721.884477,1893,2875,e
1789463721.8856168,2079,2875,e
1789463721.887869,2132,2877,e
1789463721.892242,2252,2876,e
1789463721.892373,2110,2875,e
1789463721.894563,2106,2877,e
1789463721.896302,2101,2876,e
1789463721.898064,2117,2876,e
1789463721.9010031,2118,2875,e
1789463721.9028711,2050,2874,e
1789463721.9039202,2097,2875,e
1789463721.9062479,2072,2876,e
1789463721.9086301,2083,2874,e
1789463721.909924,2035,2875,e
1789463721.9122381,2071,2876,e
1789463721.913625,1984,2875,e
1789463721.9156978,2046,2874,e
1789463721.917769,2118,2875,e
1789463721.919828,2149,2878,e
1789463721.921939,2038,2875,e
1789463721.924504,2014,2876,e
1789463721.925796,2096,2875,e
1789463721.9283452,2086,2875,e
1789463721.929636,2065,2876,e
1789463721.932181,2108,2877,e
1789463721.934431,2137,2876,e
1789463721.935725,2108,2874,e
1789463721.938267,2082,2874,e
1789463721.940453,2060,2876,e
1789463721.941739,2084,2876,e
1789463721.946164,2080,2875,e
1789463721.9465978,2061,2876,e
1789463721.9483688,2028,2874,e
1789463721.949965,2073,2875,e
1789463721.952906,2095,2874,e
1789463721.954696,2093,2876,e
1789463721.956449,2067,2877,e
1789463721.957746,2073,2876,e
1789463721.9602938,2074,2876,e
1789463721.961605,2064,2875,e
1789463721.963918,2077,2876,e
1789463721.966044,2041,2874,e
1789463721.968343,2096,2875,e
1789463721.970659,2088,2876,e
1789463721.9717062,2066,2874,e
1789463721.974019,2068,2876,e
1789463721.976563,2088,2875,e
1789463721.977857,2088,2874,e
1789463721.9800892,2069,2876,e
1789463721.982634,2071,2876,e
1789463721.9839208,2078,2876,e
1789463721.986468,2064,2875,e
1789463721.9877582,2057,2875,e
1789463721.990301,2050,2877,e
1789463721.9926121,2067,2875,e
1789463721.993901,2076,2875,e
1789463721.996206,2091,2875,e
1789463722.001042,2066,2876,e
1789463722.0018182,2023,2875,e
1789463722.0022342,2090,2876,e
1789463722.003904,2111,2878,e
1789463722.006816,2030,2874,e
1789463722.008277,2084,2876,e
1789463722.010038,2135,2875,e
1789463722.011842,2102,2875,e
1789463722.014394,2121,2875,e
1789463722.015692,2102,2878,e
1789463722.018239,2122,2877,e
1789463722.02036,2075,2875,e
1789463722.021652,2059,2876,e
1789463722.0241961,2089,2877,e
1789463722.026438,2126,2876,e
1789463722.0287879,2086,2876,e
1789463722.030077,2038,2875,e
1789463722.0325131,2059,2877,e
1789463722.033728,2100,2877,e
1789463722.036277,2095,2875,e
1789463722.038495,2096,2876,e
1789463722.0397818,2084,2876,e
1789463722.0422468,2121,2876,e
1789463722.044318,2105,2876,e
1789463722.0456069,2079,2875,e
1789463722.047907,2062,2876,e
1789463722.050455,2074,2875,e
1789463722.0551949,2080,2875,e
1789463722.055957,2083,2876,e
1789463722.0572858,2079,2874,e
1789463722.058938,2135,2878,e
1789463722.06175,2130,2876,e
1789463722.061888,2096,2875,e
1789463722.063624,2057,2876,e
1789463722.066308,2095,2876,e
1789463722.0687318,2119,2877,e
1789463722.0700212,2115,2876,e
1789463722.0754828,2060,2876,e
1789463722.076172,2074,2877,e
1789463722.077494,2086,2876,e
1789463722.077706,2064,2875,e
1789463722.080632,2042,2876,e
1789463722.082091,2072,2876,e
1789463722.083831,2109,2877,e
1789463722.086217,2096,2875,e
1789463722.088515,2076,2875,e
1789463722.0895581,2083,2877,e
1789463722.092104,2105,2877,e
1789463722.09453,2084,2875,e
1789463722.095571,2044,2875,e
1789463722.098111,2059,2876,e
1789463722.1002162,2074,2877,e
1789463722.102268,2095,2874,e
1789463722.10356,2105,2875,e
1789463722.105676,2072,2876,e
1789463722.108216,2094,2877,e
1789463722.110527,2098,2875,e
1789463722.111569,2035,2875,e
1789463722.113875,2046,2875,e
1789463722.116242,2038,2873,e
1789463722.117532,2074,2874,e
1789463722.1195898,2066,2875,e
1789463722.1221309,2036,2875,e
1789463722.124379,2123,2876,e
1789463722.127684,2148,2876,e
1789463722.128374,2094,2875,e
1789463722.130028,2046,2874,e
1789463722.132792,2041,2873,e
1789463722.134175,2074,2875,e
1789463722.135839,2067,2874,e
1789463722.138262,2029,2875,e
1789463722.140565,2026,2873,e
1789463722.141854,2101,2877,e
1789463722.143914,2098,2876,e
1789463722.148294,2080,2875,e
1789463722.1486552,2106,2876,e
1789463722.150181,2131,2876,e
1789463722.151542,2082,2875,e
1789463722.155873,2115,2875,e
1789463722.1560068,2065,2874,e
1789463722.158624,2107,2876,e
1789463722.159921,2107,2874,e
1789463722.162246,2031,2875,e
1789463722.164547,1994,2872,e
1789463722.165597,2058,2876,e
1789463722.168139,2134,2876,e
1789463722.1701949,2091,2875,e
1789463722.171492,2040,2874,e
1789463722.1737962,2088,2877,e
1789463722.1761038,2133,2877,e
1789463722.178163,2104,2875,e
1789463722.179546,2064,2875,e
1789463722.181856,2037,2873,e
1789463722.1843991,2083,2874,e
1789463722.185686,2107,2875,e
1789463722.1882281,2051,2875,e
1789463722.189515,2043,2874,e
1789463722.1920571,2067,2876,e
1789463722.194598,2089,2875,e
1789463722.195939,2049,2874,e
1789463722.1992939,2106,2875,e
1789463722.201417,2048,2874,e
1789463722.2015948,2090,2875,e
1789463722.204493,2022,2875,e
1789463722.2071922,2018,2875,e
1789463722.209096,2074,2877,e
1789463722.2103941,2174,2876,e
1789463722.212157,2131,2875,e
1789463722.213462,2053,2875,e
1789463722.216007,2055,2876,e
1789463722.2193558,2065,2875,e
1789463722.219738,2083,2874,e
1789463722.221556,2107,2875,e
1789463722.224545,2120,2876,e
1789463722.227138,2018,2875,e
1789463722.2288718,2094,2876,e
1789463722.230111,2031,2875,e
1789463722.231472,1997,2874,e
1789463722.234024,2066,2875,e
1789463722.236573,2112,2875,e
1789463722.237615,2087,2875,e
1789463722.240156,2050,2874,e
1789463722.24149,2074,2876,e
1789463722.243799,2063,2874,e
1789463722.2458692,2084,2875,e
1789463722.2481768,2046,2876,e
1789463722.249485,2078,2876,e
1789463722.251782,2063,2875,e
1789463722.254084,2081,2875,e
1789463722.2561548,2074,2875,e
1789463722.258451,2120,2875,e
1789463722.2597382,2115,2875,e
1789463722.2618,2092,2875,e
1789463722.2639208,2083,2875,e
1789463722.266222,2071,2876,e
1789463722.2702012,2080,2874,e
1789463722.2705972,2117,2875,e
1789463722.2724512,2097,2875,e
1789463722.2742121,2037,2874,e
1789463722.275479,2114,2876,e
1789463722.27806,2072,2875,e
1789463722.279526,2055,2875,e
1789463722.2820961,2060,2875,e
1789463722.283381,2078,2874,e
1789463722.285693,2148,2878,e
1789463722.288234,2087,2875,e
1789463722.290535,2049,2875,e
1789463722.29182,2112,2875,e
1789463722.294369,2102,2874,e
1789463722.2954261,2063,2874,e
1789463722.29774,2039,2875,e
1789463722.300282,2083,2875,e
1789463722.301569,2049,2874,e
1789463722.303812,2090,2874,e
1789463722.3063529,2063,2875,e
1789463722.307638,2077,2876,e
1789463722.310179,2126,2875,e
1789463722.3114638,2091,2874,e
1789463722.3140109,2069,2875,e
1789463722.315382,2075,2876,e
1789463722.3175979,2093,2877,e
1789463722.321549,2101,2875,e
1789463722.321932,2066,2875,e
1789463722.3238451,2099,2877,e
1789463722.327928,2118,2876,e
1789463722.329552,2081,2876,e
1789463722.329791,2048,2875,e
1789463722.332393,2030,2872,e
1789463722.333683,2123,2877,e
1789463722.33598,2080,2874,e
1789463722.338542,2085,2874,e
1789463722.339831,2064,2874,e
1789463722.341957,2116,2876,e
1789463722.344563,2107,2876,e
1789463722.345848,2082,2874,e
1789463722.3483882,2069,2874,e
1789463722.349673,2057,2873,e
1789463722.352211,2031,2874,e
1789463722.3534021,2051,2875,e
1789463722.3557088,2070,2874,e
1789463722.358253,2099,2877,e
1789463722.359381,2095,2875,e
1789463722.3619242,2071,2875,e
1789463722.3644621,2063,2875,e
1789463722.365511,2104,2876,e
1789463722.368054,2097,2874,e
1789463722.3729842,2075,2875,e
1789463722.3736541,2086,2875,e
1789463722.374022,2100,2877,e
1789463722.376501,2105,2876,e
1789463722.377712,2086,2874,e
1789463722.3806322,2030,2874,e
1789463722.382478,2059,2876,e
1789463722.383768,2097,2876,e
1789463722.386312,2078,2875,e
1789463722.387597,2090,2874,e
1789463722.389888,2054,2874,e
1789463722.392101,2095,2877,e
1789463722.3944,2090,2875,e
1789463722.3956869,2041,2875,e
1789463722.397995,2050,2875,e
1789463722.399376,2080,2875,e
1789463722.401682,2088,2875,e
1789463722.403789,2084,2875,e
1789463722.406083,2073,2874,e
1789463722.408382,2071,2876,e
1789463722.409664,2086,2876,e
1789463722.411957,2068,2874,e
1789463722.4145222,2054,2875,e
1789463722.415561,2061,2876,e
1789463722.4180999,2086,2876,e
1789463722.419351,2098,2875,e
1789463722.4240808,2053,2875,e
1789463722.424744,2070,2876,e
1789463722.4262679,2074,2875,e
1789463722.427948,2119,2875,e
1789463722.4317288,2056,2875,e
1789463722.431852,2037,2876,e
1789463722.434185,2060,2874,e
1789463722.435325,2055,2875,e
1789463722.440176,2095,2876,e
1789463722.440206,2077,2878,e
1789463722.441608,2081,2875,e
1789463722.444248,2091,2876,e
1789463722.445612,2072,2874,e
1789463722.4482229,2047,2877,e
1789463722.449559,2063,2872,e
1789463722.452152,2094,2875,e
1789463722.45348,2085,2875,e
1789463722.456084,2070,2874,e
1789463722.458088,2071,2876,e
1789463722.45948,2092,2875,e
1789463722.462108,2083,2874,e
1789463722.463547,2068,2875,e
1789463722.466151,2049,2876,e
1789463722.467507,2103,2876,e
1789463722.473876,2091,2875,e
1789463722.478632,2071,2874,e
1789463722.480114,2077,2876,e
1789463722.48031,2094,2876,e
1789463722.483179,2064,2874,e
1789463722.483592,2076,2874,e
1789463722.485667,2076,2875,e
1789463722.4859798,2085,2877,e
1789463722.4860759,2072,2874,e
1789463722.4875112,2049,2875,e
1789463722.490462,2049,2874,e
1789463722.49188,2081,2877,e
1789463722.494626,2112,2876,e
1789463722.495998,2049,2875,e
1789463722.497356,2050,2875,e
1789463722.499867,2080,2876,e
1789463722.502516,2082,2874,e
1789463722.5038989,2079,2875,e
1789463722.506602,2060,2874,e
1789463722.5079958,2093,2877,e
1789463722.50944,2070,2876,e
1789463722.5120618,2141,2875,e
1789463722.513314,2071,2874,e
1789463722.515924,1983,2873,e
1789463722.517302,1991,2874,e
1789463722.519935,2039,2875,e
1789463722.52127,2082,2875,e
1789463722.5240052,2076,2877,e
1789463722.525471,2087,2876,e
1789463722.533283,2080,2875,e
1789463722.534718,2038,2875,e
1789463722.534836,2054,2875,e
1789463722.5377321,2085,2874,e
1789463722.540412,2090,2876,e
1789463722.5425081,2075,2875,e
1789463722.544381,2064,2874,e
1789463722.5449998,2102,2876,e
1789463722.5451012,2098,2875,e
1789463722.545262,2055,2873,e
1789463722.5479,2037,2876,e
1789463722.5493062,2075,2877,e
1789463722.556159,2085,2874,e
1789463722.55659,2085,2876,e
1789463722.558632,2072,2875,e
1789463722.5595431,2069,2877,e
1789463722.560417,2077,2876,e
1789463722.562619,2060,2875,e
1789463722.564395,2056,2874,e
1789463722.5665002,2063,2876,e
1789463722.5678651,2085,2873,e
1789463722.5692759,2077,2874,e
1789463722.57341,2084,2875,e
1789463722.5735,2083,2876,e
1789463722.576192,2118,2876,e
1789463722.577562,2081,2875,e
1789463722.580203,2060,2875,e
1789463722.581578,2087,2875,e
1789463722.584388,2071,2874,e
1789463722.585906,2080,2874,e
1789463722.5873432,2070,2875,e
1789463722.590431,2047,2875,e
1789463722.592185,2089,2876,e
1789463722.5936131,2071,2875,e
1789463722.59632,2081,2874,e
1789463722.597696,2035,2875,e
1789463722.600328,2082,2876,e
1789463722.6016798,2094,2874,e
1789463722.604573,2095,2873,e
1789463722.605994,2063,2875,e
1789463722.607411,2080,2875,e
1789463722.610133,2097,2875,e
1789463722.616873,2082,2874,e
1789463722.619304,2069,2875,e
1789463722.62128,2036,2873,e
1789463722.622617,2073,2875,e
1789463722.625957,2072,2875,e
1789463722.627959,2060,2875,e
1789463722.628306,2061,2874,e
1789463722.628907,2109,2876,e
1789463722.631038,2123,2874,e
1789463722.631132,2062,2875,e
1789463722.6312451,2047,2876,e
1789463722.633891,2078,2873,e
1789463722.635495,2094,2875,e
1789463722.640531,2105,2874,e
1789463722.644057,2069,2875,e
1789463722.6445088,2103,2876,e
1789463722.6464798,2099,2875,e
1789463722.647742,2069,2875,e
1789463722.648336,2059,2876,e
1789463722.650332,2080,2876,e
1789463722.6524448,2076,2875,e
1789463722.65467,2054,2876,e
1789463722.65618,2040,2875,e
1789463722.658565,2088,2877,e
1789463722.659673,2096,2875,e
1789463722.6621382,2077,2875,e
1789463722.663502,2044,2874,e
1789463722.665932,2042,2872,e
1789463722.667275,2086,2874,e
1789463722.6699278,2085,2876,e
1789463722.671322,2061,2875,e
1789463722.674742,2059,2874,e
1789463722.6767948,2095,2875,e
1789463722.678208,2081,2874,e
1789463722.679661,2052,2875,e
1789463722.682301,2066,2875,e
1789463722.683928,2070,2873,e
1789463722.6852832,2095,2875,e
1789463722.687945,2089,2875,e
1789463722.689764,2070,2874,e
1789463722.692718,2113,2875,e
1789463722.694117,2100,2875,e
1789463722.695487,2057,2875,e
1789463722.69819,2036,2875,e
1789463722.699691,2056,2873,e
1789463722.702315,2105,2878,e
1789463722.7037902,2084,2875,e
1789463722.7112849,2067,2875,e
1789463722.7134411,2088,2876,e
1789463722.715787,2100,2876,e
1789463722.716906,2083,2875,e
1789463722.7179258,2073,2874,e
1789463722.7188532,2065,2874,e
1789463722.7205591,2072,2875,e
1789463722.7208269,2094,2874,e
1789463722.725173,2061,2874,e
1789463722.7253041,2055,2874,e
1789463722.7254138,2096,2876,e
1789463722.727983,2094,2875,e
1789463722.7294872,2059,2875,e
1789463722.738028,2047,2875,e
1789463722.741597,2053,2875,e
1789463722.743095,2102,2875,e
1789463722.744968,2096,2875,e
1789463722.747097,2054,2875,e
1789463722.7477021,2086,2876,e
1789463722.748058,2091,2875,e
1789463722.750232,2070,2875,e
1789463722.750509,2058,2875,e
1789463722.750577,2078,2876,e
1789463722.7519538,2087,2875,e
1789463722.7533581,2064,2875,e
1789463722.756285,2050,2875,e
1789463722.757736,2081,2877,e
1789463722.760105,2093,2874,e
1789463722.761178,2070,2875,e
1789463722.7637372,2035,2875,e
1789463722.765153,2048,2876,e
1789463722.767306,2096,2876,e
1789463722.7696571,2098,2875,e
1789463722.7717361,2086,2875,e
1789463722.774063,2078,2877,e
1789463722.7751281,2103,2875,e
1789463722.777686,2088,2875,e
1789463722.7799108,2075,2874,e
1789463722.781207,2056,2876,e
1789463722.7837598,2083,2877,e
1789463722.785137,2068,2874,e
1789463722.787453,2087,2875,e
1789463722.7897751,2064,2874,e
1789463722.7911081,2092,2876,e
1789463722.793671,2107,2876,e
1789463722.795976,2093,2874,e
1789463722.797271,2067,2874,e
1789463722.799829,2065,2875,e
1789463722.8013031,2089,2874,e
1789463722.805516,2093,2875,e
1789463722.8060741,2057,2875,e
1789463722.808512,2077,2877,e
1789463722.810504,2123,2876,e
1789463722.8118951,2082,2874,e
1789463722.8142238,2051,2875,e
1789463722.816171,2047,2876,e
1789463722.8180249,2074,2874,e
1789463722.819127,2067,2876,e
1789463722.8216891,2044,2876,e
1789463722.826123,2056,2875,e
1789463722.826269,2108,2875,e
1789463722.8289568,2104,2875,e
1789463722.83066,2056,2875,e
1789463722.8323488,2049,2876,e
1789463722.834608,2079,2876,e
1789463722.836203,2095,2874,e
1789463722.838443,2090,2875,e
1789463722.8397539,2065,2875,e
1789463722.842367,2122,2877,e
1789463722.843675,2111,2875,e
1789463722.8459818,2098,2875,e
1789463722.847102,2050,2874,e
1789463722.849419,2047,2873,e
1789463722.851979,2090,2875,e
1789463722.853277,2094,2875,e
1789463722.855829,2063,2874,e
1789463722.858143,2054,2876,e
1789463722.859228,2066,2875,e
1789463722.8615522,2086,2874,e
1789463722.86411,2037,2874,e
1789463722.865407,2039,2874,e
1789463722.8679569,2068,2874,e
1789463722.869258,2122,2877,e
1789463722.871572,2113,2877,e
1789463722.874122,2093,2875,e
1789463722.875181,2108,2875,e
1789463722.877743,2094,2875,e
1789463722.879086,2077,2875,e
1789463722.881403,2045,2875,e
1789463722.8837051,2074,2874,e
1789463722.888843,2028,2874,e
1789463722.889279,2040,2874,e
1789463722.8894238,2047,2874,e
1789463722.8918679,2053,2875,e
1789463722.8937469,2092,2875,e
1789463722.896959,2074,2875,e
1789463722.898568,2094,2875,e
1789463722.90066,2067,2877,e
1789463722.901963,2126,2877,e
1789463722.9043012,2110,2874,e
1789463722.909552,2107,2878,e
1789463722.909982,2077,2876,e
1789463722.910808,2082,2876,e
1789463722.912042,2079,2874,e
1789463722.9137092,2061,2876,e
1789463722.9155881,2027,2874,e
1789463722.9173272,2026,2875,e
