timestamp,sensor_value,label
1772099290.6050901,656,a
1772099290.605162,724,a
1772099290.605186,0,a
1772099290.605212,575,a
1772099290.605238,683,a
1772099290.605259,43,a
1772099290.605283,455,a
1772099290.6053078,567,a
1772099290.605332,139,a
1772099290.605356,309,a
1772099290.60538,507,a
1772099290.605404,227,a
1772099290.605428,152,a
1772099290.605452,456,a
1772099290.6054761,294,a
1772099290.6054971,34,a
1772099290.605521,440,a
1772099290.605545,358,a
1772099290.605561,0,a
1772099290.6055849,376,a
1772099290.605609,450,a
1772099290.605632,102,a
1772099290.6056561,366,a
1772099290.6056802,544,a
1772099290.6057038,239,a
1772099290.605728,328,a
1772099290.605752,693,a
1772099290.6057758,419,a
1772099290.6058,271,a
1772099290.605824,850,a
1772099290.6058471,567,a
1772099290.6058712,219,a
1772099290.6058939,928,a
1772099290.605922,707,a
1772099290.605946,155,a
1772099290.60597,930,a
1772099290.605994,745,a
1772099290.606014,94,a
1772099290.606038,851,a
1772099290.6060622,759,a
1772099290.606082,38,a
1772099290.606105,750,a
1772099290.60613,736,a
1772099290.606146,0,a
1772099290.6061702,645,a
1772099290.606194,724,a
1772099290.60621,0,a
1772099290.606234,574,a
1772099290.606258,676,a
1772099290.606278,41,a
1772099290.606302,487,a
1772099290.606326,579,a
1772099290.606349,128,a
1772099290.606373,338,a
1772099290.606397,536,a
1772099290.606421,214,a
1772099290.606445,177,a
1772099290.6064692,461,a
1772099290.606493,303,a
1772099290.6065128,28,a
1772099290.6065369,433,a
1772099290.606561,360,a
1772099290.6065788,0,a
1772099290.6066601,399,a
1772099290.6079192,448,a
1772099290.6081212,69,a
1772099290.608159,344,a
1772099290.608187,545,a
1772099290.608212,242,a
1772099290.608237,348,a
1772099290.608261,690,a
1772099290.608285,400,a
1772099290.608563,276,a
1772099290.608877,854,a
1772099290.609119,566,a
1772099290.609229,242,a
1772099290.6093152,919,a
1772099290.609375,715,a
1772099290.6094239,170,a
1772099290.609471,924,a
1772099290.609517,756,a
1772099290.609557,86,a
1772099290.6096032,859,a
1772099290.6096482,757,a
1772099290.609699,48,a
1772099290.6097438,755,a
1772099290.6097898,737,a
1772099290.609824,0,a
1772099290.609874,683,a
1772099290.60992,725,a
1772099290.609953,0,a
1772099290.6099992,578,a
1772099290.61005,691,a
1772099290.610097,56,a
1772099290.610144,459,a
1772099290.610195,580,a
1772099290.610244,140,a
1772099290.610296,323,a
1772099290.6103418,540,a
1772099290.6103868,224,a
1772099290.610432,172,a
1772099290.610479,445,a
1772099290.61215,305,a
1772099290.6134589,23,a
1772099290.613589,430,a
1772099290.6136682,375,a
1772099290.6137118,0,a
1772099290.614491,370,a
1772099290.614526,455,a
1772099290.61455,83,a
1772099290.614576,372,a
1772099290.6146,570,a
1772099290.614624,240,a
1772099290.614648,315,a
1772099290.614671,717,a
1772099290.6146948,422,a
1772099290.614719,260,a
1772099290.614742,858,a
1772099290.6147652,582,a
1772099290.614789,214,a
1772099290.6148129,922,a
1772099290.614836,717,a
1772099290.61486,139,a
1772099290.6148832,921,a
1772099290.6149068,755,a
1772099290.614927,94,a
1772099290.61495,829,a
1772099290.6149728,734,a
1772099290.6149929,41,a
1772099290.615018,763,a
1772099290.615041,735,a
1772099290.615058,0,a
1772099290.615082,661,a
1772099290.615105,702,a
1772099290.615121,0,a
1772099290.615144,553,a
1772099290.615168,692,a
1772099290.615188,45,a
1772099290.615212,445,a
1772099290.615235,547,a
1772099290.6152582,151,a
1772099290.6152818,290,a
1772099290.615305,497,a
1772099290.615329,240,a
1772099290.6153522,131,a
1772099290.6153758,460,a
1772099290.615399,299,a
1772099290.615415,5,a
1772099290.615438,414,a
1772099290.6154618,362,a
1772099290.615478,0,a
1772099290.615502,392,a
1772099290.615526,452,a
1772099290.615545,98,a
1772099290.6155689,344,a
1772099290.615592,557,a
1772099290.615616,279,a
1772099290.615639,298,a
1772099290.6264791,748,a
1772099290.6345458,434,a
1772099290.6454332,260,a
1772099290.656387,868,a
1772099290.667398,622,a
1772099290.678397,190,a
1772099290.6893902,930,a
1772099290.7004108,730,a
1772099290.711411,138,a
1772099290.7256,908,a
1772099290.735633,755,a
1772099290.744309,71,a
1772099290.7552772,823,a
1772099290.766283,742,a
1772099290.777287,30,a
1772099290.7882612,735,a
1772099290.799284,742,a
1772099290.8101811,0,a
1772099290.8228889,659,a
1772099290.832273,712,a
1772099290.843434,0,a
1772099290.854252,544,a
1772099290.8652842,653,a
1772099290.876163,67,a
1772099290.887282,435,a
1772099290.898303,564,a
1772099290.910051,150,a
1772099290.920192,296,a
1772099290.931307,491,a
1772099290.943424,220,a
1772099290.953158,147,a
1772099290.964179,471,a
1772099290.975178,311,a
1772099290.9860742,0,a
1772099290.997421,419,a
1772099291.008149,370,a
1772099291.01903,9,a
1772099291.030157,398,a
1772099291.043278,448,a
1772099291.052187,100,a
1772099291.063193,342,a
1772099291.07416,577,a
1772099291.0851882,265,a
1772099291.096069,327,a
1772099291.107022,729,a
1772099291.118071,436,a
1772099291.129028,252,a
1772099291.1400268,876,a
1772099291.151123,615,a
1772099291.162036,220,a
1772099291.1730292,918,a
1772099291.184042,721,a
1772099291.195074,136,a
1772099291.2060301,918,a
1772099291.2469492,761,a
1772099291.2470531,96,a
1772099291.24712,822,a
1772099291.282717,740,a
1772099291.283621,39,a
1772099291.283704,729,a
1772099291.283757,756,a
1772099291.294163,0,a
1772099291.322377,641,a
1772099291.322485,701,a
1772099291.339262,8,a
1772099291.3393679,530,a
1772099291.348921,651,a
1772099291.3598158,72,a
1772099291.370811,435,a
1772099291.3826208,545,a
1772099291.392797,168,a
1772099291.403775,258,a
1772099291.414839,501,a
1772099291.425795,247,a
1772099291.436809,103,a
1772099291.447777,456,a
1772099291.458784,320,a
1772099291.469545,0,a
1772099291.480795,412,a
1772099291.491665,390,a
1772099291.503377,11,a
1772099291.5136561,363,a
1772099291.524648,486,a
1772099291.535674,140,a
1772099291.54668,355,a
1772099291.557633,590,a
1772099291.5686882,327,a
1772099291.57969,324,a
1772099291.590642,787,a
1772099291.6016881,494,a
1772099291.6125371,264,a
1772099291.6235461,861,a
1772099291.634573,663,a
1772099291.6455429,183,a
1772099291.6565251,942,a
1772099291.667565,767,a
1772099291.678537,120,a
1772099291.689537,881,a
1772099291.700562,734,a
1772099291.7114098,59,a
1772099291.7228491,796,a
1772099291.7335522,714,a
1772099291.744278,2,a
1772099291.75541,734,a
1772099291.766421,715,a
1772099291.777334,0,a
1772099291.78843,602,a
1772099291.7994292,670,a
1772099291.810378,44,a
1772099291.822764,500,a
1772099291.832458,583,a
1772099291.8437178,117,a
1772099291.854429,402,a
1772099291.865334,525,a
1772099291.876319,202,a
1772099291.887316,232,a
1772099291.8983328,463,a
1772099291.909319,234,a
1772099291.920176,41,a
1772099291.931309,430,a
1772099291.943702,323,a
1772099291.953179,12,a
1772099291.9643059,401,a
1772099291.9753,382,a
1772099291.986185,58,a
1772099291.997194,368,a
1772099292.008207,516,a
1772099292.019198,202,a
1772099292.030187,328,a
1772099292.041177,684,a
1772099292.052166,317,a
1772099292.0637991,270,a
1772099292.0741901,826,a
1772099292.085176,517,a
1772099292.096195,231,a
1772099292.107192,903,a
1772099292.1180701,700,a
1772099292.129073,143,a
1772099292.140063,917,a
1772099292.151069,764,a
1772099292.162056,107,a
1772099292.173055,856,a
1772099292.184032,764,a
1772099292.1949499,50,a
1772099292.206062,764,a
1772099292.217064,741,a
1772099292.227947,16,a
1772099292.239064,677,a
1772099292.249929,715,a
1772099292.260798,2,a
1772099292.2719119,568,a
1772099292.282911,692,a
1772099292.2937841,71,a
1772099292.304893,449,a
1772099292.315941,565,a
1772099292.3269382,143,a
1772099292.337924,356,a
1772099292.348942,482,a
1772099292.359941,241,a
1772099292.370928,114,a
1772099292.382792,438,a
1772099292.392833,290,a
1772099292.403815,11,a
1772099292.414784,413,a
1772099292.42583,362,a
1772099292.436685,4,a
1772099292.44782,391,a
1772099292.458818,465,a
1772099292.469676,81,a
1772099292.4808168,354,a
1772099292.491819,584,a
1772099292.503795,261,a
1772099292.513813,317,a
1772099292.5246751,723,a
1772099292.535664,435,a
1772099292.5466938,239,a
1772099292.557685,895,a
1772099292.568695,617,a
1772099292.579694,186,a
1772099292.590681,937,a
1772099292.601696,727,a
1772099292.612694,111,a
1772099292.623699,924,a
1772099292.6347132,744,a
1772099292.645565,56,a
1772099292.656551,812,a
1772099292.6675782,738,a
1772099292.678571,37,a
1772099292.689539,719,a
1772099292.7005801,730,a
1772099292.711446,0,a
1772099292.722854,619,a
1772099292.73357,697,a
1772099292.74442,10,a
1772099292.75558,513,a
1772099292.766549,644,a
1772099292.777442,90,a
1772099292.788416,398,a
1772099292.799432,531,a
1772099292.810456,167,a
1772099292.822892,242,a
1772099292.832417,462,a
1772099292.8438652,275,a
1772099292.854316,87,a
1772099292.865417,448,a
1772099292.876441,322,a
1772099292.8872058,0,a
1772099292.898446,401,a
1772099292.90946,392,a
1772099292.920324,26,a
1772099292.9313421,371,a
1772099292.944022,516,a
1772099292.9533,165,a
1772099292.964312,328,a
1772099292.9752982,648,a
1772099292.986281,327,a
1772099292.997301,294,a
1772099293.0082939,794,a
1772099293.019289,535,a
1772099293.0303261,229,a
1772099293.041312,880,a
1772099293.0521998,674,a
1772099293.0637782,157,a
1772099293.074167,958,a
1772099293.0851772,747,a
1772099293.0962062,113,a
1772099293.107169,874,a
1772099293.118203,759,a
1772099293.129079,42,a
1772099293.140217,779,a
1772099293.15117,727,a
1772099293.16368,20,a
1772099293.173203,693,a
1772099293.1841788,722,a
1772099293.194929,0,a
1772099293.206057,595,a
1772099293.217066,703,a
1772099293.227936,23,a
1772099293.239041,495,a
1772099293.2500448,589,a
1772099293.261045,119,a
1772099293.272047,359,a
1772099293.284309,538,a
1772099293.294049,182,a
1772099293.3050508,194,a
1772099293.316045,459,a
1772099293.3270478,284,a
1772099293.3379269,49,a
1772099293.348952,437,a
1772099293.359942,351,a
1772099293.3707929,0,a
1772099293.381938,388,a
1772099293.392931,431,a
1772099293.404242,62,a
1772099293.4149199,356,a
1772099293.425931,537,a
1772099293.4369211,241,a
1772099293.447943,318,a
1772099293.458921,684,a
1772099293.469939,398,a
1772099293.4809222,270,a
1772099293.491953,843,a
1772099293.5044968,564,a
1772099293.5138078,229,a
1772099293.524825,917,a
1772099293.5358238,702,a
1772099293.546819,151,a
1772099293.557792,927,a
1772099293.568798,748,a
1772099293.5796962,95,a
1772099293.590816,847,a
1772099293.6018062,758,a
1772099293.612685,34,a
1772099293.623839,747,a
1772099293.6348312,733,a
1772099293.6455529,0,a
1772099293.6567092,669,a
1772099293.667714,725,a
1772099293.6786041,2,a
1772099293.6897001,562,a
1772099293.700704,669,a
1772099293.711586,55,a
1772099293.723166,447,a
1772099293.733706,559,a
1772099293.744677,144,a
1772099293.755699,293,a
1772099293.766668,489,a
1772099293.777589,235,a
1772099293.788576,141,a
1772099293.7996001,462,a
1772099293.810581,295,a
1772099293.8229718,0,a
1772099293.832581,420,a
1772099293.844076,350,a
1772099293.8543239,5,a
1772099293.865556,381,a
1772099293.87658,493,a
1772099293.887448,59,a
1772099293.8985431,334,a
1772099293.9094322,616,a
1772099293.920461,236,a
1772099293.931463,269,a
1772099293.9440682,746,a
1772099293.9534562,436,a
1772099293.9644601,198,a
1772099293.975456,858,a
1772099293.98647,625,a
1772099293.997492,179,a
1772099294.008458,883,a
1772099294.019457,724,a
1772099294.030443,109,a
1772099294.041457,900,a
1772099294.052337,765,a
1772099294.064075,84,a
1772099294.0742981,788,a
1772099294.085346,732,a
1772099294.096174,22,a
1772099294.107328,720,a
1772099294.118378,709,a
1772099294.1290722,0,a
1772099294.140335,603,a
1772099294.151335,673,a
1772099294.1620831,5,a
1772099294.173315,531,a
1772099294.184233,606,a
1772099294.195185,120,a
1772099294.206183,388,a
1772099294.2171772,526,a
1772099294.228205,182,a
1772099294.2392,265,a
1772099294.250201,460,a
1772099294.26118,294,a
1772099294.272081,81,a
1772099294.2841878,461,a
1772099294.294215,300,a
1772099294.30492,2,a
1772099294.316202,398,a
1772099294.327061,399,a
1772099294.338073,38,a
1772099294.349097,375,a
1772099294.360094,535,a
1772099294.3710542,196,a
1772099294.3820438,313,a
1772099294.3930829,658,a
1772099294.4042492,347,a
1772099294.415046,280,a
1772099294.42605,802,a
1772099294.4370701,528,a
1772099294.4480839,232,a
1772099294.458925,892,a
1772099294.469974,671,a
1772099294.480984,166,a
1772099294.491928,932,a
1772099294.5042439,756,a
1772099294.513951,108,a
1772099294.524959,860,a
1772099294.535969,753,a
1772099294.546844,39,a
1772099294.557975,792,a
1772099294.5689569,742,a
1772099294.57978,2,a
1772099294.590851,699,a
1772099294.601839,749,a
1772099294.612681,0,a
1772099294.62384,589,a
1772099294.6348102,685,a
1772099294.645718,38,a
1772099294.656826,461,a
1772099294.6678,560,a
1772099294.6788568,138,a
1772099294.6898298,343,a
1772099294.700811,512,a
1772099294.711839,219,a
1772099294.723108,176,a
1772099294.73373,448,a
1772099294.744713,298,a
1772099294.7557068,45,a
1772099294.7667131,394,a
1772099294.777712,347,a
1772099294.788586,0,a
1772099294.799744,388,a
1772099294.810714,443,a
1772099294.8231978,81,a
1772099294.832714,371,a
1772099294.8438358,570,a
1772099294.8546681,234,a
1772099294.8657138,311,a
1772099294.876595,693,a
1772099294.8915358,417,a
1772099294.8985732,271,a
1772099294.9096,873,a
1772099294.920602,576,a
1772099294.931592,211,a
1772099294.943813,905,a
1772099294.953589,710,a
1772099294.964602,145,a
1772099294.975565,938,a
1772099294.986592,754,a
1772099294.99746,91,a
1772099295.008466,832,a
1772099295.0194712,740,a
1772099295.030487,29,a
1772099295.041433,737,a
1772099295.0524611,718,a
1772099295.0641751,0,a
1772099295.074461,629,a
1772099295.085463,722,a
1772099295.096231,5,a
1772099295.10747,520,a
1772099295.1184409,655,a
1772099295.129345,87,a
1772099295.140358,431,a
1772099295.1513531,567,a
1772099295.163999,160,a
1772099295.173335,267,a
1772099295.184316,481,a
1772099295.195339,262,a
1772099295.2063391,119,a
1772099295.217341,432,a
1772099295.2283578,312,a
1772099295.239125,0,a
1772099295.250344,422,a
1772099295.261342,391,a
1772099295.272213,12,a
1772099295.284137,377,a
1772099295.2942238,487,a
1772099295.3052218,163,a
1772099295.3162172,349,a
1772099295.32722,618,a
1772099295.338222,323,a
1772099295.3491998,299,a
1772099295.3602262,792,a
1772099295.371218,479,a
1772099295.384011,250,a
1772099295.3932118,886,a
1772099295.404209,650,a
1772099295.415102,176,a
1772099295.426091,953,a
1772099295.437098,732,a
1772099295.448098,120,a
1772099295.459115,875,a
1772099295.4701,769,a
1772099295.480972,68,a
1772099295.492094,792,a
1772099295.504016,753,a
1772099295.513963,13,a
1772099295.5250509,704,a
1772099295.536096,725,a
1772099295.546853,0,a
1772099295.557927,602,a
1772099295.5689752,717,a
1772099295.579984,20,a
1772099295.590959,487,a
1772099295.601968,599,a
1772099295.6129699,119,a
1772099295.6239302,376,a
1772099295.634945,532,a
1772099295.645945,197,a
1772099295.656947,191,a
1772099295.667967,463,a
1772099295.67885,285,a
1772099295.689842,50,a
1772099295.70085,432,a
1772099295.7118552,345,a
1772099295.7229598,0,a
1772099295.733848,394,a
1772099295.744811,427,a
1772099295.755699,59,a
1772099295.7668421,370,a
1772099295.777848,524,a
1772099295.7888498,201,a
1772099295.799847,323,a
1772099295.810847,663,a
1772099295.823015,406,a
1772099295.832735,275,a
1772099295.844161,857,a
1772099295.85471,539,a
1772099295.865706,237,a
1772099295.8767009,907,a
1772099295.887723,686,a
1772099295.8987231,155,a
1772099295.909722,941,a
1772099295.920713,753,a
1772099295.931596,92,a
1772099295.943702,839,a
1772099295.95372,741,a
1772099295.964598,49,a
1772099295.975687,754,a
1772099295.986696,734,a
1772099295.997479,0,a
1772099296.008605,668,a
1772099296.019588,711,a
1772099296.0304692,0,a
1772099296.041596,579,a
1772099296.052607,670,a
1772099296.064074,46,a
1772099296.0745542,440,a
1772099296.08558,580,a
1772099296.096652,128,a
1772099296.107598,336,a
1772099296.118602,509,a
1772099296.129631,169,a
1772099296.140595,201,a
1772099296.151562,409,a
1772099296.1640792,261,a
1772099296.173481,31,a
1772099296.184447,420,a
1772099296.195482,346,a
1772099296.206353,6,a
1772099296.217482,410,a
1772099296.228449,467,a
1772099296.239348,38,a
1772099296.2504792,367,a
1772099296.261475,551,a
1772099296.272471,193,a
1772099296.283448,359,a
1772099296.294476,692,a
1772099296.305438,382,a
1772099296.3164742,258,a
1772099296.3274722,818,a
1772099296.338481,585,a
1772099296.34935,228,a
1772099296.3603442,898,a
1772099296.371341,707,a
1772099296.383081,166,a
1772099296.393358,934,a
1772099296.404307,761,a
1772099296.415352,111,a
1772099296.426351,840,a
1772099296.4373472,745,a
1772099296.44821,27,a
1772099296.459344,709,a
1772099296.470367,768,a
1772099296.4812422,23,a
1772099296.492352,666,a
1772099296.504098,718,a
1772099296.514119,3,a
1772099296.5253482,539,a
1772099296.536226,658,a
1772099296.5472069,96,a
1772099296.5883908,469,a
1772099296.588452,554,a
1772099296.588493,124,a
1772099296.591202,290,a
1772099296.604383,479,a
1772099296.613747,228,a
1772099296.624204,182,a
1772099296.6352131,482,a
1772099296.646213,246,a
1772099296.6570911,21,a
1772099296.668222,420,a
1772099296.679214,357,a
1772099296.6899898,7,a
1772099296.70122,391,a
1772099296.7122009,438,a
1772099296.723656,74,a
1772099296.7340841,342,a
1772099296.745182,557,a
1772099296.7561128,232,a
1772099296.767127,293,a
1772099296.778074,736,a
1772099296.789087,413,a
1772099296.8000782,281,a
1772099296.81108,877,a
1772099296.823518,544,a
1772099296.833078,231,a
1772099296.844577,915,a
1772099296.8550751,727,a
1772099296.866084,151,a
1772099296.877075,938,a
1772099296.888077,765,a
1772099296.898977,69,a
1772099296.9099698,841,a
1772099296.9209468,728,a
1772099296.9319701,48,a
1772099296.943917,773,a
1772099296.953974,709,a
1772099296.964841,2,a
1772099296.9759731,668,a
1772099296.986955,711,a
1772099296.9978309,0,a
1772099297.0089579,559,a
1772099297.019952,657,a
1772099297.030845,67,a
1772099297.0419571,445,a
1772099297.0529459,574,a
1772099297.064699,139,a
1772099297.0749571,302,a
1772099297.085957,488,a
1772099297.096968,225,a
1772099297.107879,159,a
1772099297.1188428,450,a
1772099297.129836,289,a
1772099297.140825,32,a
1772099297.151859,420,a
1772099297.16472,361,a
1772099297.173703,8,a
1772099297.184835,381,a
1772099297.1958342,444,a
1772099297.206728,89,a
1772099297.2178218,341,a
1772099297.228844,567,a
1772099297.2398279,250,a
1772099297.2508428,337,a
1772099297.261832,701,a
1772099297.272833,415,a
1772099297.284657,283,a
1772099297.2947378,873,a
1772099297.305713,575,a
1772099297.316715,220,a
1772099297.327747,903,a
1772099297.338743,711,a
1772099297.349747,151,a
1772099297.3607428,936,a
1772099297.3717299,751,a
1772099297.384373,85,a
1772099297.393739,827,a
1772099297.404734,739,a
1772099297.415616,46,a
1772099297.42674,756,a
1772099297.437732,729,a
1772099297.448493,0,a
1772099297.459738,661,a
1772099297.470728,716,a
1772099297.481489,0,a
1772099297.4926112,556,a
1772099297.503973,677,a
1772099297.514615,60,a
1772099297.5256162,460,a
1772099297.536593,562,a
1772099297.547612,140,a
1772099297.5586119,295,a
1772099297.569599,491,a
1772099297.5806022,208,a
1772099297.5915892,166,a
1772099297.604255,449,a
1772099297.613606,294,a
1772099297.624452,24,a
1772099297.635613,424,a
1772099297.6466088,364,a
1772099297.657366,0,a
1772099297.668617,397,a
1772099297.679492,450,a
1772099297.6905081,106,a
1772099297.701505,356,a
1772099297.712511,541,a
1772099297.723486,243,a
1772099297.734467,319,a
1772099297.74546,711,a
1772099297.756456,418,a
1772099297.7674901,259,a
1772099297.778489,859,a
1772099297.7894888,599,a
1772099297.800488,240,a
1772099297.811498,900,a
1772099297.8231459,723,a
1772099297.833489,146,a
1772099297.8444538,939,a
1772099297.855482,774,a
1772099297.866488,120,a
1772099297.8773708,825,a
1772099297.888354,743,a
1772099297.899366,37,a
1772099297.910346,760,a
1772099297.923031,724,a
1772099297.9322398,0,a
1772099297.9441211,674,a
1772099297.954356,711,a
1772099297.965207,0,a
1772099297.9763641,573,a
1772099297.987354,667,a
1772099297.998241,53,a
1772099298.009365,456,a
1772099298.020364,573,a
1772099298.031389,126,a
1772099298.043328,336,a
1772099298.053341,512,a
1772099298.0643342,214,a
1772099298.07538,166,a
1772099298.0863528,464,a
1772099298.097364,299,a
1772099298.1082492,33,a
1772099298.1192472,407,a
1772099298.130259,363,a
1772099298.141126,0,a
1772099298.152247,391,a
1772099298.164278,438,a
1772099298.174232,71,a
1772099298.185246,358,a
1772099298.196246,557,a
1772099298.207256,222,a
1772099298.2182431,304,a
1772099298.229242,679,a
1772099298.2402308,405,a
1772099298.251242,275,a
1772099298.262242,887,a
1772099298.273241,575,a
1772099298.284248,225,a
1772099298.295242,911,a
1772099298.3062432,694,a
1772099298.3172429,122,a
1772099298.3282402,941,a
1772099298.339236,690,a
1772099298.3501189,68,a
1772099298.3612428,863,a
1772099298.372083,712,a
1772099298.384137,47,a
1772099298.394124,786,a
1772099298.405096,714,a
1772099298.41612,20,a
1772099298.4271019,691,a
1772099298.438106,728,a
1772099298.448995,0,a
1772099298.46012,607,a
1772099298.471107,675,a
1772099298.483828,24,a
1772099298.493077,475,a
1772099298.5041611,585,a
1772099298.515094,122,a
1772099298.5261161,361,a
1772099298.537112,522,a
1772099298.548105,187,a
1772099298.559124,173,a
1772099298.570122,445,a
1772099298.5811148,278,a
1772099298.592006,49,a
1772099298.604189,445,a
1772099298.61412,330,a
1772099298.624833,9,a
1772099298.63612,401,a
1772099298.6471019,403,a
1772099298.657971,33,a
1772099298.669121,393,a
1772099298.680129,515,a
1772099298.691009,179,a
1772099298.7020009,324,a
1772099298.713006,630,a
1772099298.724108,345,a
1772099298.734994,288,a
1772099298.7459998,783,a
1772099298.757042,503,a
1772099298.768002,249,a
1772099298.779,839,a
1772099298.789995,662,a
1772099298.801001,158,a
1772099298.811965,938,a
1772099298.824053,710,a
1772099298.833995,106,a
1772099298.845008,869,a
1772099298.8560052,763,a
1772099298.866878,91,a
1772099298.877999,791,a
1772099298.888993,719,a
1772099298.8997571,9,a
1772099298.910999,700,a
1772099298.921988,733,a
1772099298.932757,0,a
1772099298.9441311,624,a
1772099298.9549592,678,a
1772099298.965875,30,a
1772099298.977001,526,a
1772099298.9879858,641,a
1772099298.9988742,78,a
1772099299.009862,363,a
1772099299.020871,520,a
1772099299.031857,191,a
1772099299.044273,248,a
1772099299.0538812,450,a
1772099299.0648801,272,a
1772099299.0757701,95,a
1772099299.0868402,427,a
1772099299.097881,354,a
1772099299.108751,0,a
1772099299.119879,377,a
1772099299.130871,382,a
1772099299.141758,11,a
1772099299.1528692,385,a
1772099299.164087,476,a
1772099299.174866,167,a
1772099299.1858702,335,a
1772099299.1968799,606,a
1772099299.207875,297,a
1772099299.2188501,292,a
1772099299.229876,763,a
1772099299.240866,491,a
1772099299.25185,231,a
1772099299.264066,858,a
1772099299.2737122,637,a
1772099299.2847319,191,a
1772099299.29576,947,a
1772099299.3067892,730,a
1772099299.3177521,141,a
1772099299.328754,877,a
1772099299.339746,749,a
1772099299.350632,67,a
1772099299.3617558,787,a
1772099299.372758,733,a
1772099299.3841012,19,a
1772099299.394754,719,a
1772099299.405725,715,a
1772099299.4165099,0,a
1772099299.427753,632,a
1772099299.4387531,689,a
1772099299.4496388,12,a
1772099299.46075,527,a
1772099299.471736,635,a
1772099299.484603,94,a
1772099299.493728,402,a
1772099299.50461,521,a
1772099299.515615,164,a
1772099299.526617,254,a
1772099299.537606,472,a
1772099299.548655,239,a
1772099299.559624,98,a
1772099299.5706382,449,a
1772099299.583528,296,a
1772099299.592488,1,a
1772099299.604564,411,a
1772099299.614698,382,a
1772099299.625526,24,a
1772099299.636641,372,a
1772099299.647637,474,a
1772099299.658598,134,a
1772099299.66959,353,a
1772099299.6806028,612,a
1772099299.691641,287,a
1772099299.704493,308,a
1772099299.713635,771,a
1772099299.724624,461,a
1772099299.735604,246,a
1772099299.74661,871,a
1772099299.7576058,634,a
1772099299.768615,204,a
1772099299.779608,955,a
1772099299.790593,737,a
1772099299.801505,128,a
1772099299.8124878,914,a
1772099299.824717,756,a
1772099299.834487,63,a
1772099299.845498,808,a
1772099299.856492,745,a
1772099299.867477,18,a
1772099299.8786051,740,a
1772099299.889499,727,a
1772099299.900357,0,a
1772099299.911476,633,a
1772099299.924856,697,a
1772099299.933356,4,a
1772099299.9447129,544,a
1772099299.955505,645,a
1772099299.966399,95,a
1772099299.977479,422,a
1772099299.9884748,543,a
1772099299.999487,177,a
1772099300.010476,281,a
1772099300.0214772,489,a
1772099300.032485,249,a
1772099300.044874,121,a
1772099300.0543559,456,a
1772099300.065377,308,a
1772099300.076245,0,a
1772099300.0873642,405,a
1772099300.0983639,364,a
1772099300.1092339,8,a
1772099300.120383,373,a
1772099300.131367,491,a
1772099300.144696,131,a
1772099300.153358,330,a
1772099300.164795,607,a
1772099300.175358,303,a
1772099300.186389,310,a
1772099300.197386,767,a
1772099300.208382,467,a
1772099300.21939,265,a
1772099300.2303889,871,a
1772099300.241378,610,a
1772099300.252396,199,a
1772099300.2643409,946,a
1772099300.2744288,731,a
1772099300.28536,144,a
1772099300.296267,902,a
1772099300.3072698,763,a
1772099300.318262,81,a
1772099300.3292742,823,a
1772099300.3402681,735,a
1772099300.3512619,23,a
1772099300.362261,734,a
1772099300.373255,728,a
1772099300.384109,0,a
1772099300.395322,645,a
1772099300.406263,696,a
1772099300.41714,0,a
1772099300.428267,528,a
1772099300.4392729,652,a
1772099300.45014,98,a
1772099300.461258,427,a
1772099300.4722571,541,a
1772099300.483317,150,a
1772099300.494262,263,a
1772099300.5052521,494,a
1772099300.5162308,232,a
1772099300.527264,114,a
1772099300.5382452,460,a
1772099300.5507588,325,a
1772099300.560023,6,a
1772099300.571153,421,a
1772099300.582151,439,a
1772099300.593032,0,a
1772099300.604204,382,a
1772099300.615138,468,a
1772099300.6261399,129,a
1772099300.6371078,344,a
1772099300.648149,589,a
1772099300.6591349,266,a
1772099300.670136,304,a
1772099300.68114,747,a
1772099300.692139,443,a
1772099300.7041879,226,a
1772099300.714151,848,a
1772099300.725129,691,a
1772099300.736147,192,a
1772099300.747138,913,a
1772099300.7581189,726,a
1772099300.7690072,99,a
1772099300.780103,868,a
1772099300.791127,747,a
1772099300.802022,80,a
1772099300.81314,800,a
1772099300.8240929,709,a
1772099300.835037,33,a
1772099300.846123,747,a
1772099300.857018,707,a
1772099300.867887,1,a
1772099300.879035,650,a
1772099300.8900192,698,a
1772099300.901016,20,a
1772099300.912022,536,a
1772099300.924273,668,a
1772099300.934009,81,a
1772099300.94499,434,a
1772099300.956011,585,a
1772099300.9670532,163,a
1772099300.978017,253,a
1772099300.988982,491,a
1772099301.000016,269,a
1772099301.01102,126,a
1772099301.0220082,460,a
1772099301.033018,321,a
1772099301.0441148,7,a
1772099301.054973,421,a
1772099301.0659919,349,a
1772099301.076781,9,a
1772099301.087975,356,a
1772099301.098989,435,a
1772099301.1100118,105,a
1772099301.1209989,347,a
1772099301.1320121,569,a
1772099301.144331,274,a
1772099301.15403,289,a
1772099301.1649878,717,a
1772099301.1759841,411,a
1772099301.18702,283,a
1772099301.1980212,898,a
1772099301.2089002,596,a
1772099301.219865,166,a
1772099301.2308962,927,a
1772099301.241902,690,a
1772099301.252894,147,a
1772099301.264276,920,a
1772099301.2748532,730,a
1772099301.2858691,90,a
1772099301.2969458,850,a
1772099301.307903,753,a
1772099301.318774,50,a
1772099301.329889,728,a
1772099301.340877,749,a
1772099301.3517718,0,a
1772099301.3641658,711,a
1772099301.373881,722,a
1772099301.3848152,0,a
1772099301.395895,571,a
1772099301.406891,665,a
1772099301.4177752,33,a
1772099301.4289,448,a
1772099301.439903,534,a
1772099301.450866,144,a
1772099301.4618611,312,a
1772099301.472864,491,a
1772099301.484077,193,a
1772099301.4948978,169,a
1772099301.50587,445,a
1772099301.516889,277,a
1772099301.527772,26,a
1772099301.53889,436,a
1772099301.5497768,348,a
1772099301.560765,11,a
1772099301.571769,400,a
1772099301.584235,446,a
1772099301.5937731,55,a
1772099301.604762,360,a
1772099301.615808,554,a
1772099301.626782,208,a
1772099301.637772,309,a
1772099301.64874,720,a
1772099301.659769,410,a
1772099301.6707861,288,a
1772099301.683147,849,a
1772099301.692775,573,a
1772099301.70419,218,a
1772099301.714771,903,a
1772099301.7257469,684,a
1772099301.736831,163,a
1772099301.747772,911,a
1772099301.7587368,763,a
1772099301.769618,74,a
1772099301.780737,834,a
1772099301.7918348,746,a
1772099301.804245,60,a
1772099301.8137789,767,a
1772099301.8247428,739,a
1772099301.835532,0,a
1772099301.846782,658,a
1772099301.857769,714,a
1772099301.8685281,0,a
1772099301.879746,558,a
1772099301.8906398,700,a
1772099301.90163,32,a
1772099301.9126341,482,a
1772099301.9244192,570,a
1772099301.9346318,118,a
1772099301.945633,338,a
1772099301.956635,522,a
1772099301.9676301,193,a
1772099301.978661,188,a
1772099301.989624,461,a
1772099302.0006452,267,a
1772099302.011508,52,a
1772099302.02453,432,a
1772099302.0336561,338,a
1772099302.044508,0,a
1772099302.055619,407,a
1772099302.066632,433,a
1772099302.077517,68,a
1772099302.0886452,365,a
1772099302.099648,555,a
1772099302.1106482,212,a
1772099302.121629,330,a
1772099302.132621,681,a
1772099302.143747,394,a
1772099302.154617,279,a
1772099302.165628,864,a
1772099302.1766331,566,a
1772099302.187624,221,a
1772099302.198626,900,a
1772099302.209503,706,a
1772099302.220511,153,a
1772099302.231532,952,a
1772099302.2446442,766,a
1772099302.253512,106,a
1772099302.264512,853,a
1772099302.2755089,731,a
1772099302.2863848,50,a
1772099302.297524,768,a
1772099302.308506,724,a
1772099302.31938,4,a
1772099302.330509,675,a
1772099302.3414981,713,a
1772099302.352376,0,a
1772099302.364815,580,a
1772099302.374489,680,a
1772099302.385372,30,a
1772099302.396514,469,a
1772099302.407507,565,a
1772099302.418495,132,a
1772099302.429504,333,a
1772099302.440491,512,a
1772099302.451508,202,a
1772099302.464758,182,a
1772099302.473515,464,a
1772099302.484787,275,a
1772099302.495402,44,a
1772099302.5063958,409,a
1772099302.517416,330,a
1772099302.5282838,0,a
1772099302.5394151,389,a
1772099302.550406,430,a
1772099302.561287,68,a
1772099302.5724008,354,a
1772099302.584524,538,a
1772099302.5944068,238,a
1772099302.605417,321,a
1772099302.6164072,674,a
1772099302.627412,389,a
1772099302.638388,276,a
1772099302.649395,862,a
1772099302.6605408,565,a
1772099302.671377,221,a
1772099302.684406,907,a
1772099302.693407,690,a
1772099302.7043982,160,a
1772099302.715382,931,a
1772099302.7264152,749,a
1772099302.7374148,103,a
1772099302.7482612,833,a
1772099302.7592928,737,a
1772099302.7702851,42,a
1772099302.7840178,747,a
1772099302.792253,706,a
1772099302.804299,0,a
1772099302.814283,672,a
1772099302.825262,694,a
1772099302.83616,0,a
1772099302.847282,558,a
1772099302.858282,683,a
1772099302.8691578,34,a
1772099302.8802838,466,a
1772099302.891283,577,a
1772099302.902285,130,a
1772099302.913266,337,a
1772099302.924319,514,a
1772099302.935276,202,a
1772099302.94628,174,a
1772099302.957261,461,a
1772099302.9682848,277,a
1772099302.9793541,24,a
1772099302.990266,430,a
1772099303.0012789,347,a
1772099303.012079,0,a
1772099303.024253,372,a
1772099303.0341609,447,a
1772099303.0451388,65,a
1772099303.056139,354,a
1772099303.067141,548,a
1772099303.0781581,243,a
1772099303.089142,315,a
1772099303.100192,699,a
1772099303.111137,404,a
1772099303.122138,284,a
1772099303.133131,855,a
1772099303.144139,571,a
1772099303.155127,212,a
1772099303.166162,919,a
1772099303.177141,721,a
1772099303.188135,138,a
1772099303.199161,939,a
1772099303.210154,765,a
1772099303.221028,98,a
1772099303.232136,844,a
1772099303.244298,737,a
1772099303.254019,32,a
1772099303.2651641,745,a
1772099303.275997,728,a
1772099303.286916,0,a
1772099303.298045,663,a
1772099303.3090198,717,a
1772099303.319942,0,a
1772099303.331053,553,a
1772099303.342022,669,a
1772099303.3528872,54,a
1772099303.3644009,449,a
1772099303.375038,569,a
1772099303.3860328,164,a
1772099303.397009,315,a
1772099303.408012,501,a
1772099303.419039,211,a
1772099303.43002,152,a
1772099303.441001,459,a
1772099303.452016,309,a
1772099303.464101,25,a
1772099303.474019,427,a
1772099303.485019,363,a
1772099303.49578,0,a
1772099303.507045,388,a
1772099303.517896,478,a
1772099303.528922,103,a
1772099303.53993,346,a
1772099303.55092,584,a
1772099303.5619211,279,a
1772099303.572927,316,a
1772099303.584202,727,a
1772099303.5948842,443,a
1772099303.60588,271,a
1772099303.616912,878,a
1772099303.627881,620,a
1772099303.63888,187,a
1772099303.649915,935,a
1772099303.6609159,735,a
1772099303.671909,146,a
1772099303.701204,935,a
1772099303.701302,764,a
