timestamp,sensor_value,label
1772100706.732029,3507,a
1772100706.762337,522,a
1772100706.76241,3398,a
1772100706.762441,3509,a
1772100706.762466,794,a
1772100706.7625039,2979,a
1772100706.762579,3484,a
1772100706.762621,1083,a
1772100706.762808,2396,a
1772100706.762857,3472,a
1772100706.762932,1417,a
1772100706.762971,1843,a
1772100706.7630022,3274,a
1772100706.763029,1824,a
1772100706.76309,1264,a
1772100706.768672,2794,a
1772100706.768727,2188,a
1772100706.768755,549,a
1772100706.7687821,2534,a
1772100706.7688088,2506,a
1772100706.768833,236,a
1772100706.7688599,2310,a
1772100706.7688909,2737,a
1772100706.768914,900,a
1772100706.76894,1982,a
1772100706.768966,2988,a
1772100706.768992,1331,a
1772100706.769017,1693,a
1772100706.769043,3329,a
1772100706.779318,1955,a
1772100706.77937,1547,a
1772100706.7793999,3405,a
1772100706.779427,2609,a
1772100706.7794611,1361,a
1772100706.779488,3411,a
1772100706.779516,3209,a
1772100706.779543,1145,a
1772100706.779569,3402,a
1772100706.779597,3507,a
1772100706.7796202,807,a
1772100706.779646,3401,a
1772100706.779674,3506,a
1772100706.779697,409,a
1772100706.779723,3395,a
1772100706.779757,3508,a
1772100706.779781,260,a
1772100706.779808,3398,a
1772100706.779834,3510,a
1772100706.7798579,342,a
1772100706.779885,3396,a
1772100706.779913,3508,a
1772100706.779936,682,a
1772100706.7799628,3401,a
1772100706.77999,3509,a
1772100706.780013,972,a
1772100706.780041,2889,a
1772100706.7800682,3490,a
1772100706.780094,1323,a
1772100706.780121,2305,a
1772100706.7801468,3464,a
1772100706.780173,1693,a
1772100706.7801988,1653,a
1772100706.780225,3314,a
1772100706.7802508,2097,a
1772100706.780277,1139,a
1772100706.780304,2832,a
1772100706.780329,2432,a
1772100706.780352,375,a
1772100706.7803788,2436,a
1772100706.7804039,2743,a
1772100706.780427,427,a
1772100706.7804532,2231,a
1772100706.780479,3061,a
1772100706.780502,990,a
1772100706.780528,1931,a
1772100706.780554,3254,a
1772100706.7805812,1577,a
1772100706.780608,1626,a
1772100706.7806342,3406,a
1772100706.78066,2317,a
1772100706.7806861,1512,a
1772100706.780711,3407,a
1772100706.780738,2935,a
1772100706.7807639,1228,a
1772100706.78079,3406,a
1772100706.7808158,3501,a
1772100706.7808378,973,a
1772100706.780864,3408,a
1772100706.7808902,3509,a
1772100706.7809129,686,a
1772100706.780939,3402,a
1772100706.7809641,3506,a
1772100706.780988,388,a
1772100706.781014,3395,a
1772100706.7810402,3507,a
1772100706.781064,295,a
1772100706.78109,3402,a
1772100706.781116,3506,a
1772100706.781138,450,a
1772100706.781163,3398,a
1772100706.7811892,3508,a
1772100706.7812102,778,a
1772100706.781236,3237,a
1772100706.781261,3502,a
1772100706.781287,1099,a
1772100706.781313,2711,a
1772100706.7813382,3483,a
1772100706.781364,1515,a
1772100706.781389,2077,a
1772100706.781416,3459,a
1772100706.7814422,1852,a
1772100706.781467,1399,a
1772100706.781493,3089,a
1772100706.781518,2236,a
1772100706.7815402,742,a
1772100706.781566,2776,a
1772100706.781591,2649,a
1772100706.781613,217,a
1772100706.7816389,2334,a
1772100706.781664,2917,a
1772100706.781686,709,a
1772100706.781711,2128,a
1772100706.781736,3207,a
1772100706.781761,1323,a
1772100706.7817862,1823,a
1772100706.781811,3373,a
1772100706.781836,1892,a
1772100706.781861,1570,a
1772100706.781887,3403,a
1772100706.781914,2593,a
1772100706.781939,1416,a
1772100706.781965,3409,a
1772100706.7819898,3219,a
1772100706.782016,1026,a
1772100706.782042,3406,a
1772100706.782067,3508,a
1772100706.782089,789,a
1772100706.782115,3395,a
1772100706.782141,3511,a
1772100706.782163,489,a
1772100706.782188,3399,a
1772100706.7822132,3503,a
1772100706.7822359,234,a
1772100706.782261,3396,a
1772100706.7822871,3512,a
1772100706.782309,306,a
1772100706.7823339,3396,a
1772100706.7823591,3508,a
1772100706.782381,621,a
1772100706.782409,3404,a
1772100706.782434,3505,a
1772100706.7824562,846,a
1772100706.782481,2995,a
1772100706.782507,3493,a
1772100706.7825322,1254,a
1772100706.782558,2410,a
1772100706.782583,3464,a
1772100706.782609,1619,a
1772100706.782635,1819,a
1772100706.782666,3359,a
1772100706.7826948,2033,a
1772100706.782722,1185,a
1772100706.7827468,2922,a
1772100706.782774,2532,a
1772100706.7827961,433,a
1772100706.782822,2535,a
1772100706.782848,2844,a
1772100706.78287,379,a
1772100706.782896,2240,a
1772100706.782922,3116,a
1772100706.782944,994,a
1772100706.782971,2015,a
1772100706.782998,3225,a
1772100706.7830248,1635,a
1772100706.783051,1781,a
1772100706.783079,3410,a
1772100706.7831051,2242,a
1772100706.783131,1615,a
1772100706.783156,3410,a
1772100706.783181,2926,a
1772100706.783206,1392,a
1772100706.783232,3403,a
1772100706.783257,3504,a
1772100706.783283,1038,a
1772100706.783308,3403,a
1772100706.783373,1262,a
1772100706.783398,3413,a
1772100706.783424,3505,a
1772100706.783446,928,a
1772100706.78355,3406,a
1772100706.7836401,3505,a
1772100706.783705,457,a
1772100706.7837608,3399,a
1772100706.7838132,3509,a
1772100706.7838578,252,a
1772100706.7841961,3387,a
1772100706.784321,3503,a
1772100706.784487,371,a
1772100706.784544,3397,a
1772100706.784632,3509,a
1772100706.784906,666,a
1772100706.78913,3403,a
1772100706.8319092,3510,a
1772100706.8320389,984,a
1772100706.832148,2846,a
1772100706.833184,3483,a
1772100706.8516831,1395,a
1772100706.864584,2226,a
1772100706.8661609,3460,a
1772100706.877155,1851,a
1772100706.888742,1566,a
1772100706.901988,3193,a
1772100706.917894,2392,a
1772100706.927957,807,a
1772100706.932116,2804,a
1772100706.94316,2778,a
1772100706.954139,286,a
1772100706.96517,2516,a
1772100706.976175,3030,a
1772100706.9869819,791,a
1772100706.998098,2195,a
1772100707.00928,3387,a
1772100707.020022,1519,a
1772100707.031849,2018,a
1772100707.044962,3415,a
1772100707.053004,2242,a
1772100707.0640268,1785,a
1772100707.074991,3414,a
1772100707.085975,2969,a
1772100707.096982,1526,a
1772100707.107977,3408,a
1772100707.119135,3503,a
1772100707.130002,1223,a
1772100707.144651,3409,a
1772100707.157523,3508,a
1772100707.162984,804,a
1772100707.1741052,3404,a
1772100707.184982,3513,a
1772100707.195859,494,a
1772100707.206883,3397,a
1772100707.217846,3511,a
1772100707.22892,224,a
1772100707.242941,3402,a
1772100707.25091,3502,a
1772100707.263392,363,a
1772100707.272877,3402,a
1772100707.283864,3508,a
1772100707.2947378,716,a
1772100707.305872,3397,a
1772100707.3168588,3504,a
1772100707.3278599,1131,a
1772100707.33885,2752,a
1772100707.3498502,3487,a
1772100707.363765,1547,a
1772100707.371846,1932,a
1772100707.383094,3411,a
1772100707.393758,1977,a
1772100707.404813,1301,a
1772100707.4157481,3103,a
1772100707.426742,2470,a
1772100707.437772,405,a
1772100707.448729,2665,a
1772100707.459726,2859,a
1772100707.470613,369,a
1772100707.483498,2424,a
1772100707.492725,3158,a
1772100707.503832,983,a
1772100707.514724,2132,a
1772100707.525722,3457,a
1772100707.536722,1687,a
1772100707.547722,1871,a
1772100707.55873,3414,a
1772100707.5697181,2422,a
1772100707.583613,1655,a
1772100707.591734,3407,a
1772100707.6039722,3196,a
1772100707.613618,1377,a
1772100707.6246111,3403,a
1772100707.635614,3509,a
1772100707.6466172,1004,a
1772100707.657611,3406,a
1772100707.668618,3505,a
1772100707.679599,621,a
1772100707.690623,3400,a
1772100707.703748,3501,a
1772100707.712513,370,a
1772100707.723936,3398,a
1772100707.734602,3507,a
1772100707.745489,430,a
1772100707.7566211,3398,a
1772100707.7678,3512,a
1772100707.778497,849,a
1772100707.7896729,3400,a
1772100707.804565,3506,a
1772100707.8116102,1237,a
1772100707.824631,3351,a
1772100707.833722,3500,a
1772100707.8450181,1645,a
1772100707.855655,2688,a
1772100707.866528,3482,a
1772100707.877571,2133,a
1772100707.888531,1881,a
1772100707.90462,3409,a
1772100707.910505,2617,a
1772100707.924151,1087,a
1772100707.932468,3277,a
1772100707.943928,3127,a
1772100707.954365,315,a
1772100707.965473,2778,a
1772100707.9764748,3433,a
1772100707.9873679,811,a
1772100707.9984908,2523,a
1772100708.011439,3474,a
1772100708.024055,1591,a
1772100708.031473,2289,a
1772100708.0448918,3460,a
1772100708.0535948,2224,a
1772100708.06449,1989,a
1772100708.075486,3416,a
1772100708.0863628,3136,a
1772100708.097381,1552,a
1772100708.108347,3407,a
1772100708.1193569,3508,a
1772100708.130364,1297,a
1772100708.144432,3406,a
1772100708.152384,3506,a
1772100708.164059,910,a
1772100708.17434,3409,a
1772100708.185365,3513,a
1772100708.196237,535,a
1772100708.207344,3401,a
1772100708.218365,3514,a
1772100708.229224,256,a
1772100708.2403631,3402,a
1772100708.251383,3509,a
1772100708.264093,490,a
1772100708.273362,3393,a
1772100708.284391,3507,a
1772100708.295228,831,a
1772100708.306359,3404,a
1772100708.317363,3508,a
1772100708.328369,1210,a
1772100708.339353,3345,a
1772100708.35038,3502,a
1772100708.364266,1681,a
1772100708.3722181,2660,a
1772100708.383612,3483,a
1772100708.394251,2209,a
1772100708.4052632,1847,a
1772100708.416237,3405,a
1772100708.427242,2798,a
1772100708.4382331,1053,a
1772100708.449227,3354,a
1772100708.4602282,3081,a
1772100708.471166,325,a
1772100708.483933,2843,a
1772100708.493245,3358,a
1772100708.504257,1006,a
1772100708.515254,2725,a
1772100708.5262249,3483,a
1772100708.537261,1814,a
1772100708.5482419,2128,a
1772100708.559242,3458,a
1772100708.570234,2187,a
1772100708.583358,1998,a
1772100708.592242,3414,a
1772100708.604021,2965,a
1772100708.614103,1796,a
1772100708.6251378,3408,a
1772100708.636123,3508,a
1772100708.647128,1380,a
1772100708.658122,3407,a
1772100708.6691022,3511,a
1772100708.68012,1208,a
1772100708.691103,3413,a
1772100708.70414,3511,a
1772100708.7137659,829,a
1772100708.7241018,3405,a
1772100708.7351072,3503,a
1772100708.745961,323,a
1772100708.7571242,3399,a
1772100708.768117,3508,a
1772100708.779009,380,a
1772100708.7901142,3398,a
1772100708.804183,3507,a
1772100708.811977,630,a
1772100708.823958,3405,a
1772100708.833975,3509,a
1772100708.844954,1492,a
1772100708.855965,3409,a
1772100708.8669949,3511,a
1772100708.878005,2165,a
1772100708.889001,3467,a
1772100708.903587,3511,a
1772100708.910967,2884,a
1772100708.9239948,2487,a
1772100708.932995,3477,a
1772100708.94397,3502,a
1772100708.954871,605,a
1772100708.96606,3402,a
1772100708.976989,3513,a
1772100708.987988,2592,a
1772100708.9990022,3479,a
1772100709.009957,3518,a
1772100709.024221,2944,a
1772100709.032712,3494,a
1772100709.050517,3513,a
1772100709.056445,1357,a
1772100709.067214,3400,a
1772100709.084019,3507,a
1772100709.087871,599,a
1772100709.098547,2174,a
1772100709.108978,3104,a
1772100709.119781,381,a
1772100709.130838,1300,a
1772100709.145144,1823,a
1772100709.1527271,109,a
1772100709.1648629,529,a
1772100709.174724,406,a
1772100709.1855948,0,a
1772100709.196723,138,a
1772100709.207593,0,a
1772100709.218587,0,a
1772100709.22959,0,a
1772100709.245721,0,a
1772100709.251601,0,a
1772100709.265613,0,a
1772100709.273473,0,a
1772100709.28563,0,a
1772100709.295487,0,a
1772100709.3065012,0,a
1772100709.317483,0,a
1772100709.32848,0,a
1772100709.3394802,0,a
1772100709.350469,0,a
1772100709.3654652,0,a
1772100709.37248,0,a
1772100709.384901,0,a
1772100709.394488,0,a
1772100709.405511,0,a
1772100709.41648,0,a
1772100709.4274728,0,a
1772100709.4385211,0,a
1772100709.449475,0,a
1772100709.4654112,0,a
1772100709.471466,0,a
1772100709.484755,0,a
1772100709.4936,0,a
1772100709.506069,0,a
1772100709.515382,0,a
1772100709.526666,0,a
1772100709.53738,0,a
1772100709.548363,0,a
1772100709.559341,0,a
1772100709.5703459,0,a
1772100709.585472,0,a
1772100709.592344,0,a
1772100709.605473,0,a
1772100709.6143491,0,a
1772100709.625387,0,a
1772100709.63633,0,a
1772100709.647337,0,a
1772100709.658325,0,a
1772100709.6693702,0,a
1772100709.68034,0,a
1772100709.691373,0,a
1772100709.704882,0,a
1772100709.7133372,0,a
1772100709.725125,0,a
1772100709.735334,0,a
1772100709.7463412,0,a
1772100709.757212,0,a
1772100709.7686322,0,a
1772100709.779243,0,a
1772100709.790231,0,a
1772100709.8054101,0,a
1772100709.8122501,0,a
1772100709.824964,0,a
1772100709.834209,0,a
1772100709.845292,0,a
1772100709.8562062,0,a
1772100709.867332,10,a
1772100709.878457,1418,a
1772100709.889457,1463,a
1772100709.9053388,3405,a
1772100709.911466,3197,a
1772100709.925191,3500,a
1772100709.933454,3507,a
1772100709.945003,3511,a
1772100709.955455,3130,a
1772100709.966476,3499,a
1772100709.9774542,3509,a
1772100709.989828,1947,a
1772100709.9994612,3414,a
1772100710.010466,3508,a
1772100710.025142,437,a
1772100710.032346,3398,a
1772100710.045795,3501,a
1772100710.054336,1205,a
1772100710.065335,3279,a
1772100710.0763469,3501,a
1772100710.087334,1991,a
1772100710.098335,2778,a
1772100710.109332,3486,a
1772100710.125319,3024,a
1772100710.131346,2422,a
1772100710.145775,3470,a
1772100710.153325,3509,a
1772100710.165636,2050,a
1772100710.1753411,3463,a
1772100710.186332,3505,a
1772100710.1973271,1535,a
1772100710.2083352,3410,a
1772100710.228395,3510,a
1772100710.2306728,1010,a
1772100710.2463171,3408,a
1772100710.253558,3508,a
1772100710.265176,564,a
1772100710.2745779,3401,a
1772100710.285592,3512,a
1772100710.296085,379,a
1772100710.307221,3395,a
1772100710.3182342,3505,a
1772100710.3291461,768,a
1772100710.3443189,3403,a
1772100710.351208,3508,a
1772100710.364056,1099,a
1772100710.3732421,3401,a
1772100710.384423,3500,a
1772100710.395225,1550,a
1772100710.406241,3405,a
1772100710.417239,3512,a
1772100710.4282691,2073,a
1772100710.439111,3129,a
1772100710.450113,3498,a
1772100710.464808,2610,a
1772100710.472106,2205,a
1772100710.484446,3461,a
1772100710.494126,3053,a
1772100710.50509,1195,a
1772100710.5160809,3402,a
1772100710.5272331,3509,a
1772100710.537985,341,a
1772100710.549115,3175,a
1772100710.560107,3496,a
1772100710.570991,995,a
1772100710.58405,2884,a
1772100710.593107,3486,a
1772100710.604127,1725,a
1772100710.615107,2550,a
1772100710.626081,3475,a
1772100710.637097,2542,a
1772100710.6480799,2177,a
1772100710.6590889,3464,a
1772100710.670092,3305,a
1772100710.6845472,1770,a
1772100710.692111,3409,a
1772100710.704134,3503,a
1772100710.714108,1471,a
1772100710.725085,3409,a
1772100710.7359931,3506,a
1772100710.7469912,1123,a
1772100710.757987,3411,a
1772100710.76896,3508,a
1772100710.779982,700,a
1772100710.7909892,3398,a
1772100710.80453,3504,a
1772100710.8128371,253,a
1772100710.824182,3402,a
1772100710.834969,3509,a
1772100710.845854,457,a
1772100710.85979,3394,a
1772100710.8679569,3505,a
1772100710.878876,826,a
1772100710.889986,3400,a
1772100710.904535,3509,a
1772100710.911954,1169,a
1772100710.924454,3409,a
1772100710.9339788,3503,a
1772100710.944971,1641,a
1772100710.955987,3216,a
1772100710.966986,3500,a
1772100710.977977,2303,a
1772100710.988981,2442,a
1772100710.999979,3466,a
1772100711.010963,2755,a
1772100711.024179,1627,a
1772100711.0329459,3410,a
1772100711.044002,3270,a
1772100711.054852,611,a
1772100711.065832,3298,a
1772100711.0768352,3504,a
1772100711.0878541,521,a
1772100711.098887,2969,a
1772100711.1098602,3487,a
1772100711.124105,1289,a
1772100711.1318588,2643,a
1772100711.143899,3476,a
1772100711.1538198,2084,a
1772100711.164899,2359,a
1772100711.1758552,3464,a
1772100711.186804,2920,a
1772100711.197852,1975,a
1772100711.2088552,3418,a
1772100711.219838,3502,a
1772100711.230819,1697,a
1772100711.24376,3411,a
1772100711.2528892,3507,a
1772100711.264457,1267,a
1772100711.274828,3414,a
1772100711.285824,3509,a
1772100711.296726,964,a
1772100711.307814,3401,a
1772100711.318856,3507,a
1772100711.32973,487,a
1772100711.344643,3398,a
1772100711.351806,3509,a
1772100711.364502,285,a
1772100711.373853,3398,a
1772100711.384823,3505,a
1772100711.395699,574,a
1772100711.406857,3402,a
1772100711.41785,3509,a
1772100711.428729,844,a
1772100711.439841,3401,a
1772100711.450722,3509,a
1772100711.463886,987,a
1772100711.472715,3398,a
1772100711.484489,3505,a
1772100711.49474,2147,a
1772100711.505734,3462,a
1772100711.516734,3511,a
1772100711.527731,2889,a
1772100711.53872,2381,a
1772100711.549736,3474,a
1772100711.563427,3513,a
1772100711.571721,1374,a
1772100711.583303,3403,a
1772100711.593725,3506,a
1772100711.604716,1070,a
1772100711.615724,3400,a
1772100711.626685,3510,a
1772100711.637721,3203,a
1772100711.648711,3506,a
1772100711.663439,3507,a
1772100711.670683,2717,a
1772100711.6834838,3484,a
1772100711.6927302,3514,a
1772100711.703707,1568,a
1772100711.714723,3407,a
1772100711.7256918,3506,a
1772100711.7366168,813,a
1772100711.7477708,2862,a
1772100711.758676,3482,a
1772100711.769599,454,a
1772100711.783803,1504,a
1772100711.791712,2372,a
1772100711.804383,231,a
1772100711.813566,873,a
1772100711.824563,900,a
1772100711.835453,51,a
1772100711.846733,29,a
1772100711.85731,0,a
1772100711.8683178,0,a
1772100711.879319,0,a
1772100711.890316,0,a
1772100711.904415,0,a
1772100711.912435,0,a
1772100711.92392,0,a
1772100711.934349,0,a
1772100711.945314,0,a
1772100711.956321,0,a
1772100711.967353,0,a
1772100711.978351,0,a
1772100711.989352,0,a
1772100712.00036,0,a
1772100712.011347,0,a
1772100712.023767,0,a
1772100712.033233,0,a
1772100712.0442398,0,a
1772100712.055198,0,a
1772100712.0662441,0,a
1772100712.077236,0,a
1772100712.088187,0,a
1772100712.099209,0,a
1772100712.110177,0,a
1772100712.123968,0,a
1772100712.13221,0,a
1772100712.144029,0,a
1772100712.15423,0,a
1772100712.1651998,0,a
1772100712.176234,0,a
1772100712.187236,0,a
1772100712.198226,0,a
1772100712.209237,0,a
1772100712.2240589,0,a
1772100712.2312021,0,a
1772100712.2443368,0,a
1772100712.2531872,0,a
1772100712.264197,0,a
1772100712.275208,0,a
1772100712.286177,0,a
1772100712.29722,0,a
1772100712.308195,0,a
1772100712.319223,0,a
1772100712.330104,0,a
1772100712.3434508,0,a
1772100712.352104,0,a
1772100712.364126,0,a
1772100712.374104,0,a
1772100712.385065,0,a
1772100712.3960671,0,a
1772100712.40709,0,a
1772100712.418153,0,a
1772100712.429079,0,a
1772100712.440087,0,a
1772100712.4510841,0,a
1772100712.464072,0,a
1772100712.473124,0,a
1772100712.4841,0,a
1772100712.4950972,0,a
1772100712.506115,0,a
1772100712.517833,0,a
1772100712.528086,0,a
1772100712.5390651,0,a
1772100712.550092,0,a
1772100712.564561,0,a
1772100712.572059,0,a
1772100712.584342,0,a
1772100712.594073,0,a
1772100712.605076,0,a
1772100712.616073,0,a
1772100712.6270819,4,a
1772100712.638068,0,a
1772100712.6493099,1355,a
1772100712.660314,3398,a
1772100712.671194,772,a
1772100712.684373,3403,a
1772100712.693321,3509,a
1772100712.704384,2374,a
1772100712.7152221,3471,a
1772100712.7261992,3514,a
1772100712.737229,3069,a
1772100712.7482219,2911,a
1772100712.759211,3495,a
1772100712.770189,3489,a
1772100712.784756,2586,a
1772100712.792248,3481,a
1772100712.8047118,3515,a
1772100712.8141959,2028,a
1772100712.8251882,3409,a
1772100712.8361752,3507,a
1772100712.847192,1634,a
1772100712.858188,3413,a
1772100712.869184,3505,a
1772100712.883852,969,a
1772100712.891187,3411,a
1772100712.9040031,3509,a
1772100712.913069,402,a
1772100712.924194,3397,a
1772100712.935192,3506,a
1772100712.946126,374,a
1772100712.957061,3391,a
1772100712.968073,3505,a
1772100712.979059,778,a
1772100712.990081,3397,a
1772100713.003731,3503,a
1772100713.012075,1157,a
1772100713.024297,3397,a
1772100713.034084,3506,a
1772100713.045068,1661,a
1772100713.0560482,3404,a
1772100713.0670578,3506,a
1772100713.0780642,2098,a
1772100713.089071,3251,a
1772100713.100069,3506,a
1772100713.1110752,2574,a
1772100713.124162,2323,a
1772100713.133056,3465,a
1772100713.144244,3121,a
1772100713.155054,1343,a
1772100713.1660511,3405,a
1772100713.1770592,3499,a
1772100713.1879349,394,a
1772100713.1990552,3362,a
1772100713.20994,3502,a
1772100713.224124,993,a
1772100713.231935,3042,a
1772100713.243673,3489,a
1772100713.253937,1735,a
1772100713.264937,2642,a
1772100713.275955,3483,a
1772100713.286954,2457,a
1772100713.297975,2232,a
1772100713.308971,3472,a
1772100713.3199282,3395,a
1772100713.330977,1971,a
1772100713.3445,3417,a
1772100713.352952,3507,a
1772100713.363932,1609,a
1772100713.374933,3409,a
1772100713.385964,3507,a
1772100713.3969622,1136,a
1772100713.407941,3407,a
1772100713.418964,3508,a
1772100713.4298398,649,a
1772100713.444145,3397,a
1772100713.4519649,3507,a
1772100713.463319,283,a
1772100713.473941,3389,a
1772100713.484823,3503,a
1772100713.495834,396,a
1772100713.508128,3399,a
1772100713.517833,3506,a
1772100713.528836,881,a
1772100713.543181,3400,a
1772100713.550842,3510,a
1772100713.562902,1365,a
1772100713.572829,3407,a
1772100713.58382,3511,a
1772100713.594841,1766,a
1772100713.6058,3278,a
1772100713.6168299,3507,a
1772100713.627844,2255,a
1772100713.6388328,2429,a
1772100713.649833,3476,a
1772100713.663342,2807,a
1772100713.671797,1489,a
1772100713.683674,3406,a
1772100713.6938272,3391,a
1772100713.704675,445,a
1772100713.7158341,3323,a
1772100713.7268171,3497,a
1772100713.737702,637,a
1772100713.748716,2959,a
1772100713.759723,3488,a
1772100713.770711,1443,a
1772100713.783133,2572,a
1772100713.792707,3478,a
1772100713.803663,2283,a
1772100713.8146958,2479,a
1772100713.825689,3473,a
1772100713.836681,3273,a
1772100713.847683,2050,a
1772100713.858706,3456,a
1772100713.869699,3508,a
1772100713.8836899,1712,a
1772100713.891681,3410,a
1772100713.903958,3508,a
1772100713.913718,1269,a
1772100713.9246778,3405,a
1772100713.9355588,3499,a
1772100713.9465868,812,a
1772100713.957607,3401,a
1772100713.9686341,3515,a
1772100713.979584,379,a
1772100713.9905841,3400,a
1772100714.003865,3505,a
1772100714.012466,323,a
1772100714.023596,3399,a
1772100714.034552,3501,a
1772100714.045493,782,a
1772100714.056577,3400,a
1772100714.067584,3507,a
1772100714.078581,1167,a
1772100714.089607,3402,a
1772100714.103013,3509,a
1772100714.1115808,1597,a
1772100714.123381,3367,a
1772100714.133583,3507,a
1772100714.144578,2246,a
1772100714.155576,2659,a
1772100714.166462,3478,a
1772100714.17746,2847,a
1772100714.188425,1913,a
1772100714.199497,3411,a
1772100714.210463,3193,a
1772100714.223297,430,a
1772100714.232453,3394,a
1772100714.243795,3509,a
1772100714.2543712,839,a
1772100714.265428,3400,a
1772100714.276418,3510,a
1772100714.2874198,2079,a
1772100714.298455,3461,a
1772100714.309449,3514,a
1772100714.323262,3515,a
1772100714.331458,3510,a
1772100714.343966,3509,a
1772100714.3534029,3510,a
1772100714.3644202,3510,a
1772100714.375458,3515,a
1772100714.386419,3522,a
1772100714.3974369,3515,a
1772100714.4084501,3511,a
1772100714.419334,3506,a
1772100714.4303732,3421,a
1772100714.443779,3511,a
1772100714.452333,2874,a
1772100714.468269,3489,a
1772100714.474313,3506,a
1772100714.4852018,768,a
1772100714.4962938,1932,a
1772100714.5072079,25,a
1772100714.518183,107,a
1772100714.529181,384,a
1772100714.542808,0,a
1772100714.55108,0,a
1772100714.563679,0,a
1772100714.5730429,0,a
1772100714.584054,0,a
1772100714.59508,0,a
1772100714.6060748,0,a
1772100714.616983,0,a
1772100714.6279712,0,a
1772100714.6389241,0,a
1772100714.6499891,0,a
1772100714.66364,0,a
1772100714.671953,0,a
1772100714.68297,0,a
1772100714.7095969,0,a
1772100714.709961,0,a
1772100714.715932,0,a
1772100714.727013,0,a
1772100714.737959,0,a
1772100714.7489762,0,a
1772100714.7599208,0,a
1772100714.77215,0,a
1772100714.783226,0,a
1772100714.7929358,0,a
1772100714.80393,0,a
1772100714.814919,0,a
1772100714.8259552,0,a
1772100714.836938,0,a
1772100714.8478348,0,a
1772100714.85884,0,a
1772100714.869793,0,a
1772100714.8829281,0,a
1772100714.891831,0,a
1772100714.9028668,0,a
1772100714.913823,0,a
1772100714.9247959,0,a
1772100714.935821,0,a
1772100714.946802,0,a
1772100714.9578362,0,a
1772100714.9688058,0,a
1772100714.9828858,0,a
1772100714.990792,0,a
1772100715.003562,0,a
1772100715.0128121,0,a
1772100715.023787,0,a
1772100715.034833,0,a
1772100715.0458329,0,a
1772100715.056782,0,a
1772100715.067717,0,a
1772100715.078708,0,a
1772100715.0897229,0,a
1772100715.103544,0,a
1772100715.111676,0,a
1772100715.123032,0,a
1772100715.1337101,0,a
1772100715.1446762,0,a
1772100715.155699,0,a
1772100715.166697,0,a
1772100715.177706,0,a
1772100715.1887,0,a
1772100715.202616,0,a
1772100715.2107,0,a
1772100715.223103,0,a
1772100715.232696,0,a
1772100715.243716,0,a
1772100715.254689,0,a
1772100715.265675,0,a
1772100715.276701,0,a
1772100715.2876952,0,a
1772100715.298597,0,a
1772100715.3096,0,a
1772100715.322857,0,a
1772100715.331671,35,a
1772100715.343528,3377,a
1772100715.3538282,469,a
1772100715.364813,3391,a
1772100715.3758342,3503,a
1772100715.386785,2388,a
1772100715.3978188,3251,a
1772100715.408823,3505,a
1772100715.419897,3509,a
1772100715.4307861,2378,a
1772100715.443441,3470,a
1772100715.4528158,3510,a
1772100715.463836,1531,a
1772100715.474813,3415,a
1772100715.485794,3503,a
1772100715.496795,1053,a
1772100715.507797,3406,a
1772100715.518702,3507,a
1772100715.529669,554,a
1772100715.5427608,3399,a
1772100715.551688,3506,a
1772100715.56269,477,a
1772100715.573688,3393,a
1772100715.5846589,3513,a
1772100715.595555,956,a
1772100715.606694,3401,a
1772100715.617696,3509,a
1772100715.628693,1230,a
1772100715.64269,3403,a
1772100715.650699,3505,a
1772100715.662745,1607,a
1772100715.67269,3403,a
1772100715.683667,3512,a
1772100715.694703,2263,a
1772100715.705662,3467,a
1772100715.716544,3508,a
1772100715.7275698,2767,a
1772100715.7385721,2528,a
1772100715.749541,3474,a
1772100715.763596,3255,a
1772100715.771534,1519,a
1772100715.783076,3409,a
1772100715.7935722,3506,a
1772100715.804617,448,a
1772100715.815532,3388,a
1772100715.82654,3508,a
1772100715.837417,929,a
1772100715.8485508,2985,a
1772100715.8595479,3489,a
1772100715.8705459,1770,a
1772100715.883869,2607,a
1772100715.892432,3474,a
1772100715.9045131,2566,a
1772100715.914432,2254,a
1772100715.925427,3464,a
1772100715.936445,3513,a
1772100715.947416,1976,a
1772100715.95842,3409,a
1772100715.969449,3509,a
1772100715.980439,1483,a
1772100715.991403,3402,a
1772100716.003833,3505,a
1772100716.0134451,1053,a
1772100716.024404,3408,a
1772100716.035476,3514,a
1772100716.0462878,615,a
1772100716.057413,3402,a
1772100716.068406,3509,a
1772100716.079286,279,a
1772100716.090297,3394,a
1772100716.1033359,3507,a
1772100716.112297,578,a
1772100716.123924,3397,a
1772100716.134294,3507,a
1772100716.145308,1015,a
1772100716.156288,3405,a
1772100716.167287,3508,a
1772100716.1782908,1470,a
1772100716.1892889,3407,a
1772100716.2033951,3513,a
1772100716.211284,1873,a
1772100716.2239099,3200,a
1772100716.233314,3508,a
1772100716.244286,2377,a
1772100716.255311,2351,a
1772100716.2661738,3472,a
1772100716.277171,2906,a
1772100716.288179,1418,a
1772100716.299171,3404,a
1772100716.3101702,3462,a
1772100716.323922,436,a
1772100716.332161,3323,a
1772100716.34377,3500,a
1772100716.354051,804,a
1772100716.3651688,2826,a
1772100716.3761659,3489,a
1772100716.3871622,1551,a
1772100716.3981729,2481,a
1772100716.409172,3476,a
1772100716.423786,2358,a
1772100716.431168,2275,a
1772100716.4443789,3472,a
1772100716.453155,3210,a
1772100716.46416,1959,a
1772100716.4751732,3415,a
1772100716.486059,3505,a
1772100716.497056,1570,a
1772100716.508045,3403,a
1772100716.5190442,3510,a
1772100716.530081,1143,a
1772100716.544404,3405,a
1772100716.5520508,3506,a
1772100716.5633678,754,a
1772100716.574064,3400,a
1772100716.585037,3502,a
1772100716.595915,337,a
1772100716.607056,3401,a
1772100716.618069,3507,a
1772100716.628952,391,a
1772100716.640071,3395,a
1772100716.651058,3507,a
1772100716.663061,656,a
1772100716.6730602,3403,a
1772100716.6840708,3500,a
1772100716.695065,1231,a
1772100716.706066,3405,a
1772100716.71706,3506,a
1772100716.7280629,1746,a
1772100716.739058,3409,a
1772100716.750059,3509,a
1772100716.763042,2187,a
1772100716.771938,2711,a
1772100716.7832441,3479,a
1772100716.793955,2717,a
1772100716.8049111,1881,a
1772100716.815944,3404,a
1772100716.826943,3507,a
1772100716.837941,1521,a
1772100716.84892,3408,a
1772100716.859909,3505,a
1772100716.870785,621,a
1772100716.8833568,3396,a
1772100716.8929439,3507,a
1772100716.903925,1852,a
1772100716.9148989,3415,a
1772100716.9259388,3511,a
1772100716.936906,3510,a
1772100716.947937,3517,a
1772100716.958936,3512,a
1772100716.969909,3511,a
1772100716.9828322,3515,a
1772100716.9919481,3520,a
1772100717.003598,3405,a
1772100717.013943,3510,a
1772100717.0249012,3517,a
1772100717.0358121,950,a
1772100717.046784,2651,a
1772100717.057794,2703,a
1772100717.0688052,265,a
1772100717.079801,512,a
1772100717.090548,0,a
1772100717.1035562,0,a
1772100717.11256,0,a
1772100717.123591,0,a
1772100717.13454,0,a
1772100717.145824,0,a
1772100717.156524,0,a
1772100717.167567,0,a
1772100717.178596,0,a
1772100717.1895528,0,a
1772100717.2033339,0,a
1772100717.2115269,0,a
1772100717.2229881,0,a
1772100717.233572,0,a
1772100717.24457,0,a
1772100717.255442,0,a
1772100717.266467,0,a
1772100717.277437,0,a
1772100717.288459,0,a
1772100717.299415,0,a
1772100717.310453,0,a
1772100717.322897,0,a
1772100717.332438,0,a
1772100717.343508,0,a
1772100717.354432,0,a
1772100717.365406,0,a
1772100717.376435,0,a
1772100717.387438,0,a
1772100717.398431,0,a
1772100717.409437,0,a
1772100717.422864,0,a
1772100717.431402,0,a
1772100717.4424808,0,a
1772100717.45342,0,a
1772100717.4644039,0,a
1772100717.475463,0,a
1772100717.4864378,0,a
1772100717.497406,0,a
1772100717.508414,0,a
1772100717.519281,0,a
1772100717.53029,0,a
1772100717.542615,0,a
1772100717.552313,0,a
1772100717.563424,0,a
1772100717.574316,0,a
1772100717.585315,0,a
1772100717.596323,0,a
1772100717.607327,0,a
1772100717.6182961,0,a
1772100717.6292858,0,a
1772100717.640309,0,a
1772100717.651307,0,a
1772100717.663483,0,a
1772100717.673271,0,a
1772100717.6842828,0,a
1772100717.695283,0,a
1772100717.706316,0,a
1772100717.71731,0,a
1772100717.728309,0,a
1772100717.739306,0,a
1772100717.750323,0,a
1772100717.7633972,0,a
1772100717.772195,0,a
1772100717.783162,0,a
1772100717.794185,0,a
1772100717.8051531,0,a
1772100717.8161669,0,a
1772100717.8271842,0,a
1772100717.838187,0,a
1772100717.849184,0,a
1772100717.8601751,0,a
1772100717.8711832,0,a
1772100717.883192,0,a
1772100717.8931851,0,a
1772100717.904177,0,a
1772100717.915176,0,a
1772100717.926157,0,a
1772100717.937195,0,a
1772100717.9481652,0,a
1772100717.959167,0,a
1772100717.970161,0,a
1772100717.982398,0,a
1772100717.992151,0,a
1772100718.00319,0,a
1772100718.0141802,0,a
1772100718.025145,0,a
1772100718.036059,0,a
1772100718.047055,0,a
1772100718.058431,1271,a
1772100718.0691788,68,a
1772100718.080302,2478,a
1772100718.0913348,3466,a
1772100718.1025422,946,a
1772100718.113291,1845,a
1772100718.124267,3410,a
1772100718.135293,2317,a
1772100718.146153,897,a
1772100718.157266,3399,a
1772100718.1682932,3509,a
1772100718.179144,374,a
1772100718.190298,3397,a
1772100718.203263,3506,a
1772100718.212197,912,a
1772100718.223265,3406,a
1772100718.2343009,3506,a
1772100718.24528,1223,a
1772100718.256296,3406,a
1772100718.2672782,3511,a
1772100718.278302,1709,a
1772100718.289182,3407,a
1772100718.300181,3507,a
1772100718.311151,2122,a
1772100718.322734,3458,a
1772100718.333183,3511,a
1772100718.3441541,3387,a
1772100718.3551512,3503,a
1772100718.3661718,3511,a
1772100718.3771598,3269,a
1772100718.3881412,2122,a
1772100718.399147,3461,a
1772100718.410156,3503,a
1772100718.423014,937,a
1772100718.432168,3401,a
1772100718.4434628,3503,a
1772100718.454049,387,a
1772100718.4651551,3206,a
1772100718.476189,3496,a
1772100718.4871502,1245,a
1772100718.4980428,2883,a
1772100718.509046,3485,a
1772100718.5239549,2162,a
1772100718.53124,2514,a
1772100718.544008,3469,a
1772100718.553022,3048,a
1772100718.56404,2173,a
1772100718.5750241,3474,a
1772100718.586025,3514,a
1772100718.5970309,1889,a
1772100718.6080298,3411,a
1772100718.619034,3512,a
1772100718.630026,1344,a
1772100718.643832,3408,a
1772100718.652041,3510,a
1772100718.663881,879,a
1772100718.674056,3403,a
1772100718.6850119,3509,a
1772100718.695929,462,a
1772100718.7070332,3399,a
1772100718.71803,3511,a
1772100718.728908,272,a
1772100718.74308,3392,a
1772100718.750936,3503,a
1772100718.7635992,642,a
1772100718.772896,3402,a
1772100718.7838972,3507,a
1772100718.794903,1084,a
1772100718.805932,3407,a
1772100718.8169138,3504,a
1772100718.827894,1440,a
1772100718.838929,3403,a
1772100718.849903,3506,a
1772100718.8641732,1949,a
1772100718.871895,2991,a
1772100718.883704,3487,a
1772100718.893894,2423,a
1772100718.9048991,2096,a
1772100718.915891,3462,a
1772100718.926896,2970,a
1772100718.937889,1204,a
1772100718.9488902,3402,a
1772100718.959894,3499,a
1772100718.970768,342,a
1772100718.984194,3334,a
1772100718.992903,3500,a
1772100719.004087,1000,a
1772100719.014893,2922,a
1772100719.0258958,3483,a
1772100719.036767,1671,a
1772100719.0477839,2546,a
1772100719.058789,3478,a
1772100719.06984,2491,a
1772100719.084115,2311,a
1772100719.091779,3467,a
1772100719.104078,3343,a
1772100719.113769,1959,a
1772100719.1247659,3411,a
1772100719.1357708,3508,a
1772100719.146778,1585,a
1772100719.1577768,3407,a
1772100719.168771,3506,a
1772100719.179775,1246,a
1772100719.190773,3409,a
1772100719.204263,3513,a
1772100719.212638,943,a
1772100719.2238872,3411,a
1772100719.234806,3509,a
1772100719.245652,411,a
1772100719.2567942,3401,a
1772100719.2678258,3507,a
1772100719.2786748,350,a
1772100719.28978,3400,a
1772100719.3030138,3513,a
1772100719.311724,845,a
1772100719.32319,3403,a
1772100719.3336818,3503,a
1772100719.344686,1501,a
1772100719.35569,3409,a
1772100719.366674,3508,a
1772100719.377673,2123,a
1772100719.38873,3464,a
1772100719.399668,3509,a
1772100719.410669,3513,a
1772100719.423216,3104,a
1772100719.432665,3505,a
1772100719.4437828,3508,a
1772100719.454664,1455,a
1772100719.465662,3406,a
1772100719.476668,3115,a
1772100719.4875112,460,a
1772100719.498641,1249,a
1772100719.509679,2285,a
1772100719.522989,150,a
1772100719.531285,0,a
1772100719.5428,0,a
1772100719.5532942,0,a
1772100719.564275,0,a
1772100719.575309,0,a
1772100719.586287,0,a
1772100719.597267,0,a
1772100719.60831,0,a
1772100719.61929,0,a
1772100719.630275,0,a
1772100719.6433651,0,a
1772100719.652294,0,a
1772100719.6634939,0,a
1772100719.6742961,0,a
1772100719.685298,0,a
1772100719.696308,0,a
1772100719.7072792,0,a
1772100719.718282,0,a
1772100719.729256,0,a
1772100719.7403,0,a
1772100719.751178,0,a
1772100719.763396,0,a
1772100719.773195,0,a
1772100719.7841358,0,a
1772100719.7951932,0,a
1772100719.806182,0,a
1772100719.817989,0,a
1772100719.828146,0,a
1772100719.839168,0,a
1772100719.8501492,0,a
1772100719.863015,0,a
1772100719.8721359,0,a
1772100719.8832629,0,a
1772100719.894167,0,a
1772100719.905131,0,a
1772100719.9161658,0,a
1772100719.92718,0,a
1772100719.938177,0,a
1772100719.949158,0,a
1772100719.962386,0,a
1772100719.971164,0,a
1772100719.983267,0,a
1772100719.993162,0,a
1772100720.004192,0,a
1772100720.015063,0,a
1772100720.026027,0,a
1772100720.037004,0,a
1772100720.048052,0,a
1772100720.059016,0,a
1772100720.070069,0,a
1772100720.083234,0,a
1772100720.092022,0,a
1772100720.103009,0,a
1772100720.114017,0,a
1772100720.125041,0,a
1772100720.136041,0,a
1772100720.147043,0,a
1772100720.158004,0,a
1772100720.1690528,0,a
1772100720.182554,0,a
1772100720.1910121,0,a
1772100720.20317,0,a
1772100720.2130072,0,a
1772100720.224145,0,a
1772100720.235036,0,a
1772100720.245924,0,a
1772100720.25689,0,a
1772100720.267911,0,a
1772100720.2789109,0,a
1772100720.289888,0,a
1772100720.301085,0,a
1772100720.3119192,0,a
1772100720.322888,0,a
1772100720.333911,0,a
1772100720.34488,0,a
1772100720.3559191,0,a
1772100720.366888,0,a
1772100720.377912,0,a
1772100720.388915,0,a
1772100720.399881,0,a
1772100720.4110389,626,a
1772100720.422615,87,a
1772100720.4331572,2041,a
1772100720.4441369,2793,a
1772100720.45503,820,a
1772100720.466136,3396,a
1772100720.477155,3504,a
1772100720.488034,439,a
1772100720.499039,3394,a
1772100720.510047,3504,a
1772100720.522536,990,a
1772100720.532012,3395,a
1772100720.5431669,3507,a
1772100720.5540118,1038,a
1772100720.564998,3397,a
1772100720.576045,3505,a
1772100720.58703,1913,a
1772100720.5980349,3026,a
1772100720.609045,3489,a
1772100720.622752,2936,a
1772100720.63104,2580,a
1772100720.643583,3483,a
1772100720.653002,3501,a
1772100720.664006,2072,a
1772100720.675009,3464,a
1772100720.686037,3508,a
1772100720.697031,1674,a
1772100720.708003,3406,a
1772100720.718883,3510,a
1772100720.729919,1149,a
1772100720.743388,3403,a
1772100720.751894,3503,a
1772100720.763351,541,a
1772100720.773911,3403,a
1772100720.784872,3509,a
1772100720.795755,312,a
1772100720.806893,3395,a
1772100720.817881,3516,a
1772100720.828773,651,a
1772100720.8398972,3402,a
1772100720.850904,3505,a
1772100720.904151,1098,a
1772100720.904206,3405,a
1772100720.904237,3503,a
1772100720.9042659,1577,a
1772100720.906124,3399,a
1772100720.983626,3504,a
1772100720.983696,2223,a
1772100720.9837298,3299,a
1772100720.9837608,3501,a
1772100720.983791,2719,a
1772100720.983822,2177,a
1772100720.983851,3467,a
1772100721.600374,3336,a
1772100721.605092,1242,a
1772100721.605178,3406,a
1772100721.605233,3511,a
1772100721.605279,359,a
1772100721.605331,3392,a
1772100721.605382,3502,a
1772100721.605432,1151,a
1772100721.605483,3030,a
1772100721.605533,3487,a
1772100721.606085,1957,a
1772100721.60616,2685,a
1772100721.606217,3478,a
1772100721.606426,2938,a
1772100721.606504,2387,a
1772100721.60656,3473,a
1772100721.606613,3502,a
1772100721.606666,1902,a
1772100721.606863,3406,a
1772100721.606923,3509,a
1772100721.606977,1455,a
1772100721.60703,3406,a
1772100721.607083,3508,a
1772100721.607135,1140,a
1772100721.607187,3401,a
1772100721.607239,3508,a
1772100721.7691782,539,a
1772100721.7692869,3403,a
1772100721.769349,3511,a
1772100721.769396,333,a
1772100721.769448,3396,a
1772100721.7694988,3502,a
1772100721.769544,623,a
1772100721.769595,3396,a
1772100721.7696462,3503,a
1772100721.769696,1109,a
1772100721.7731981,3406,a
1772100721.7732742,3512,a
1772100721.773319,1535,a
1772100721.773359,3400,a
1772100721.773399,3506,a
1772100721.773438,2000,a
1772100721.773477,2910,a
1772100721.773516,3485,a
1772100721.776006,2621,a
1772100721.776107,1966,a
1772100721.7761679,3411,a
1772100721.7762291,3157,a
1772100721.7762759,983,a
1772100721.815711,3399,a
1772100721.815823,3498,a
1772100721.815875,314,a
1772100721.815934,2966,a
1772100721.815986,3482,a
1772100721.8160372,1028,a
1772100721.816087,2755,a
1772100721.816137,3484,a
1772100721.8161879,1718,a
1772100721.8162382,2339,a
1772100721.816288,3471,a
1772100721.8163378,2368,a
1772100721.8163881,2011,a
1772100721.816438,3411,a
1772100721.8164952,3088,a
1772100721.816546,1700,a
1772100721.8166022,3411,a
1772100721.816651,3510,a
1772100721.816702,1305,a
1772100721.8167522,3411,a
1772100721.816801,3503,a
1772100721.816844,999,a
1772100721.8195992,3408,a
1772100721.831297,3503,a
1772100721.835457,575,a
1772100721.867917,3394,a
1772100721.86802,3506,a
1772100721.868073,256,a
1772100721.868126,3395,a
1772100721.894759,3500,a
1772100721.96914,643,a
1772100721.969255,3402,a
1772100721.969315,3504,a
1772100721.9693692,1047,a
1772100721.96942,3403,a
1772100721.971658,3502,a
1772100721.9717271,1644,a
1772100721.9717708,3400,a
1772100721.971942,3507,a
1772100721.972054,2165,a
1772100721.972236,2545,a
1772100721.985117,3476,a
1772100721.9954402,2614,a
1772100722.034991,1702,a
1772100722.0351,3407,a
1772100722.035146,2884,a
1772100722.054784,908,a
1772100722.055601,3396,a
1772100722.072629,3510,a
1772100722.072723,479,a
1772100722.085227,3046,a
1772100722.0957282,3483,a
1772100722.113329,1416,a
1772100722.116381,2680,a
1772100722.127711,3478,a
1772100722.137129,2188,a
1772100722.149705,2370,a
1772100722.159132,3469,a
1772100722.173409,3029,a
1772100722.18469,1979,a
1772100722.192201,3410,a
1772100722.2070131,3506,a
1772100722.2165089,1809,a
1772100722.2252622,3412,a
1772100722.2364879,3503,a
1772100722.247385,1289,a
1772100722.2584488,3408,a
1772100722.269699,3515,a
1772100722.285808,904,a
1772100722.293856,3400,a
1772100722.308874,3508,a
1772100722.313594,324,a
1772100722.3476212,3395,a
1772100722.347714,3509,a
1772100722.347763,395,a
1772100722.3590999,3399,a
1772100722.3690581,3505,a
1772100722.3793669,665,a
1772100722.390357,3399,a
1772100722.406927,3506,a
1772100722.413756,1077,a
1772100722.436262,3402,a
1772100722.436353,3507,a
1772100722.450748,1641,a
1772100722.4571111,3240,a
1772100722.467081,3501,a
1772100722.495133,2223,a
1772100722.4952419,2347,a
1772100722.507016,3469,a
1772100722.5108852,2525,a
1772100722.523999,1474,a
1772100722.532882,3408,a
1772100722.543991,3168,a
1772100722.55478,590,a
1772100722.565866,3265,a
1772100722.576864,3493,a
1772100722.5878148,536,a
1772100722.5988648,2932,a
1772100722.6099808,3485,a
1772100722.62448,1331,a
1772100722.631868,2597,a
1772100722.644518,3477,a
1772100722.6539369,2092,a
1772100722.6648881,2245,a
1772100722.676076,3469,a
1772100722.686982,3027,a
1772100722.697748,1935,a
1772100722.7087731,3411,a
1772100722.7197819,3508,a
1772100722.730761,1629,a
1772100722.744373,3415,a
1772100722.7527502,3506,a
1772100722.764338,1183,a
1772100722.77477,3414,a
1772100722.785758,3507,a
1772100722.796628,664,a
1772100722.807734,3404,a
1772100722.8187442,3503,a
1772100722.829628,316,a
1772100722.844913,3396,a
1772100722.851734,3509,a
1772100722.8652859,345,a
1772100722.873664,3398,a
1772100722.8846662,3503,a
1772100722.895651,781,a
1772100722.9066188,3397,a
1772100722.91764,3503,a
1772100722.9286249,1197,a
1772100722.939649,3404,a
1772100722.950631,3505,a
1772100722.961623,1687,a
1772100722.9726532,2832,a
1772100722.983957,3488,a
1772100722.994619,2261,a
1772100723.005619,1911,a
1772100723.0166159,3407,a
1772100723.027626,2787,a
1772100723.038497,967,a
1772100723.0500531,3314,a
