timestamp,ch1,ch2,label
1778661054.205502,2169,0,ɑ
1778661054.20685,2131,0,ɑ
1778661054.213842,1903,0,ɑ
1778661054.21404,1807,0,ɑ
1778661054.214197,2042,0,ɑ
1778661054.2179468,2124,0,ɑ
1778661054.218136,2127,0,ɑ
1778661054.220045,1987,0,ɑ
1778661054.222396,2171,0,ɑ
1778661054.224679,2204,0,ɑ
1778661054.2271528,1979,0,ɑ
1778661054.2274492,1781,0,ɑ
1778661054.228853,1968,0,ɑ
1778661054.231231,2090,0,ɑ
1778661054.233878,2140,0,ɑ
1778661054.235285,2047,0,ɑ
1778661054.2377868,2107,0,ɑ
1778661054.242285,2216,0,ɑ
1778661054.243586,2056,0,ɑ
1778661054.2453299,1823,0,ɑ
1778661054.2472608,1884,0,ɑ
1778661054.25102,2052,0,ɑ
1778661054.251171,2130,0,ɑ
1778661054.2514508,2148,0,ɑ
1778661054.2543738,2048,0,ɑ
1778661054.255743,2153,0,ɑ
1778661054.25709,2124,0,ɑ
1778661054.259711,1904,0,ɑ
1778661054.261014,1751,0,ɑ
1778661054.268867,1988,0,ɑ
1778661054.2697458,2088,0,ɑ
1778661054.272405,2091,0,ɑ
1778661054.275465,1978,0,ɑ
1778661054.277048,2140,0,ɑ
1778661054.278464,2150,0,ɑ
1778661054.28068,1950,0,ɑ
1778661054.280834,1741,0,ɑ
1778661054.280894,1945,0,ɑ
1778661054.280927,2068,0,ɑ
1778661054.283587,2103,0,ɑ
1778661054.285013,1997,0,ɑ
1778661054.291253,2063,0,ɑ
1778661054.2914839,2185,0,ɑ
1778661054.291759,2016,0,ɑ
1778661054.294445,1835,0,ɑ
1778661054.298056,1840,0,ɑ
1778661054.2982788,2030,0,ɑ
1778661054.3004658,2129,0,ɑ
1778661054.301855,2035,0,ɑ
1778661054.303243,2039,0,ɑ
1778661054.305965,2197,0,ɑ
1778661054.307317,2103,0,ɑ
1778661054.311214,1871,0,ɑ
1778661054.316822,1754,0,ɑ
1778661054.317017,2017,0,ɑ
1778661054.319015,2112,0,ɑ
1778661054.319478,2120,0,ɑ
1778661054.322825,2008,0,ɑ
1778661054.3231318,2161,0,ɑ
1778661054.324199,2173,0,ɑ
1778661054.3263822,1975,0,ɑ
1778661054.327768,1756,0,ɑ
1778661054.3291001,1977,0,ɑ
1778661054.334717,2075,0,ɑ
1778661054.33757,2127,0,ɑ
1778661054.337949,2018,0,ɑ
1778661054.340889,2095,0,ɑ
1778661054.341865,2254,0,ɑ
1778661054.3438468,2084,0,ɑ
1778661054.3449228,1784,0,ɑ
1778661054.3451252,1818,0,ɑ
1778661054.347418,2040,0,ɑ
1778661054.350088,2122,0,ɑ
1778661054.351439,2049,0,ɑ
1778661054.352777,2013,0,ɑ
1778661054.355444,2180,0,ɑ
1778661054.356817,2092,0,ɑ
1778661054.363371,1882,0,ɑ
1778661054.365515,1771,0,ɑ
1778661054.368055,2017,0,ɑ
1778661054.369379,2086,0,ɑ
1778661054.369955,2118,0,ɑ
1778661054.370537,1985,0,ɑ
1778661054.373472,2139,0,ɑ
1778661054.374218,2174,0,ɑ
1778661054.376429,1975,0,ɑ
1778661054.377793,1759,0,ɑ
1778661054.3791208,1967,0,ɑ
1778661054.386654,2088,0,ɑ
1778661054.388293,2143,0,ɑ
1778661054.390302,2030,0,ɑ
1778661054.391131,2141,0,ɑ
1778661054.3923001,2222,0,ɑ
1778661054.3940742,1991,0,ɑ
1778661054.395761,1839,0,ɑ
1778661054.398574,1909,0,ɑ
1778661054.398714,2069,0,ɑ
1778661054.400078,2135,0,ɑ
1778661054.4016058,2059,0,ɑ
1778661054.402978,2070,0,ɑ
1778661054.40558,2226,0,ɑ
1778661054.4068742,2137,0,ɑ
1778661054.412516,1925,0,ɑ
1778661054.4157498,1813,0,ɑ
1778661054.4180999,2066,0,ɑ
1778661054.419193,2150,0,ɑ
1778661054.419626,2157,0,ɑ
1778661054.420037,2030,0,ɑ
1778661054.4241972,2170,0,ɑ
1778661054.424784,2196,0,ɑ
1778661054.424881,1987,0,ɑ
1778661054.4274392,1782,0,ɑ
1778661054.4328,1993,0,ɑ
1778661054.4336,2104,0,ɑ
1778661054.434463,2157,0,ɑ
1778661054.4374242,2034,0,ɑ
1778661054.438307,2110,0,ɑ
1778661054.439917,2231,0,ɑ
1778661054.4413161,2090,0,ɑ
1778661054.444486,1865,0,ɑ
1778661054.445956,1854,0,ɑ
1778661054.4472692,2065,0,ɑ
1778661054.4499571,2159,0,ɑ
1778661054.451255,2091,0,ɑ
1778661054.453807,2081,0,ɑ
1778661054.459761,2206,0,ɑ
1778661054.4614851,2154,0,ɑ
1778661054.4648042,1970,0,ɑ
1778661054.4656541,1805,0,ɑ
1778661054.4682088,1995,0,ɑ
1778661054.468601,2126,0,ɑ
1778661054.470531,2132,0,ɑ
1778661054.470712,2020,0,ɑ
1778661054.472069,2160,0,ɑ
1778661054.4733582,2187,0,ɑ
1778661054.4817002,1988,0,ɑ
1778661054.483194,1768,0,ɑ
1778661054.484294,1989,0,ɑ
1778661054.485101,2109,0,ɑ
1778661054.485526,2177,0,ɑ
1778661054.486277,2072,0,ɑ
1778661054.487919,2126,0,ɑ
1778661054.489332,2240,0,ɑ
1778661054.491275,2073,0,ɑ
1778661054.493839,1858,0,ɑ
1778661054.495147,1887,0,ɑ
1778661054.4977999,2063,0,ɑ
1778661054.499125,2162,0,ɑ
1778661054.506217,2118,0,ɑ
1778661054.507384,2075,0,ɑ
1778661054.508658,2208,0,ɑ
1778661054.5088441,2138,0,ɑ
1778661054.5090392,1930,0,ɑ
1778661054.514286,1821,0,ɑ
1778661054.515872,2066,0,ɑ
1778661054.516062,2162,0,ɑ
1778661054.5182478,2135,0,ɑ
1778661054.5195572,2008,0,ɑ
1778661054.520997,2173,0,ɑ
1778661054.5319731,2207,0,ɑ
1778661054.536125,1995,0,ɑ
1778661054.537915,1788,0,ɑ
1778661054.54021,1968,0,ɑ
1778661054.540311,2100,0,ɑ
1778661054.540401,2166,0,ɑ
1778661054.5404632,2071,0,ɑ
1778661054.540528,2123,0,ɑ
1778661054.5406039,2255,0,ɑ
1778661054.540787,2095,0,ɑ
1778661054.543187,1857,0,ɑ
1778661054.545772,1923,0,ɑ
1778661054.5472052,2128,0,ɑ
1778661054.549907,2136,0,ɑ
1778661054.560364,2064,0,ɑ
1778661054.5613592,2082,0,ɑ
1778661054.566349,2265,0,ɑ
1778661054.566612,2181,0,ɑ
1778661054.5690072,1928,0,ɑ
1778661054.5691159,1794,0,ɑ
1778661054.569173,2066,0,ɑ
1778661054.5692952,2145,0,ɑ
1778661054.569404,2169,0,ɑ
1778661054.5694652,2046,0,ɑ
1778661054.570787,2211,0,ɑ
1778661054.573942,2230,0,ɑ
1778661054.579322,2005,0,ɑ
1778661054.581751,1798,0,ɑ
1778661054.582052,2006,0,ɑ
1778661054.584517,2118,0,ɑ
1778661054.585352,2162,0,ɑ
1778661054.585856,2074,0,ɑ
1778661054.5885582,2113,0,ɑ
1778661054.592318,2237,0,ɑ
1778661054.592593,2080,0,ɑ
1778661054.593926,1862,0,ɑ
1778661054.595226,1884,0,ɑ
1778661054.597941,2072,0,ɑ
1778661054.599346,2145,0,ɑ
1778661054.6019468,2123,0,ɑ
1778661054.6089249,2069,0,ɑ
1778661054.610982,2231,0,ɑ
1778661054.611148,2145,0,ɑ
1778661054.611274,1914,0,ɑ
1778661054.614143,1785,0,ɑ
1778661054.615147,2030,0,ɑ
1778661054.616113,2121,0,ɑ
1778661054.6182091,2114,0,ɑ
1778661054.620283,2024,0,ɑ
1778661054.622281,2156,0,ɑ
1778661054.623779,2190,0,ɑ
1778661054.6250749,1971,0,ɑ
1778661054.627192,1757,0,ɑ
1778661054.641663,1950,0,ɑ
1778661054.6418612,2069,0,ɑ
1778661054.642008,2134,0,ɑ
1778661054.642355,2077,0,ɑ
1778661054.6424909,2144,0,ɑ
1778661054.644898,2162,0,ɑ
1778661054.64527,2027,0,ɑ
1778661054.64534,1857,0,ɑ
1778661054.64543,1858,0,ɑ
1778661054.646898,2050,0,ɑ
1778661054.649943,2115,0,ɑ
1778661054.6553469,2079,0,ɑ
1778661054.65538,2047,0,ɑ
1778661054.6554382,2218,0,ɑ
1778661054.672398,2162,0,ɑ
1778661054.672523,1927,0,ɑ
1778661054.6725602,1781,0,ɑ
1778661054.672592,2042,0,ɑ
1778661054.67263,2115,0,ɑ
1778661054.672677,2106,0,ɑ
1778661054.6727521,1996,0,ɑ
1778661054.672887,2146,0,ɑ
1778661054.67292,2207,0,ɑ
1778661054.675482,1999,0,ɑ
1778661054.676827,1794,0,ɑ
1778661054.68121,1987,0,ɑ
1778661054.683233,2070,0,ɑ
1778661054.6846452,2125,0,ɑ
1778661054.684947,2035,0,ɑ
1778661054.688022,2095,0,ɑ
1778661054.690635,2219,0,ɑ
1778661054.6923149,2053,0,ɑ
1778661054.694653,1854,0,ɑ
1778661054.694856,1865,0,ɑ
1778661054.697458,2042,0,ɑ
1778661054.698775,2112,0,ɑ
1778661054.701343,2099,0,ɑ
1778661054.703906,2040,0,ɑ
1778661054.708904,2191,0,ɑ
1778661054.71055,2121,0,ɑ
1778661054.7117388,1904,0,ɑ
1778661054.711911,1762,0,ɑ
1778661054.7138371,2008,0,ɑ
1778661054.715745,2102,0,ɑ
1778661054.718994,2109,0,ɑ
1778661054.719143,2007,0,ɑ
1778661054.721143,2119,0,ɑ
1778661054.723719,2173,0,ɑ
1778661054.7250109,1977,0,ɑ
1778661054.730387,1754,0,ɑ
1778661054.730847,1955,0,ɑ
1778661054.730947,2147,0,ɑ
1778661054.734397,2134,0,ɑ
1778661054.736376,1983,0,ɑ
1778661054.737868,2056,0,ɑ
1778661054.739381,2221,0,ɑ
1778661054.7415302,2066,0,ɑ
1778661054.742829,1862,0,ɑ
1778661054.745402,1813,0,ɑ
1778661054.74686,1992,0,ɑ
1778661054.749268,2110,0,ɑ
1778661054.754847,2099,0,ɑ
1778661054.755594,2051,0,ɑ
1778661054.756057,2198,0,ɑ
1778661054.7591748,2140,0,ɑ
1778661054.7595289,1888,0,ɑ
1778661054.760885,1746,0,ɑ
1778661054.76476,2006,0,ɑ
1778661054.7649212,2107,0,ɑ
1778661054.767667,2124,0,ɑ
1778661054.768965,1983,0,ɑ
1778661054.7715352,2135,0,ɑ
1778661054.772827,2236,0,ɑ
1778661054.775378,1966,0,ɑ
1778661054.78057,1706,0,ɑ
1778661054.781013,1928,0,ɑ
1778661054.781933,2064,0,ɑ
1778661054.783387,2114,0,ɑ
1778661054.7849998,2019,0,ɑ
1778661054.788697,2067,0,ɑ
1778661054.7888582,2210,0,ɑ
1778661054.792502,2069,0,ɑ
1778661054.7937942,1848,0,ɑ
1778661054.795082,1845,0,ɑ
1778661054.7976372,2041,0,ɑ
1778661054.798927,2131,0,ɑ
1778661054.801474,2104,0,ɑ
1778661054.806412,2050,0,ɑ
1778661054.806525,2196,0,ɑ
1778661054.808346,2130,0,ɑ
1778661054.8102322,1916,0,ɑ
1778661054.8120651,1773,0,ɑ
1778661054.8137379,2019,0,ɑ
1778661054.815279,2118,0,ɑ
1778661054.817469,2120,0,ɑ
1778661054.818841,1994,0,ɑ
1778661054.8211699,2130,0,ɑ
1778661054.823731,2182,0,ɑ
1778661054.825023,1989,0,ɑ
1778661054.830786,1768,0,ɑ
1778661054.831282,1948,0,ɑ
1778661054.833588,2077,0,ɑ
1778661054.833688,2179,0,ɑ
1778661054.8355389,2069,0,ɑ
1778661054.837478,2044,0,ɑ
1778661054.840215,2165,0,ɑ
1778661054.8417978,2067,0,ɑ
1778661054.843094,1860,0,ɑ
1778661054.8456478,1844,0,ɑ
1778661054.846941,2051,0,ɑ
1778661054.849486,2124,0,ɑ
1778661054.850772,2069,0,ɑ
1778661054.854891,2005,0,ɑ
1778661054.855989,2198,0,ɑ
1778661054.857622,2139,0,ɑ
1778661054.8594189,1929,0,ɑ
1778661054.86127,1750,0,ɑ
1778661054.864317,2007,0,ɑ
1778661054.865864,2086,0,ɑ
1778661054.867167,2118,0,ɑ
1778661054.8697338,2005,0,ɑ
1778661054.871029,2125,0,ɑ
1778661054.873584,2184,0,ɑ
1778661054.874885,1991,0,ɑ
1778661054.879688,1761,0,ɑ
1778661054.880654,1926,0,ɑ
1778661054.881099,2085,0,ɑ
1778661054.884801,2194,0,ɑ
1778661054.88529,2002,0,ɑ
1778661054.887552,2029,0,ɑ
1778661054.8891678,2215,0,ɑ
1778661054.891304,2084,0,ɑ
1778661054.893985,1857,0,ɑ
1778661054.895318,1834,0,ɑ
1778661054.899296,2027,0,ɑ
1778661054.900554,2082,0,ɑ
1778661054.902485,2076,0,ɑ
1778661054.9043179,2051,0,ɑ
1778661054.906023,2219,0,ɑ
1778661054.907719,2139,0,ɑ
1778661054.90943,1919,0,ɑ
1778661054.9116302,1758,0,ɑ
1778661054.912852,2015,0,ɑ
1778661054.9154172,2100,0,ɑ
1778661054.916853,2134,0,ɑ
1778661054.9194639,2026,0,ɑ
1778661054.924265,2118,0,ɑ
1778661054.925071,2204,0,ɑ
1778661054.927339,2042,0,ɑ
1778661054.9276469,1841,0,ɑ
1778661054.932784,1894,0,ɑ
1778661054.93296,2026,0,ɑ
1778661054.934665,2123,0,ɑ
1778661054.934908,2056,0,ɑ
1778661054.936835,2077,0,ɑ
1778661054.939389,2222,0,ɑ
1778661054.940725,2054,0,ɑ
1778661054.94329,1850,0,ɑ
1778661054.950606,1829,0,ɑ
1778661054.950668,2054,0,ɑ
1778661054.952752,2161,0,ɑ
1778661054.954871,2125,0,ɑ
1778661054.955269,2045,0,ɑ
1778661054.956245,2185,0,ɑ
1778661054.959859,2158,0,ɑ
1778661054.960164,1953,0,ɑ
1778661054.9621198,1779,0,ɑ
1778661054.963552,2019,0,ɑ
1778661054.96486,2149,0,ɑ
1778661054.97102,2220,0,ɑ
1778661054.97182,1999,0,ɑ
1778661054.973063,2094,0,ɑ
1778661054.97322,2200,0,ɑ
1778661054.974798,2015,0,ɑ
1778661054.97849,1809,0,ɑ
1778661054.980459,1947,0,ɑ
1778661054.982095,2111,0,ɑ
1778661054.98351,2187,0,ɑ
1778661054.9848409,2009,0,ɑ
1778661054.9874299,2087,0,ɑ
1778661054.988779,2233,0,ɑ
1778661054.991341,2106,0,ɑ
1778661054.9963882,1894,0,ɑ
1778661054.9976242,1851,0,ɑ
1778661054.997737,2064,0,ɑ
1778661055.000718,2155,0,ɑ
1778661055.001169,2171,0,ɑ
1778661055.004072,2189,0,ɑ
1778661055.00591,2181,0,ɑ
1778661055.007923,2111,0,ɑ
1778661055.009221,1940,0,ɑ
1778661055.011864,1796,0,ɑ
1778661055.016107,2029,0,ɑ
1778661055.017076,2097,0,ɑ
1778661055.018728,2102,0,ɑ
1778661055.0188842,1975,0,ɑ
1778661055.022335,2156,0,ɑ
1778661055.025363,2245,0,ɑ
1778661055.025595,2047,0,ɑ
1778661055.027565,1832,0,ɑ
1778661055.0289679,1951,0,ɑ
1778661055.0315351,2081,0,ɑ
1778661055.0328379,2189,0,ɑ
1778661055.035389,2058,0,ɑ
1778661055.040391,2088,0,ɑ
1778661055.04083,2267,0,ɑ
1778661055.0429068,2202,0,ɑ
1778661055.043135,1888,0,ɑ
1778661055.048078,1783,0,ɑ
1778661055.048212,2042,0,ɑ
1778661055.0501602,2143,0,ɑ
1778661055.052136,2126,0,ɑ
1778661055.053445,2049,0,ɑ
1778661055.054734,2196,0,ɑ
1778661055.057282,2167,0,ɑ
1778661055.059828,1963,0,ɑ
1778661055.061121,1781,0,ɑ
1778661055.065485,2037,0,ɑ
1778661055.065589,2145,0,ɑ
1778661055.067831,2132,0,ɑ
1778661055.0696719,2008,0,ɑ
1778661055.071593,2137,0,ɑ
1778661055.0729432,2201,0,ɑ
1778661055.074799,2022,0,ɑ
1778661055.077971,1856,0,ɑ
1778661055.0793421,1963,0,ɑ
1778661055.081968,2024,0,ɑ
1778661055.083264,2141,0,ɑ
1778661055.0858188,2063,0,ɑ
1778661055.0899148,2088,0,ɑ
1778661055.091358,2226,0,ɑ
1778661055.092691,2090,0,ɑ
1778661055.09284,1862,0,ɑ
1778661055.0976598,1829,0,ɑ
1778661055.097773,2069,0,ɑ
1778661055.0997188,2166,0,ɑ
1778661055.10181,2103,0,ɑ
1778661055.1031091,2043,0,ɑ
1778661055.105654,2206,0,ɑ
1778661055.106954,2164,0,ɑ
1778661055.109494,1942,0,ɑ
1778661055.110784,1775,0,ɑ
1778661055.115747,2024,0,ɑ
1778661055.1162298,2108,0,ɑ
1778661055.117996,2139,0,ɑ
1778661055.11954,2017,0,ɑ
1778661055.1213372,2123,0,ɑ
1778661055.122965,2202,0,ɑ
1778661055.124861,2015,0,ɑ
1778661055.127605,1788,0,ɑ
1778661055.128901,1930,0,ɑ
1778661055.131468,2072,0,ɑ
1778661055.132759,2127,0,ɑ
1778661055.135306,2063,0,ɑ
1778661055.139812,2088,0,ɑ
1778661055.13987,2230,0,ɑ
1778661055.142089,2095,0,ɑ
1778661055.1436641,1860,0,ɑ
1778661055.1458402,1823,0,ɑ
1778661055.1492312,2028,0,ɑ
1778661055.14935,2118,0,ɑ
1778661055.151289,2092,0,ɑ
1778661055.153845,2023,0,ɑ
1778661055.1551611,2170,0,ɑ
1778661055.157742,2148,0,ɑ
1778661055.159035,1937,0,ɑ
1778661055.164624,1751,0,ɑ
1778661055.165439,1986,0,ɑ
1778661055.166176,2101,0,ɑ
1778661055.168222,2173,0,ɑ
1778661055.1703308,2004,0,ɑ
1778661055.171841,2064,0,ɑ
1778661055.173734,2163,0,ɑ
1778661055.17524,1991,0,ɑ
1778661055.177811,1781,0,ɑ
1778661055.179044,1903,0,ɑ
1778661055.18162,2056,0,ɑ
1778661055.182912,2135,0,ɑ
1778661055.188449,2037,0,ɑ
1778661055.189274,2083,0,ɑ
1778661055.189999,2212,0,ɑ
1778661055.192746,2103,0,ɑ
1778661055.192825,1873,0,ɑ
1778661055.19769,1823,0,ɑ
1778661055.1978319,2048,0,ɑ
1778661055.1999161,2129,0,ɑ
1778661055.201327,2115,0,ɑ
1778661055.203939,2020,0,ɑ
1778661055.2052321,2192,0,ɑ
1778661055.207787,2176,0,ɑ
1778661055.215075,1961,0,ɑ
1778661055.215264,1771,0,ɑ
1778661055.2153971,2010,0,ɑ
1778661055.215478,2114,0,ɑ
1778661055.21696,2144,0,ɑ
1778661055.2204642,2003,0,ɑ
1778661055.2245061,2114,0,ɑ
1778661055.2245939,2208,0,ɑ
1778661055.226223,2033,0,ɑ
1778661055.227566,1788,0,ɑ
1778661055.22893,1918,0,ɑ
1778661055.234473,2033,0,ɑ
1778661055.235848,2119,0,ɑ
1778661055.237062,2044,0,ɑ
1778661055.2371998,2068,0,ɑ
1778661055.240159,2209,0,ɑ
1778661055.24228,2112,0,ɑ
1778661055.244351,1853,0,ɑ
1778661055.2469351,1809,0,ɑ
1778661055.2470531,2042,0,ɑ
1778661055.249612,2127,0,ɑ
1778661055.250901,2101,0,ɑ
1778661055.2534451,2010,0,ɑ
1778661055.2547321,2182,0,ɑ
1778661055.259145,2235,0,ɑ
1778661055.259587,1947,0,ɑ
1778661055.2620869,1690,0,ɑ
1778661055.265791,1956,0,ɑ
1778661055.265884,2083,0,ɑ
1778661055.269291,2114,0,ɑ
1778661055.269459,1982,0,ɑ
1778661055.271633,2091,0,ɑ
1778661055.272927,2168,0,ɑ
1778661055.275485,1980,0,ɑ
1778661055.276908,1788,0,ɑ
1778661055.27971,1897,0,ɑ
1778661055.281169,2066,0,ɑ
1778661055.285664,2133,0,ɑ
1778661055.286103,2062,0,ɑ
1778661055.287822,2067,0,ɑ
1778661055.289612,2209,0,ɑ
1778661055.2909389,2099,0,ɑ
1778661055.2928278,1863,0,ɑ
1778661055.294967,1822,0,ɑ
1778661055.297035,2045,0,ɑ
1778661055.299587,2126,0,ɑ
1778661055.3008902,2123,0,ɑ
1778661055.32219,2018,0,ɑ
1778661055.3222752,2161,0,ɑ
1778661055.322307,2139,0,ɑ
1778661055.322335,1928,0,ɑ
1778661055.32236,1754,0,ɑ
1778661055.322415,1989,0,ɑ
1778661055.3224409,2078,0,ɑ
1778661055.322464,2117,0,ɑ
1778661055.322487,1999,0,ɑ
1778661055.3225129,2102,0,ɑ
1778661055.322793,2192,0,ɑ
1778661055.325546,2024,0,ɑ
1778661055.328749,1798,0,ɑ
1778661055.328789,1883,0,ɑ
1778661055.351423,2055,0,ɑ
1778661055.351501,2139,0,ɑ
1778661055.351556,2049,0,ɑ
1778661055.3516061,2064,0,ɑ
1778661055.352065,2209,0,ɑ
1778661055.3521001,2094,0,ɑ
1778661055.352285,1858,0,ɑ
1778661055.352432,1791,0,ɑ
1778661055.3524659,2024,0,ɑ
1778661055.352494,2110,0,ɑ
1778661055.3638,2111,0,ɑ
1778661055.368719,2006,0,ɑ
1778661055.368813,2166,0,ɑ
1778661055.36892,2155,0,ɑ
1778661055.369075,1945,0,ɑ
1778661055.369169,1768,0,ɑ
1778661055.3692858,2016,0,ɑ
1778661055.371062,2103,0,ɑ
1778661055.371275,2131,0,ɑ
1778661055.371306,2021,0,ɑ
1778661055.3713338,2105,0,ɑ
1778661055.3726609,2203,0,ɑ
1778661055.375218,2034,0,ɑ
1778661055.377768,1819,0,ɑ
1778661055.379065,1908,0,ɑ
1778661055.384352,2076,0,ɑ
1778661055.384773,2146,0,ɑ
1778661055.385273,2067,0,ɑ
1778661055.387275,2082,0,ɑ
1778661055.38935,2225,0,ɑ
1778661055.390819,2134,0,ɑ
1778661055.394469,1870,0,ɑ
1778661055.394708,1795,0,ɑ
1778661055.396663,2035,0,ɑ
1778661055.399217,2156,0,ɑ
1778661055.4017751,2138,0,ɑ
1778661055.40307,2010,0,ɑ
1778661055.4055722,2179,0,ɑ
1778661055.4090781,2173,0,ɑ
1778661055.410203,1932,0,ɑ
1778661055.41425,1744,0,ɑ
1778661055.415196,1986,0,ɑ
1778661055.415584,2109,0,ɑ
1778661055.417592,2153,0,ɑ
1778661055.41968,2022,0,ɑ
1778661055.421671,2102,0,ɑ
1778661055.422969,2209,0,ɑ
1778661055.425536,2045,0,ɑ
1778661055.426826,1831,0,ɑ
1778661055.429224,1920,0,ɑ
1778661055.4307652,2066,0,ɑ
1778661055.4345129,2153,0,ɑ
1778661055.43539,2070,0,ɑ
1778661055.437008,2066,0,ɑ
1778661055.439897,2218,0,ɑ
1778661055.441536,2134,0,ɑ
1778661055.443439,1902,0,ɑ
1778661055.445293,1817,0,ɑ
1778661055.446636,2053,0,ɑ
1778661055.449198,2132,0,ɑ
1778661055.451762,2177,0,ɑ
1778661055.4530501,2041,0,ɑ
1778661055.4578528,2130,0,ɑ
1778661055.458337,2157,0,ɑ
1778661055.460465,1985,0,ɑ
1778661055.4621599,1788,0,ɑ
1778661055.4640372,1998,0,ɑ
1778661055.46716,2090,0,ɑ
1778661055.4672792,2146,0,ɑ
1778661055.4688509,2026,0,ɑ
1778661055.4714081,2129,0,ɑ
1778661055.472707,2234,0,ɑ
1778661055.475251,2055,0,ɑ
1778661055.4766662,1844,0,ɑ
1778661055.481101,1917,0,ɑ
1778661055.4815009,2069,0,ɑ
1778661055.483808,2146,0,ɑ
1778661055.4861069,2058,0,ɑ
1778661055.488547,2079,0,ɑ
1778661055.4887161,2245,0,ɑ
1778661055.492404,2129,0,ɑ
1778661055.493706,1889,0,ɑ
1778661055.4950132,1818,0,ɑ
1778661055.497577,2038,0,ɑ
1778661055.4988658,2134,0,ɑ
1778661055.5046358,2134,0,ɑ
1778661055.505051,2016,0,ɑ
1778661055.5054731,2177,0,ɑ
1778661055.507017,2180,0,ɑ
1778661055.51041,1954,0,ɑ
1778661055.513561,1764,0,ɑ
1778661055.5137138,1988,0,ɑ
1778661055.515692,2118,0,ɑ
1778661055.517012,2202,0,ɑ
1778661055.519566,2000,0,ɑ
1778661055.520857,2060,0,ɑ
1778661055.523401,2209,0,ɑ
1778661055.528085,2047,0,ɑ
1778661055.529564,1818,0,ɑ
1778661055.530606,1883,0,ɑ
1778661055.530775,2053,0,ɑ
1778661055.533748,2128,0,ɑ
1778661055.535576,2063,0,ɑ
1778661055.5375192,2076,0,ɑ
1778661055.5393999,2228,0,ɑ
1778661055.54069,2138,0,ɑ
1778661055.543242,1897,0,ɑ
1778661055.5458071,1798,0,ɑ
1778661055.5471401,2044,0,ɑ
1778661055.552118,2117,0,ɑ
1778661055.552586,2130,0,ɑ
1778661055.554694,2025,0,ɑ
1778661055.554817,2184,0,ɑ
1778661055.557656,2202,0,ɑ
1778661055.559579,1966,0,ɑ
1778661055.561522,1778,0,ɑ
1778661055.563521,1996,0,ɑ
1778661055.5648232,2101,0,ɑ
1778661055.567372,2144,0,ɑ
1778661055.568696,2031,0,ɑ
1778661055.5713122,2127,0,ɑ
1778661055.576142,2238,0,ɑ
1778661055.5762408,2051,0,ɑ
1778661055.577832,1809,0,ɑ
1778661055.5805209,1918,0,ɑ
1778661055.581271,2163,0,ɑ
1778661055.582728,2149,0,ɑ
1778661055.584725,2009,0,ɑ
1778661055.5875041,2061,0,ɑ
1778661055.58879,2231,0,ɑ
1778661055.591337,2141,0,ɑ
1778661055.59281,1889,0,ɑ
1778661055.595215,1772,0,ɑ
1778661055.598779,2008,0,ɑ
1778661055.599177,2108,0,ɑ
1778661055.601048,2104,0,ɑ
1778661055.602873,2007,0,ɑ
1778661055.605768,2186,0,ɑ
1778661055.6077812,2184,0,ɑ
1778661055.609521,1959,0,ɑ
1778661055.6108139,1766,0,ɑ
1778661055.613378,1992,0,ɑ
1778661055.614712,2099,0,ɑ
1778661055.617141,2126,0,ɑ
1778661055.623296,2023,0,ɑ
1778661055.623389,2125,0,ɑ
1778661055.624128,2226,0,ɑ
1778661055.626923,2052,0,ɑ
1778661055.6272871,1861,0,ɑ
1778661055.63188,1894,0,ɑ
1778661055.63198,2054,0,ɑ
1778661055.6335082,2147,0,ɑ
1778661055.634803,2095,0,ɑ
1778661055.637353,2069,0,ɑ
1778661055.638658,2203,0,ɑ
1778661055.6412,2112,0,ɑ
1778661055.6470861,1885,0,ɑ
1778661055.647638,1793,0,ɑ
1778661055.6491961,2021,0,ɑ
1778661055.649438,2114,0,ɑ
1778661055.65212,2129,0,ɑ
1778661055.6539469,2019,0,ɑ
1778661055.657946,2172,0,ɑ
1778661055.6580129,2191,0,ɑ
1778661055.659302,1956,0,ɑ
1778661055.660658,1774,0,ɑ
1778661055.663458,1980,0,ɑ
1778661055.6648011,2086,0,ɑ
1778661055.671169,2156,0,ɑ
1778661055.671614,2039,0,ɑ
1778661055.6719959,2110,0,ɑ
1778661055.6748009,2204,0,ɑ
1778661055.6755688,2021,0,ɑ
1778661055.677824,1851,0,ɑ
1778661055.681314,1878,0,ɑ
1778661055.681761,2042,0,ɑ
1778661055.683054,2152,0,ɑ
1778661055.685608,2088,0,ɑ
1778661055.6867998,2045,0,ɑ
1778661055.689347,2194,0,ɑ
1778661055.693928,2128,0,ɑ
1778661055.694344,1881,0,ɑ
1778661055.697803,1805,0,ɑ
1778661055.69815,2042,0,ɑ
1778661055.699554,2131,0,ɑ
1778661055.70291,2177,0,ɑ
1778661055.703037,2015,0,ɑ
1778661055.705011,1981,0,ɑ
1778661055.7075682,2169,0,ɑ
1778661055.708862,2009,0,ɑ
1778661055.7114098,1800,0,ɑ
1778661055.713019,2046,0,ɑ
1778661055.717257,1995,0,ɑ
1778661055.7179809,2055,0,ɑ
1778661055.7197921,1955,0,ɑ
1778661055.721452,2063,0,ɑ
1778661055.7232158,2245,0,ɑ
1778661055.726424,2063,0,ɑ
1778661055.728189,1790,0,ɑ
1778661055.729546,1835,0,ɑ
1778661055.730696,2031,0,ɑ
1778661055.733253,2176,0,ɑ
1778661055.735819,2181,0,ɑ
1778661055.73711,2139,0,ɑ
1778661055.7419982,2084,0,ɑ
1778661055.742692,2095,0,ɑ
1778661055.742798,1659,0,ɑ
1778661055.747345,1146,0,ɑ
1778661055.748173,2272,0,ɑ
1778661055.754247,2357,0,ɑ
1778661055.754347,2192,0,ɑ
1778661055.754401,1853,0,ɑ
1778661055.7557352,2011,0,ɑ
1778661055.757094,2365,0,ɑ
1778661055.7636108,2237,0,ɑ
1778661055.765283,1854,0,ɑ
1778661055.765717,1952,0,ɑ
1778661055.7657988,2310,0,ɑ
1778661055.770869,1821,0,ɑ
1778661055.773107,1111,0,ɑ
1778661055.773504,2419,0,ɑ
1778661055.773748,2646,0,ɑ
1778661055.775885,2056,0,ɑ
1778661055.777267,745,0,ɑ
1778661055.778639,2217,0,ɑ
1778661055.7812538,2039,0,ɑ
1778661055.782673,1856,0,ɑ
1778661055.7905421,2268,0,ɑ
1778661055.792737,2512,0,ɑ
1778661055.795063,2309,0,ɑ
1778661055.7967732,1850,0,ɑ
1778661055.799047,1461,0,ɑ
1778661055.801362,1838,0,ɑ
1778661055.801491,2257,0,ɑ
1778661055.801783,2198,0,ɑ
1778661055.801985,2152,0,ɑ
1778661055.804202,2411,0,ɑ
1778661055.805592,1560,0,ɑ
1778661055.8069,1580,0,ɑ
1778661055.815423,2172,0,ɑ
1778661055.81571,2588,0,ɑ
1778661055.81587,1951,0,ɑ
1778661055.818304,2121,0,ɑ
1778661055.8215659,2013,0,ɑ
1778661055.824193,1912,0,ɑ
1778661055.824394,2163,0,ɑ
1778661055.826375,2477,0,ɑ
1778661055.826435,2224,0,ɑ
1778661055.82774,1651,0,ɑ
1778661055.8291478,1512,0,ɑ
1778661055.83185,2117,0,ɑ
1778661055.833172,2250,0,ɑ
1778661055.834579,2269,0,ɑ
1778661055.841095,2078,0,ɑ
1778661055.844464,2304,0,ɑ
1778661055.845061,2253,0,ɑ
1778661055.8489332,1973,0,ɑ
1778661055.851746,2075,0,ɑ
1778661055.852059,2246,0,ɑ
1778661055.854319,1736,0,ɑ
1778661055.854392,2287,0,ɑ
1778661055.854445,1942,0,ɑ
1778661055.85589,2165,0,ɑ
1778661055.8572679,2226,0,ɑ
1778661055.858618,2035,0,ɑ
1778661055.86362,1854,0,ɑ
1778661055.864622,2019,0,ɑ
1778661055.866483,2138,0,ɑ
1778661055.8668668,2109,0,ɑ
1778661055.8748631,2002,0,ɑ
1778661055.875052,2176,0,ɑ
1778661055.875494,2377,0,ɑ
1778661055.8776882,2043,0,ɑ
1778661055.877759,1938,0,ɑ
1778661055.879112,2016,0,ɑ
1778661055.8817348,2283,0,ɑ
1778661055.88306,2075,0,ɑ
1778661055.885637,1963,0,ɑ
1778661055.886952,1592,0,ɑ
1778661055.892322,2513,0,ɑ
1778661055.89437,2405,0,ɑ
1778661055.894618,2125,0,ɑ
1778661055.896629,1803,0,ɑ
1778661055.896744,2134,0,ɑ
1778661055.900129,2409,0,ɑ
1778661055.902463,2343,0,ɑ
1778661055.9046888,2137,0,ɑ
1778661055.9047208,2353,0,ɑ
1778661055.907357,2233,0,ɑ
1778661055.90866,2055,0,ɑ
1778661055.915025,1469,0,ɑ
1778661055.916379,2357,0,ɑ
1778661055.916538,2436,0,ɑ
1778661055.916746,786,0,ɑ
1778661055.920175,2350,0,ɑ
1778661055.921977,2709,0,ɑ
1778661055.9245162,2524,0,ɑ
1778661055.924683,2273,0,ɑ
1778661055.926799,1895,0,ɑ
1778661055.929404,2122,0,ɑ
1778661055.930698,2217,0,ɑ
1778661055.933341,2422,0,ɑ
1778661055.934669,2035,0,ɑ
1778661055.9411461,1652,0,ɑ
1778661055.94122,2442,0,ɑ
1778661055.941677,2236,0,ɑ
1778661055.9436312,1981,0,ɑ
1778661055.9468958,1866,0,ɑ
1778661055.947768,1932,0,ɑ
1778661055.949484,2602,0,ɑ
1778661055.952074,2079,0,ɑ
1778661055.954159,1997,0,ɑ
1778661055.955482,2770,0,ɑ
1778661055.956775,2392,0,ɑ
1778661055.962034,1891,0,ɑ
1778661055.964177,1711,0,ɑ
1778661055.965549,2109,0,ɑ
1778661055.965814,2664,0,ɑ
1778661055.968012,2632,0,ɑ
1778661055.970895,1139,0,ɑ
1778661055.9710379,2466,0,ɑ
1778661055.975564,2826,0,ɑ
1778661055.975667,1873,0,ɑ
1778661055.9769652,1866,0,ɑ
1778661055.979636,2082,0,ɑ
1778661055.9810119,2298,0,ɑ
1778661055.983352,2599,0,ɑ
1778661055.984651,2500,0,ɑ
1778661055.990825,2346,0,ɑ
1778661055.991014,2583,0,ɑ
1778661055.991822,2435,0,ɑ
1778661055.993613,2208,0,ɑ
1778661055.995328,1903,0,ɑ
1778661055.9981031,2421,0,ɑ
1778661055.999577,2074,0,ɑ
1778661056.002356,1281,0,ɑ
1778661056.004204,2963,0,ɑ
1778661056.005845,2889,0,ɑ
1778661056.007141,2617,0,ɑ
1778661056.008518,1955,0,ɑ
1778661056.014108,2034,0,ɑ
1778661056.014265,3150,0,ɑ
1778661056.016716,2786,0,ɑ
1778661056.01685,2436,0,ɑ
1778661056.0190809,2725,0,ɑ
1778661056.020855,1908,0,ɑ
1778661056.022749,2617,0,ɑ
1778661056.025494,2262,0,ɑ
1778661056.027395,2127,0,ɑ
1778661056.028733,2128,0,ɑ
1778661056.0313358,2428,0,ɑ
1778661056.032644,2509,0,ɑ
1778661056.035249,2729,0,ɑ
1778661056.0365472,2766,0,ɑ
1778661056.0430532,2125,0,ɑ
1778661056.043583,2762,0,ɑ
1778661056.0441148,2291,0,ɑ
1778661056.046748,1833,0,ɑ
1778661056.049061,2353,0,ɑ
1778661056.049678,2586,0,ɑ
1778661056.051594,2653,0,ɑ
1778661056.053063,2798,0,ɑ
1778661056.0560389,2835,0,ɑ
1778661056.058321,2354,0,ɑ
1778661056.0596428,2556,0,ɑ
1778661056.0609448,2200,0,ɑ
1778661056.068734,2434,0,ɑ
1778661056.06936,2301,0,ɑ
1778661056.069474,2051,0,ɑ
1778661056.0710049,2859,0,ɑ
1778661056.0710962,2578,0,ɑ
1778661056.073192,2333,0,ɑ
1778661056.07559,2505,0,ɑ
1778661056.077159,2514,0,ɑ
1778661056.082316,2312,0,ɑ
1778661056.082357,2264,0,ɑ
1778661056.0825238,2723,0,ɑ
1778661056.085239,2069,0,ɑ
1778661056.086592,2020,0,ɑ
1778661056.0893729,2723,0,ɑ
1778661056.0907562,2817,0,ɑ
1778661056.098206,2565,0,ɑ
1778661056.100626,2344,0,ɑ
1778661056.102943,1797,0,ɑ
1778661056.103887,2166,0,ɑ
1778661056.104861,3150,0,ɑ
1778661056.1051059,2619,0,ɑ
1778661056.10571,2435,0,ɑ
1778661056.10782,2291,0,ɑ
1778661056.1109,2346,0,ɑ
1778661056.111163,2374,0,ɑ
1778661056.113426,2346,0,ɑ
1778661056.114806,2081,0,ɑ
1778661056.117599,2758,0,ɑ
1778661056.122328,2639,0,ɑ
1778661056.1249049,2211,0,ɑ
1778661056.125278,2318,0,ɑ
1778661056.128212,2532,0,ɑ
1778661056.128814,2069,0,ɑ
1778661056.131946,2010,0,ɑ
1778661056.132257,2464,0,ɑ
1778661056.1356318,2495,0,ɑ
1778661056.136044,2231,0,ɑ
1778661056.138338,1965,0,ɑ
1778661056.13854,2428,0,ɑ
1778661056.141268,2602,0,ɑ
1778661056.142674,2196,0,ɑ
1778661056.1453388,1837,0,ɑ
1778661056.146851,1632,0,ɑ
1778661056.156214,2194,0,ɑ
1778661056.15814,2965,0,ɑ
1778661056.159092,2634,0,ɑ
1778661056.159283,2155,0,ɑ
1778661056.1597729,2327,0,ɑ
1778661056.159936,2190,0,ɑ
1778661056.165822,2054,0,ɑ
1778661056.166304,2073,0,ɑ
1778661056.1666,1962,0,ɑ
1778661056.168397,2430,0,ɑ
1778661056.1689441,1916,0,ɑ
1778661056.171548,1810,0,ɑ
1778661056.172843,2522,0,ɑ
1778661056.177773,2288,0,ɑ
1778661056.179766,1684,0,ɑ
1778661056.181257,2106,0,ɑ
1778661056.181473,2022,0,ɑ
1778661056.1840792,2337,0,ɑ
1778661056.187545,2681,0,ɑ
1778661056.187642,2193,0,ɑ
1778661056.191115,2193,0,ɑ
1778661056.191427,1970,0,ɑ
1778661056.193486,1986,0,ɑ
1778661056.194941,1839,0,ɑ
1778661056.1976802,1224,0,ɑ
1778661056.1990342,2529,0,ɑ
1778661056.201777,2433,0,ɑ
1778661056.203151,2040,0,ɑ
1778661056.223326,2076,0,ɑ
1778661056.2237298,2202,0,ɑ
1778661056.226342,2229,0,ɑ
1778661056.226442,1778,0,ɑ
1778661056.226495,2308,0,ɑ
1778661056.2265449,2880,0,ɑ
1778661056.226605,1257,0,ɑ
1778661056.226654,1264,0,ɑ
1778661056.226702,2397,0,ɑ
1778661056.22676,2425,0,ɑ
1778661056.226807,2095,0,ɑ
1778661056.226856,1846,0,ɑ
1778661056.229794,1864,0,ɑ
1778661056.231366,2117,0,ɑ
1778661056.239386,2175,0,ɑ
1778661056.239726,2119,0,ɑ
1778661056.2417338,2145,0,ɑ
1778661056.243262,2288,0,ɑ
1778661056.244373,2219,0,ɑ
1778661056.2455711,1907,0,ɑ
1778661056.250655,1595,0,ɑ
1778661056.2510998,2081,0,ɑ
1778661056.253057,2104,0,ɑ
1778661056.253877,2163,0,ɑ
1778661056.253945,1989,0,ɑ
1778661056.255282,2190,0,ɑ
1778661056.2566242,2286,0,ɑ
1778661056.259253,1779,0,ɑ
1778661056.260588,1582,0,ɑ
1778661056.2632818,2186,0,ɑ
1778661056.2701252,2204,0,ɑ
1778661056.2721322,2263,0,ɑ
1778661056.274116,1662,0,ɑ
1778661056.274615,2132,0,ɑ
1778661056.2755609,2380,0,ɑ
1778661056.276604,2203,0,ɑ
1778661056.277523,1895,0,ɑ
1778661056.282333,1908,0,ɑ
1778661056.28268,2111,0,ɑ
1778661056.283016,2220,0,ɑ
1778661056.285419,2156,0,ɑ
1778661056.286836,2113,0,ɑ
1778661056.289509,2318,0,ɑ
1778661056.2959518,2239,0,ɑ
1778661056.299076,1923,0,ɑ
1778661056.2993422,1722,0,ɑ
1778661056.2997131,2074,0,ɑ
1778661056.301645,2163,0,ɑ
1778661056.3022459,2199,0,ɑ
1778661056.3047261,2060,0,ɑ
1778661056.3099148,2233,0,ɑ
1778661056.310146,2269,0,ɑ
1778661056.310406,2008,0,ɑ
1778661056.310737,1802,0,ɑ
1778661056.313486,1882,0,ɑ
1778661056.314844,2231,0,ɑ
1778661056.317555,2130,0,ɑ
1778661056.3189042,1928,0,ɑ
1778661056.3215308,2229,0,ɑ
1778661056.322915,2367,0,ɑ
1778661056.330305,2228,0,ɑ
1778661056.3313842,1943,0,ɑ
1778661056.3333278,1861,0,ɑ
1778661056.3357341,2026,0,ɑ
1778661056.337253,2170,0,ɑ
1778661056.3375192,2188,0,ɑ
1778661056.3407192,2068,0,ɑ
1778661056.344257,2225,0,ɑ
1778661056.3445828,2151,0,ɑ
1778661056.3449469,1898,0,ɑ
1778661056.345214,1651,0,ɑ
1778661056.3480818,2043,0,ɑ
1778661056.349443,2195,0,ɑ
1778661056.350892,2159,0,ɑ
1778661056.35795,2019,0,ɑ
1778661056.360827,2156,0,ɑ
1778661056.3635929,2229,0,ɑ
1778661056.3644931,1998,0,ɑ
1778661056.365142,1726,0,ɑ
1778661056.366266,1880,0,ɑ
1778661056.3668501,2065,0,ɑ
1778661056.368628,2176,0,ɑ
1778661056.368905,2042,0,ɑ
1778661056.372292,2074,0,ɑ
1778661056.3748019,2223,0,ɑ
1778661056.3751318,2035,0,ɑ
1778661056.376555,1754,0,ɑ
1778661056.379174,1759,0,ɑ
1778661056.3805811,1970,0,ɑ
1778661056.383255,2076,0,ɑ
1778661056.384633,2031,0,ɑ
1778661056.392599,1958,0,ɑ
1778661056.3950028,2137,0,ɑ
1778661056.396845,2053,0,ɑ
1778661056.3980641,1795,0,ɑ
1778661056.399024,1626,0,ɑ
1778661056.3996532,1910,0,ɑ
1778661056.4002602,2020,0,ɑ
1778661056.405834,2035,0,ɑ
1778661056.406164,1903,0,ɑ
1778661056.4065778,2041,0,ɑ
1778661056.4069052,2128,0,ɑ
1778661056.409028,1884,0,ɑ
1778661056.411695,1638,0,ɑ
1778661056.4131331,1826,0,ɑ
1778661056.4192588,1985,0,ɑ
1778661056.4202912,2071,0,ɑ
1778661056.422663,1950,0,ɑ
1778661056.4227772,1990,0,ɑ
1778661056.423077,2180,0,ɑ
1778661056.4264588,2062,0,ɑ
1778661056.427307,1804,0,ɑ
1778661056.429152,1778,0,ɑ
1778661056.432213,2013,0,ɑ
1778661056.434099,2084,0,ɑ
1778661056.4354072,2039,0,ɑ
1778661056.436703,2024,0,ɑ
1778661056.439253,2272,0,ɑ
1778661056.440545,2105,0,ɑ
1778661056.443098,1858,0,ɑ
1778661056.449109,1685,0,ɑ
1778661056.4495978,1999,0,ɑ
1778661056.450494,2103,0,ɑ
1778661056.4520671,2128,0,ɑ
1778661056.4541929,1989,0,ɑ
1778661056.455623,2112,0,ɑ
1778661056.457891,2189,0,ɑ
1778661056.46097,1970,0,ɑ
1778661056.461086,1736,0,ɑ
1778661056.4635258,1893,0,ɑ
1778661056.4646962,2076,0,ɑ
1778661056.467253,2130,0,ɑ
1778661056.472169,2053,0,ɑ
1778661056.472256,2058,0,ɑ
1778661056.475023,2196,0,ɑ
1778661056.475191,2087,0,ɑ
1778661056.4767702,1812,0,ɑ
1778661056.4788978,1788,0,ɑ
1778661056.4837902,2036,0,ɑ
1778661056.483865,2129,0,ɑ
1778661056.4860082,2130,0,ɑ
1778661056.487286,2021,0,ɑ
1778661056.488587,2249,0,ɑ
1778661056.491137,2180,0,ɑ
1778661056.4924428,1913,0,ɑ
1778661056.4950159,1694,0,ɑ
1778661056.501195,2008,0,ɑ
1778661056.5024042,2135,0,ɑ
1778661056.504289,2157,0,ɑ
1778661056.504416,2016,0,ɑ
1778661056.506392,2116,0,ɑ
1778661056.506857,2207,0,ɑ
1778661056.50986,1998,0,ɑ
1778661056.515928,1743,0,ɑ
1778661056.516014,1893,0,ɑ
1778661056.516072,2074,0,ɑ
1778661056.5173912,2139,0,ɑ
1778661056.518601,2043,0,ɑ
1778661056.5245419,2074,0,ɑ
1778661056.525114,2305,0,ɑ
1778661056.5259311,2115,0,ɑ
1778661056.527574,1864,0,ɑ
1778661056.53132,1778,0,ɑ
1778661056.531501,2010,0,ɑ
1778661056.533634,2101,0,ɑ
1778661056.536737,2184,0,ɑ
1778661056.537042,2068,0,ɑ
1778661056.539181,2185,0,ɑ
1778661056.540493,2028,0,ɑ
1778661056.543061,1905,0,ɑ
1778661056.5456991,1769,0,ɑ
1778661056.547049,2102,0,ɑ
1778661056.54976,2166,0,ɑ
1778661056.554296,2122,0,ɑ
1778661056.554871,2032,0,ɑ
1778661056.555321,2113,0,ɑ
1778661056.557641,2129,0,ɑ
1778661056.559305,2005,0,ɑ
1778661056.5617259,1819,0,ɑ
1778661056.563767,1894,0,ɑ
1778661056.566922,2029,0,ɑ
1778661056.5672178,2166,0,ɑ
1778661056.568942,2074,0,ɑ
1778661056.5715032,2063,0,ɑ
1778661056.572808,2240,0,ɑ
1778661056.578018,2112,0,ɑ
1778661056.5785441,1867,0,ɑ
1778661056.581134,1791,0,ɑ
1778661056.581274,1894,0,ɑ
1778661056.583018,2068,0,ɑ
1778661056.58522,2046,0,ɑ
1778661056.590104,1981,0,ɑ
1778661056.590167,2111,0,ɑ
1778661056.5927901,2132,0,ɑ
1778661056.592858,1941,0,ɑ
1778661056.595493,1770,0,ɑ
1778661056.596823,1954,0,ɑ
1778661056.599447,2086,0,ɑ
1778661056.6007402,2124,0,ɑ
1778661056.6078222,1943,0,ɑ
1778661056.6079302,2094,0,ɑ
1778661056.608782,2211,0,ɑ
1778661056.6092758,1958,0,ɑ
1778661056.612051,1678,0,ɑ
1778661056.613775,1818,0,ɑ
1778661056.6158888,1992,0,ɑ
1778661056.6189098,2104,0,ɑ
1778661056.6189928,2026,0,ɑ
1778661056.6210501,2071,0,ɑ
1778661056.623611,2234,0,ɑ
1778661056.6249,2065,0,ɑ
1778661056.6301959,1790,0,ɑ
1778661056.6307359,1772,0,ɑ
1778661056.632405,1962,0,ɑ
1778661056.634033,2080,0,ɑ
1778661056.635933,2071,0,ɑ
1778661056.637674,1991,0,ɑ
1778661056.640523,2182,0,ɑ
1778661056.6405811,2125,0,ɑ
1778661056.643904,1860,0,ɑ
1778661056.645198,1667,0,ɑ
1778661056.647659,1944,0,ɑ
1778661056.648959,2082,0,ɑ
1778661056.651507,2131,0,ɑ
1778661056.655713,1982,0,ɑ
1778661056.656574,2091,0,ɑ
1778661056.6566248,2165,0,ɑ
1778661056.658638,1950,0,ɑ
1778661056.6615639,1691,0,ɑ
1778661056.663889,1810,0,ɑ
1778661056.666812,2028,0,ɑ
1778661056.666987,2136,0,ɑ
1778661056.669059,2017,0,ɑ
1778661056.671629,2017,0,ɑ
1778661056.672933,2182,0,ɑ
1778661056.678398,2046,0,ɑ
1778661056.6788008,1754,0,ɑ
1778661056.678879,1699,0,ɑ
1778661056.6815639,1985,0,ɑ
1778661056.682963,2089,0,ɑ
1778661056.6853602,2046,0,ɑ
1778661056.68818,1946,0,ɑ
1778661056.689883,2152,0,ɑ
1778661056.691185,2140,0,ɑ
1778661056.692479,1873,0,ɑ
1778661056.695044,1638,0,ɑ
1778661056.6975832,1927,0,ɑ
1778661056.698878,2093,0,ɑ
1778661056.703861,2129,0,ɑ
1778661056.704221,1860,0,ɑ
1778661056.706325,1982,0,ɑ
1778661056.7082722,2261,0,ɑ
1778661056.7101471,2010,0,ɑ
1778661056.7140942,1606,0,ɑ
1778661056.7142131,1849,0,ɑ
1778661056.716285,2176,0,ɑ
1778661056.717577,2023,0,ɑ
1778661056.718873,1946,0,ɑ
1778661056.721347,2099,0,ɑ
1778661056.722632,2255,0,ɑ
1778661056.7289002,2078,0,ɑ
1778661056.731642,1720,0,ɑ
1778661056.731755,1668,0,ɑ
1778661056.731837,1997,0,ɑ
1778661056.73336,2093,0,ɑ
1778661056.735086,2055,0,ɑ
1778661056.736973,1926,0,ɑ
1778661056.739754,2133,0,ɑ
1778661056.74184,2075,0,ɑ
1778661056.743131,1870,0,ɑ
1778661056.7460968,1664,0,ɑ
1778661056.750592,1924,0,ɑ
1778661056.751348,2034,0,ɑ
1778661056.751742,2057,0,ɑ
1778661056.754391,1961,0,ɑ
1778661056.7551029,2058,0,ɑ
1778661056.757973,2149,0,ɑ
1778661056.760695,1926,0,ɑ
1778661056.7607942,1691,0,ɑ
1778661056.763635,1802,0,ɑ
1778661056.7649422,1946,0,ɑ
1778661056.767478,2046,0,ɑ
1778661056.768843,2084,0,ɑ
1778661056.7714229,2051,0,ɑ
1778661056.7762911,2168,0,ɑ
1778661056.7767098,2007,0,ɑ
1778661056.776808,1772,0,ɑ
1778661056.778687,1731,0,ɑ
1778661056.7816918,1978,0,ɑ
1778661056.7862232,2085,0,ɑ
1778661056.786392,2048,0,ɑ
1778661056.788019,1951,0,ɑ
1778661056.789321,2139,0,ɑ
1778661056.7906098,2143,0,ɑ
1778661056.7931678,1922,0,ɑ
1778661056.794456,1719,0,ɑ
1778661056.796903,1919,0,ɑ
1778661056.801263,2047,0,ɑ
1778661056.801994,2186,0,ɑ
1778661056.803839,1963,0,ɑ
1778661056.805314,2091,0,ɑ
1778661056.807256,2197,0,ɑ
1778661056.811542,2009,0,ɑ
1778661056.811705,1752,0,ɑ
1778661056.813791,1870,0,ɑ
1778661056.815092,2111,0,ɑ
1778661056.817848,2186,0,ɑ
1778661056.822058,1959,0,ɑ
1778661056.824118,2020,0,ɑ
1778661056.8243709,2251,0,ɑ
1778661056.826497,2102,0,ɑ
1778661056.827329,1894,0,ɑ
1778661056.832247,1768,0,ɑ
1778661056.8324852,2058,0,ɑ
1778661056.8327081,2200,0,ɑ
1778661056.835281,2027,0,ɑ
1778661056.83646,1855,0,ɑ
1778661056.83905,2160,0,ɑ
1778661056.841412,2176,0,ɑ
1778661056.8427022,1834,0,ɑ
1778661056.84788,1718,0,ɑ
1778661056.848336,1998,0,ɑ
1778661056.849201,2095,0,ɑ
1778661056.85076,2115,0,ɑ
1778661056.854084,1995,0,ɑ
1778661056.855734,2183,0,ɑ
1778661056.8584,2241,0,ɑ
1778661056.858751,1953,0,ɑ
1778661056.860606,1755,0,ɑ
1778661056.8632488,1853,0,ɑ
1778661056.864644,2023,0,ɑ
1778661056.869163,2163,0,ɑ
1778661056.869663,2081,0,ɑ
1778661056.87159,2093,0,ɑ
1778661056.873753,2237,0,ɑ
1778661056.876728,2110,0,ɑ
1778661056.8793442,1800,0,ɑ
1778661056.879563,1698,0,ɑ
1778661056.8816261,2028,0,ɑ
1778661056.882933,2121,0,ɑ
1778661056.885483,2064,0,ɑ
1778661056.886772,1960,0,ɑ
1778661056.889316,2179,0,ɑ
1778661056.890647,2142,0,ɑ
1778661056.894188,1945,0,ɑ
1778661056.8968372,1684,0,ɑ
1778661056.898336,1931,0,ɑ
1778661056.8995252,2081,0,ɑ
1778661056.901994,2146,0,ɑ
1778661056.904597,2110,0,ɑ
1778661056.9050019,2046,0,ɑ
1778661056.906829,2105,0,ɑ
1778661056.909184,1989,0,ɑ
1778661056.910686,1743,0,ɑ
1778661056.915267,1763,0,ɑ
1778661056.915692,1961,0,ɑ
1778661056.91738,2138,0,ɑ
1778661056.918899,2038,0,ɑ
1778661056.9210382,1953,0,ɑ
1778661056.924782,2249,0,ɑ
1778661056.925049,2136,0,ɑ
1778661056.9269278,1830,0,ɑ
1778661056.929505,1718,0,ɑ
1778661056.930803,2071,0,ɑ
1778661056.9333508,2077,0,ɑ
1778661056.934636,2083,0,ɑ
1778661056.939851,1983,0,ɑ
1778661056.940564,2135,0,ɑ
1778661056.940663,2141,0,ɑ
1778661056.942423,1947,0,ɑ
1778661056.945941,1661,0,ɑ
1778661056.947265,1962,0,ɑ
1778661056.949683,2169,0,ɑ
1778661056.951624,2134,0,ɑ
1778661056.952925,1905,0,ɑ
1778661056.955482,1965,0,ɑ
1778661056.956955,2165,0,ɑ
1778661056.959506,2071,0,ɑ
1778661056.96431,1834,0,ɑ
1778661056.964394,1778,0,ɑ
1778661056.965055,2031,0,ɑ
1778661056.966806,2113,0,ɑ
1778661056.969972,2062,0,ɑ
1778661056.971572,2062,0,ɑ
1778661056.973908,2226,0,ɑ
1778661056.975801,2088,0,ɑ
1778661056.977095,1809,0,ɑ
1778661056.978477,1773,0,ɑ
1778661056.981003,2039,0,ɑ
1778661056.982458,2122,0,ɑ
1778661056.9887,2145,0,ɑ
1778661056.989759,1994,0,ɑ
1778661056.990834,2167,0,ɑ
1778661056.990932,2177,0,ɑ
1778661056.994499,1933,0,ɑ
1778661056.995826,1692,0,ɑ
1778661056.9981701,1940,0,ɑ
1778661057.000022,2035,0,ɑ
1778661057.001329,2111,0,ɑ
1778661057.002621,2009,0,ɑ
1778661057.0051641,2081,0,ɑ
1778661057.00645,2224,0,ɑ
1778661057.011864,2025,0,ɑ
1778661057.01227,1769,0,ɑ
1778661057.0147882,1829,0,ɑ
1778661057.014911,1976,0,ɑ
1778661057.016722,2209,0,ɑ
1778661057.0197,2080,0,ɑ
1778661057.0219631,2042,0,ɑ
1778661057.023752,2235,0,ɑ
1778661057.025058,2131,0,ɑ
1778661057.026421,1860,0,ɑ
1778661057.029192,1714,0,ɑ
1778661057.030526,2033,0,ɑ
1778661057.036679,2168,0,ɑ
1778661057.037111,1955,0,ɑ
1778661057.037466,1877,0,ɑ
1778661057.0388522,2286,0,ɑ
1778661057.0419068,2116,0,ɑ
1778661057.04334,1857,0,ɑ
1778661057.0456371,1673,0,ɑ
1778661057.04756,2066,0,ɑ
1778661057.048863,2107,0,ɑ
1778661057.05117,1827,0,ɑ
1778661057.052458,2064,0,ɑ
1778661057.055003,2168,0,ɑ
1778661057.059829,2189,0,ɑ
1778661057.06028,1805,0,ɑ
1778661057.060695,1962,0,ɑ
1778661057.064099,1936,0,ɑ
1778661057.0659149,1986,0,ɑ
1778661057.069324,1948,0,ɑ
1778661057.069437,2143,0,ɑ
1778661057.0713742,2135,0,ɑ
1778661057.072662,2164,0,ɑ
1778661057.0752158,1794,0,ɑ
1778661057.076513,1803,0,ɑ
1778661057.0790951,1893,0,ɑ
1778661057.0837388,2202,0,ɑ
1778661057.0841322,2426,0,ɑ
1778661057.0862029,1695,0,ɑ
1778661057.087587,1716,0,ɑ
1778661057.089321,2166,0,ɑ
1778661057.0929122,2413,0,ɑ
1778661057.093038,1968,0,ɑ
1778661057.094938,1536,0,ɑ
1778661057.097506,1764,0,ɑ
1778661057.098808,2002,0,ɑ
1778661057.101368,2146,0,ɑ
1778661057.1026611,2060,0,ɑ
1778661057.10717,2105,0,ɑ
1778661057.107564,2194,0,ɑ
1778661057.109836,2043,0,ɑ
1778661057.111723,1740,0,ɑ
1778661057.114711,2130,0,ɑ
1778661057.114859,2551,0,ɑ
1778661057.1171288,1752,0,ɑ
1778661057.1190789,1726,0,ɑ
1778661057.120424,2331,0,ɑ
1778661057.122973,2225,0,ɑ
1778661057.124394,1804,0,ɑ
1778661057.126945,1640,0,ɑ
1778661057.132063,1553,0,ɑ
1778661057.132475,1837,0,ɑ
1778661057.13432,1898,0,ɑ
1778661057.134464,2075,0,ɑ
1778661057.136877,2004,0,ɑ
1778661057.1390562,2386,0,ɑ
1778661057.1412952,2209,0,ɑ
1778661057.143193,1971,0,ɑ
1778661057.1444921,1716,0,ɑ
1778661057.147254,1916,0,ɑ
1778661057.148476,2110,0,ɑ
1778661057.152305,2187,0,ɑ
1778661057.1527,2058,0,ɑ
1778661057.154635,2153,0,ɑ
1778661057.157474,2210,0,ɑ
1778661057.159505,2021,0,ɑ
1778661057.161679,1769,0,ɑ
1778661057.1638248,1807,0,ɑ
1778661057.16513,1968,0,ɑ
1778661057.166433,2136,0,ɑ
1778661057.16898,2115,0,ɑ
1778661057.1715431,2110,0,ɑ
1778661057.175811,2130,0,ɑ
1778661057.1762528,2046,0,ɑ
1778661057.178355,1851,0,ɑ
1778661057.178447,1723,0,ɑ
1778661057.181309,2004,0,ɑ
1778661057.185232,2093,0,ɑ
1778661057.185358,2085,0,ɑ
1778661057.186858,1937,0,ɑ
1778661057.1894028,2218,0,ɑ
1778661057.190698,2185,0,ɑ
1778661057.193225,2005,0,ɑ
1778661057.194512,1773,0,ɑ
1778661057.199105,2051,0,ɑ
1778661057.1998389,2047,0,ɑ
1778661057.201801,2078,0,ɑ
1778661057.203197,2034,0,ɑ
1778661057.204803,2113,0,ɑ
1778661057.206569,2192,0,ɑ
1778661057.208766,2003,0,ɑ
1778661057.2106628,1852,0,ɑ
1778661057.213462,1920,0,ɑ
1778661057.214795,2092,0,ɑ
1778661057.217348,2115,0,ɑ
1778661057.2186408,2054,0,ɑ
1778661057.223006,2041,0,ɑ
1778661057.223113,2227,0,ɑ
1778661057.225524,2141,0,ɑ
1778661057.2277162,1883,0,ɑ
1778661057.2301729,1850,0,ɑ
1778661057.2324638,2022,0,ɑ
1778661057.232637,2199,0,ɑ
1778661057.2354538,2123,0,ɑ
1778661057.236744,1945,0,ɑ
1778661057.239298,2221,0,ɑ
1778661057.2405891,2192,0,ɑ
1778661057.243135,1975,0,ɑ
1778661057.247848,1714,0,ɑ
1778661057.248641,1925,0,ɑ
1778661057.2501671,2075,0,ɑ
1778661057.251882,2192,0,ɑ
1778661057.253453,2126,0,ɑ
1778661057.25497,2232,0,ɑ
1778661057.257025,2212,0,ɑ
1778661057.258829,2075,0,ɑ
1778661057.261385,1970,0,ɑ
1778661057.262513,2136,0,ɑ
1778661057.265095,1900,0,ɑ
1778661057.266422,2030,0,ɑ
1778661057.271643,2137,0,ɑ
1778661057.2723992,2068,0,ɑ
1778661057.2737641,2307,0,ɑ
1778661057.27547,2080,0,ɑ
1778661057.276938,1946,0,ɑ
1778661057.280333,1817,0,ɑ
1778661057.2804601,2018,0,ɑ
1778661057.2831979,2122,0,ɑ
1778661057.284489,2182,0,ɑ
1778661057.286984,2069,0,ɑ
1778661057.2895281,2216,0,ɑ
1778661057.2943249,2229,0,ɑ
1778661057.294678,1936,0,ɑ
1778661057.295022,1714,0,ɑ
1778661057.297821,1944,0,ɑ
1778661057.299605,2104,0,ɑ
1778661057.3011541,2188,0,ɑ
1778661057.303191,2075,0,ɑ
1778661057.304883,2142,0,ɑ
1778661057.307429,2262,0,ɑ
1778661057.3087249,2067,0,ɑ
1778661057.311272,1765,0,ɑ
1778661057.312472,1820,0,ɑ
1778661057.316752,2050,0,ɑ
1778661057.317451,2187,0,ɑ
1778661057.3192189,2178,0,ɑ
1778661057.32063,2047,0,ɑ
1778661057.323628,2173,0,ɑ
1778661057.325641,2101,0,ɑ
1778661057.327494,1868,0,ɑ
1778661057.328788,1734,0,ɑ
1778661057.36899,2013,0,ɑ
1778661057.369075,2117,0,ɑ
1778661057.3691268,2128,0,ɑ
1778661057.3691761,2015,0,ɑ
1778661057.369222,2154,0,ɑ
1778661057.369269,2208,0,ɑ
1778661057.369314,1985,0,ɑ
1778661057.36936,1723,0,ɑ
1778661057.369681,1928,0,ɑ
1778661057.36974,2074,0,ɑ
1778661057.369767,2147,0,ɑ
1778661057.370375,2037,0,ɑ
1778661057.3705568,2095,0,ɑ
1778661057.370642,2263,0,ɑ
1778661057.370749,2111,0,ɑ
1778661057.370785,1785,0,ɑ
1778661057.370869,1830,0,ɑ
1778661057.3709152,2035,0,ɑ
1778661057.370941,2174,0,ɑ
1778661057.371016,2080,0,ɑ
1778661057.3710752,2035,0,ɑ
1778661057.3724449,2215,0,ɑ
1778661057.375247,2138,0,ɑ
1778661057.3766441,1870,0,ɑ
1778661057.379189,1707,0,ɑ
1778661057.3805141,2190,0,ɑ
1778661057.3861032,2281,0,ɑ
1778661057.387569,2005,0,ɑ
1778661057.3880188,2017,0,ɑ
1778661057.392565,2340,0,ɑ
1778661057.393383,2212,0,ɑ
1778661057.3934631,1870,0,ɑ
1778661057.397316,1643,0,ɑ
1778661057.3977249,2011,0,ɑ
1778661057.399866,2121,0,ɑ
1778661057.4012291,2151,0,ɑ
1778661057.402633,2034,0,ɑ
1778661057.407535,2078,0,ɑ
1778661057.410163,2348,0,ɑ
1778661057.411849,2100,0,ɑ
1778661057.413232,1865,0,ɑ
1778661057.414336,1905,0,ɑ
1778661057.4151711,2022,0,ɑ
1778661057.418847,2076,0,ɑ
1778661057.41925,2050,0,ɑ
1778661057.421247,2092,0,ɑ
1778661057.422668,2504,0,ɑ
1778661057.425282,2181,0,ɑ
1778661057.4266949,1905,0,ɑ
1778661057.429335,1746,0,ɑ
1778661057.434888,2080,0,ɑ
1778661057.436016,2145,0,ɑ
1778661057.4373682,2150,0,ɑ
1778661057.438812,1984,0,ɑ
1778661057.440027,2126,0,ɑ
1778661057.4429529,2200,0,ɑ
1778661057.443163,1971,0,ɑ
1778661057.445558,1803,0,ɑ
1778661057.447826,1998,0,ɑ
1778661057.449194,2112,0,ɑ
1778661057.450685,2181,0,ɑ
1778661057.4612951,2054,0,ɑ
1778661057.4620302,2105,0,ɑ
1778661057.466439,2209,0,ɑ
1778661057.46691,2051,0,ɑ
1778661057.4671931,1812,0,ɑ
1778661057.468724,1854,0,ɑ
1778661057.4693718,2068,0,ɑ
1778661057.469486,2166,0,ɑ
1778661057.469555,2110,0,ɑ
1778661057.4712908,2201,0,ɑ
1778661057.472707,2283,0,ɑ
1778661057.475395,1951,0,ɑ
1778661057.476736,1812,0,ɑ
1778661057.483212,1718,0,ɑ
1778661057.485544,1942,0,ɑ
1778661057.485871,2084,0,ɑ
1778661057.488704,2123,0,ɑ
1778661057.4892,1950,0,ɑ
1778661057.4913962,2095,0,ɑ
1778661057.493786,2167,0,ɑ
1778661057.4942489,1971,0,ɑ
1778661057.4946072,1737,0,ɑ
1778661057.497411,1960,0,ɑ
1778661057.4987688,2083,0,ɑ
1778661057.505576,2149,0,ɑ
1778661057.5071201,1963,0,ɑ
1778661057.507301,2031,0,ɑ
1778661057.507596,2153,0,ɑ
1778661057.5099251,2027,0,ɑ
1778661057.511626,1795,0,ɑ
1778661057.515479,1840,0,ɑ
1778661057.515758,2033,0,ɑ
1778661057.517944,2131,0,ɑ
1778661057.519521,2065,0,ɑ
1778661057.5209222,2028,0,ɑ
1778661057.523566,2210,0,ɑ
1778661057.52491,2141,0,ɑ
1778661057.527591,1906,0,ɑ
1778661057.532734,1748,0,ɑ
1778661057.5369291,2014,0,ɑ
1778661057.53744,2158,0,ɑ
1778661057.5385458,2080,0,ɑ
1778661057.538971,1948,0,ɑ
1778661057.539478,2141,0,ɑ
1778661057.541635,2235,0,ɑ
1778661057.544479,1991,0,ɑ
1778661057.5446022,1662,0,ɑ
1778661057.547133,1903,0,ɑ
1778661057.5486012,2070,0,ɑ
1778661057.556648,2124,0,ɑ
1778661057.557879,1967,0,ɑ
1778661057.558159,2095,0,ɑ
1778661057.558348,2201,0,ɑ
1778661057.560426,2103,0,ɑ
1778661057.5609212,1806,0,ɑ
1778661057.5666418,1643,0,ɑ
1778661057.56707,1980,0,ɑ
1778661057.5673442,2136,0,ɑ
1778661057.569055,2038,0,ɑ
1778661057.5708008,1992,0,ɑ
1778661057.573421,2176,0,ɑ
1778661057.574754,2024,0,ɑ
1778661057.5773818,1891,0,ɑ
1778661057.578758,1831,0,ɑ
1778661057.585071,2113,0,ɑ
1778661057.5860329,2057,0,ɑ
1778661057.587404,2046,0,ɑ
1778661057.587594,1990,0,ɑ
1778661057.589642,2132,0,ɑ
1778661057.593142,2153,0,ɑ
1778661057.595809,1898,0,ɑ
1778661057.598457,1688,0,ɑ
1778661057.598733,1900,0,ɑ
1778661057.5988412,2047,0,ɑ
1778661057.600632,2110,0,ɑ
1778661057.6070368,2018,0,ɑ
1778661057.608025,2073,0,ɑ
1778661057.6102998,2170,0,ɑ
1778661057.610442,2197,0,ɑ
1778661057.61058,1800,0,ɑ
1778661057.618805,1744,0,ɑ
1778661057.619065,2023,0,ɑ
1778661057.619423,2150,0,ɑ
1778661057.619932,2097,0,ɑ
1778661057.621969,2023,0,ɑ
1778661057.623465,2189,0,ɑ
1778661057.624755,2124,0,ɑ
1778661057.627372,1884,0,ɑ
1778661057.628768,1730,0,ɑ
1778661057.631922,2049,0,ɑ
1778661057.641799,2174,0,ɑ
1778661057.6428668,2145,0,ɑ
1778661057.6433978,2020,0,ɑ
1778661057.6438951,2147,0,ɑ
1778661057.644567,2233,0,ɑ
1778661057.64715,1954,0,ɑ
1778661057.64974,1733,0,ɑ
1778661057.649919,1943,0,ɑ
1778661057.6503701,2072,0,ɑ
1778661057.6507561,2165,0,ɑ
1778661057.6540842,2046,0,ɑ
1778661057.655741,2101,0,ɑ
1778661057.66188,2237,0,ɑ
1778661057.6629472,2060,0,ɑ
1778661057.665123,1809,0,ɑ
1778661057.668781,1838,0,ɑ
1778661057.669711,2052,0,ɑ
1778661057.671513,2141,0,ɑ
1778661057.674162,2103,0,ɑ
1778661057.674498,2050,0,ɑ
1778661057.674639,2200,0,ɑ
1778661057.674927,2160,0,ɑ
1778661057.677081,1871,0,ɑ
1778661057.6786618,1707,0,ɑ
1778661057.681518,2023,0,ɑ
1778661057.68293,2166,0,ɑ
1778661057.685598,2097,0,ɑ
1778661057.686811,1987,0,ɑ
1778661057.6939478,2153,0,ɑ
1778661057.695503,2193,0,ɑ
1778661057.6955829,1978,0,ɑ
1778661057.697648,1743,0,ɑ
1778661057.698626,1916,0,ɑ
1778661057.6999621,2081,0,ɑ
1778661057.7051442,2128,0,ɑ
1778661057.707513,2028,0,ɑ
1778661057.707558,2071,0,ɑ
1778661057.707587,2219,0,ɑ
1778661057.708884,2067,0,ɑ
1778661057.710496,1820,0,ɑ
1778661057.718287,1809,0,ɑ
1778661057.7202501,2056,0,ɑ
1778661057.720674,2124,0,ɑ
1778661057.723914,2098,0,ɑ
1778661057.725047,2011,0,ɑ
1778661057.725611,2201,0,ɑ
1778661057.726096,2127,0,ɑ
1778661057.727892,1915,0,ɑ
1778661057.7310379,1744,0,ɑ
1778661057.7311912,2022,0,ɑ
1778661057.7336059,2150,0,ɑ
1778661057.734983,2131,0,ɑ
1778661057.7364328,1953,0,ɑ
1778661057.73892,2138,0,ɑ
1778661057.741673,2332,0,ɑ
1778661057.742788,1863,0,ɑ
1778661057.7499788,1561,0,ɑ
1778661057.75108,1978,0,ɑ
1778661057.752657,2177,0,ɑ
1778661057.752815,2127,0,ɑ
1778661057.755044,1926,0,ɑ
1778661057.755748,2131,0,ɑ
1778661057.759439,2287,0,ɑ
1778661057.7622788,2080,0,ɑ
1778661057.762798,1779,0,ɑ
1778661057.763476,1686,0,ɑ
1778661057.766442,1823,0,ɑ
1778661057.7666008,1992,0,ɑ
1778661057.76922,2345,0,ɑ
1778661057.775392,2297,0,ɑ
1778661057.7759209,1845,0,ɑ
1778661057.7784908,1942,0,ɑ
1778661057.778881,1828,0,ɑ
1778661057.7824461,1913,0,ɑ
1778661057.784368,2316,0,ɑ
1778661057.789279,1989,0,ɑ
1778661057.791831,2024,0,ɑ
1778661057.7922518,1859,0,ɑ
1778661057.792348,2072,0,ɑ
1778661057.79246,2259,0,ɑ
1778661057.792523,1763,0,ɑ
1778661057.795242,1384,0,ɑ
1778661057.79673,2140,0,ɑ
1778661057.799446,2170,0,ɑ
1778661057.800788,2302,0,ɑ
1778661057.8034089,2297,0,ɑ
1778661057.809878,2124,0,ɑ
1778661057.81282,2389,0,ɑ
1778661057.813102,2184,0,ɑ
1778661057.8136342,1771,0,ɑ
1778661057.815354,1884,0,ɑ
1778661057.817089,1887,0,ɑ
1778661057.819474,1942,0,ɑ
1778661057.819604,1831,0,ɑ
1778661057.824141,1915,0,ɑ
1778661057.824338,2282,0,ɑ
1778661057.824605,2276,0,ɑ
1778661057.8270211,2104,0,ɑ
1778661057.828504,1951,0,ɑ
1778661057.831109,1572,0,ɑ
1778661057.837274,1783,0,ɑ
1778661057.838409,2312,0,ɑ
1778661057.8411572,2088,0,ɑ
1778661057.843282,2017,0,ɑ
1778661057.843882,2124,0,ɑ
1778661057.844479,1957,0,ɑ
1778661057.848746,1788,0,ɑ
1778661057.8518798,2141,0,ɑ
1778661057.852339,2245,0,ɑ
1778661057.85264,1931,0,ɑ
1778661057.854471,1518,0,ɑ
1778661057.855127,2077,0,ɑ
1778661057.8564942,2420,0,ɑ
1778661057.859211,2050,0,ɑ
1778661057.8605812,1923,0,ɑ
1778661057.863203,2055,0,ɑ
1778661057.864605,1949,0,ɑ
1778661057.872788,2216,0,ɑ
1778661057.875594,2217,0,ɑ
1778661057.8784058,2425,0,ɑ
1778661057.8824582,2189,0,ɑ
1778661057.8825002,1706,0,ɑ
1778661057.882535,1823,0,ɑ
1778661057.882567,1902,0,ɑ
1778661057.882598,2148,0,ɑ
1778661057.882664,2142,0,ɑ
1778661057.8858361,2150,0,ɑ
1778661057.8885949,2205,0,ɑ
1778661057.8887591,2147,0,ɑ
1778661057.8915148,2341,0,ɑ
1778661057.892941,2032,0,ɑ
1778661057.89922,1760,0,ɑ
1778661057.9003022,1492,0,ɑ
1778661057.902098,1848,0,ɑ
1778661057.905031,2449,0,ɑ
1778661057.905639,2367,0,ɑ
1778661057.905772,2366,0,ɑ
1778661057.909336,2022,0,ɑ
1778661057.9096699,2067,0,ɑ
1778661057.912985,1981,0,ɑ
1778661057.91377,1954,0,ɑ
1778661057.9162922,2148,0,ɑ
1778661057.916489,2150,0,ɑ
1778661057.919116,2038,0,ɑ
1778661057.920459,1948,0,ɑ
1778661057.923111,2137,0,ɑ
1778661057.924454,2166,0,ɑ
1778661057.927095,1964,0,ɑ
1778661057.933352,1756,0,ɑ
1778661057.935009,2102,0,ɑ
1778661057.936733,2256,0,ɑ
1778661057.936943,2036,0,ɑ
1778661057.9372458,1902,0,ɑ
1778661057.940056,2092,0,ɑ
1778661057.9438589,2274,0,ɑ
1778661057.944151,1991,0,ɑ
1778661057.949868,1843,0,ɑ
1778661057.9502301,1886,0,ɑ
1778661057.950325,2053,0,ɑ
1778661057.9504268,2286,0,ɑ
1778661057.953033,2022,0,ɑ
1778661057.954531,2005,0,ɑ
1778661057.958698,2289,0,ɑ
1778661057.960771,2249,0,ɑ
1778661057.965749,1784,0,ɑ
1778661057.966502,1748,0,ɑ
1778661057.9674702,2121,0,ɑ
1778661057.968128,2173,0,ɑ
1778661057.970819,2213,0,ɑ
1778661057.973953,2082,0,ɑ
1778661057.9741309,2272,0,ɑ
1778661057.9766521,2169,0,ɑ
1778661057.9768991,1800,0,ɑ
1778661057.979755,1622,0,ɑ
1778661057.981117,2201,0,ɑ
1778661057.9824378,2287,0,ɑ
1778661057.985142,2218,0,ɑ
1778661057.986495,1819,0,ɑ
1778661057.993422,2129,0,ɑ
1778661057.993949,2368,0,ɑ
1778661057.994575,2091,0,ɑ
1778661057.996593,1644,0,ɑ
1778661057.998753,1912,0,ɑ
1778661057.999721,2078,0,ɑ
1778661058.001405,2262,0,ɑ
1778661058.003371,2084,0,ɑ
1778661058.0062149,2104,0,ɑ
1778661058.0088582,2363,0,ɑ
1778661058.00892,2306,0,ɑ
1778661058.0115771,2002,0,ɑ
1778661058.0129201,1823,0,ɑ
1778661058.0196989,2149,0,ɑ
1778661058.022146,1000,0,ɑ
1778661058.022515,2053,0,ɑ
1778661058.02514,2755,0,ɑ
1778661058.0272372,2606,0,ɑ
1778661058.027841,2165,0,ɑ
1778661058.030028,1764,0,ɑ
1778661058.033241,1701,0,ɑ
1778661058.0335941,2624,0,ɑ
1778661058.033957,2308,0,ɑ
1778661058.0364459,2073,0,ɑ
1778661058.036683,2235,0,ɑ
1778661058.039409,2063,0,ɑ
1778661058.0407948,2386,0,ɑ
1778661058.043433,2117,0,ɑ
1778661058.044747,1698,0,ɑ
1778661058.047384,2418,0,ɑ
1778661058.0537999,2054,0,ɑ
1778661058.05441,1970,0,ɑ
1778661058.0553331,2671,0,ɑ
1778661058.055446,2438,0,ɑ
1778661058.057,2252,0,ɑ
1778661058.0593731,2335,0,ɑ
1778661058.061295,2142,0,ɑ
1778661058.063766,2169,0,ɑ
1778661058.066734,2449,0,ɑ
1778661058.066978,2355,0,ɑ
1778661058.069511,2381,0,ɑ
1778661058.070855,2439,0,ɑ
1778661058.0734231,2353,0,ɑ
1778661058.07818,2313,0,ɑ
1778661058.078656,2043,0,ɑ
1778661058.079521,1873,0,ɑ
1778661058.0817358,2317,0,ɑ
1778661058.0833862,2511,0,ɑ
1778661058.0848799,2504,0,ɑ
1778661058.0873349,2194,0,ɑ
1778661058.089969,2435,0,ɑ
1778661058.092245,2342,0,ɑ
1778661058.093587,2058,0,ɑ
1778661058.0950122,2217,0,ɑ
1778661058.0963871,2326,0,ɑ
1778661058.0988958,2272,0,ɑ
1778661058.101515,2364,0,ɑ
1778661058.108168,2370,0,ɑ
1778661058.108667,2321,0,ɑ
1778661058.109129,2294,0,ɑ
1778661058.1104808,2239,0,ɑ
1778661058.110548,2163,0,ɑ
1778661058.1136498,1958,0,ɑ
1778661058.116382,2396,0,ɑ
1778661058.119037,2434,0,ɑ
1778661058.1192698,2474,0,ɑ
1778661058.121453,2370,0,ɑ
1778661058.122717,2476,0,ɑ
1778661058.1252851,2349,0,ɑ
1778661058.1305358,2215,0,ɑ
1778661058.13095,2007,0,ɑ
1778661058.131444,2497,0,ɑ
1778661058.1327791,2407,0,ɑ
1778661058.134447,1559,0,ɑ
1778661058.13838,2506,0,ɑ
1778661058.141013,2656,0,ɑ
1778661058.141249,2477,0,ɑ
1778661058.143382,2283,0,ɑ
1778661058.144694,1992,0,ɑ
1778661058.1473122,1969,0,ɑ
1778661058.148612,2263,0,ɑ
1778661058.15099,2375,0,ɑ
1778661058.153554,2161,0,ɑ
1778661058.158396,2445,0,ɑ
1778661058.158825,2574,0,ɑ
1778661058.159738,2251,0,ɑ
1778661058.161119,2076,0,ɑ
1778661058.1634,2080,0,ɑ
1778661058.166825,2224,0,ɑ
1778661058.166971,1991,0,ɑ
1778661058.169543,2248,0,ɑ
1778661058.171597,2203,0,ɑ
1778661058.1729002,2172,0,ɑ
1778661058.175458,2184,0,ɑ
1778661058.182828,2158,0,ɑ
1778661058.1830862,1982,0,ɑ
1778661058.184617,2036,0,ɑ
1778661058.185038,2358,0,ɑ
1778661058.185153,2418,0,ɑ
1778661058.186731,2170,0,ɑ
1778661058.188627,2262,0,ɑ
1778661058.191123,2344,0,ɑ
1778661058.192796,2081,0,ɑ
1778661058.1954088,1795,0,ɑ
1778661058.196697,2023,0,ɑ
1778661058.199253,2167,0,ɑ
1778661058.2005498,2145,0,ɑ
1778661058.206746,2004,0,ɑ
1778661058.207927,2368,0,ɑ
1778661058.2096949,2396,0,ɑ
1778661058.210994,2220,0,ɑ
1778661058.211987,1701,0,ɑ
1778661058.214965,1704,0,ɑ
1778661058.217464,2348,0,ɑ
1778661058.217568,2443,0,ɑ
1778661058.219768,2256,0,ɑ
1778661058.221073,2164,0,ɑ
1778661058.2223659,2238,0,ɑ
1778661058.2280629,2254,0,ɑ
1778661058.228502,1976,0,ɑ
1778661058.230371,1759,0,ɑ
1778661058.2305439,2093,0,ɑ
1778661058.2338119,2205,0,ɑ
1778661058.235921,2175,0,ɑ
1778661058.23872,2051,0,ɑ
1778661058.238871,2253,0,ɑ
1778661058.240623,2326,0,ɑ
1778661058.243194,1969,0,ɑ
1778661058.244576,1847,0,ɑ
1778661058.247148,2012,0,ɑ
1778661058.248446,2011,0,ɑ
1778661058.255309,2327,0,ɑ
1778661058.256141,2063,0,ɑ
1778661058.257364,1955,0,ɑ
1778661058.257526,2263,0,ɑ
1778661058.259397,2073,0,ɑ
1778661058.260742,1827,0,ɑ
1778661058.265227,1806,0,ɑ
1778661058.265289,2066,0,ɑ
1778661058.2670772,2177,0,ɑ
1778661058.268376,2119,0,ɑ
1778661058.2709382,2008,0,ɑ
1778661058.275532,2242,0,ɑ
1778661058.2759612,2235,0,ɑ
1778661058.278229,1923,0,ɑ
1778661058.280898,1677,0,ɑ
1778661058.281365,2016,0,ɑ
1778661058.283746,2158,0,ɑ
1778661058.2862809,1915,0,ɑ
1778661058.2865841,1960,0,ɑ
1778661058.289419,2262,0,ɑ
1778661058.290727,2460,0,ɑ
1778661058.293282,2040,0,ɑ
1778661058.2945778,1758,0,ɑ
1778661058.297051,1940,0,ɑ
1778661058.302322,2033,0,ɑ
1778661058.303138,2277,0,ɑ
1778661058.304811,2120,0,ɑ
1778661058.304895,2106,0,ɑ
1778661058.306412,2278,0,ɑ
1778661058.309959,2169,0,ɑ
1778661058.312947,1823,0,ɑ
1778661058.315062,1758,0,ɑ
1778661058.315246,2046,0,ɑ
1778661058.316554,2244,0,ɑ
1778661058.319113,2080,0,ɑ
1778661058.323612,2056,0,ɑ
1778661058.323693,2359,0,ɑ
1778661058.325695,2123,0,ɑ
1778661058.32713,1863,0,ɑ
1778661058.330564,1769,0,ɑ
1778661058.33075,1945,0,ɑ
1778661058.33331,2110,0,ɑ
1778661058.335235,2189,0,ɑ
1778661058.336548,2004,0,ɑ
1778661058.339096,2086,0,ɑ
1778661058.340384,2214,0,ɑ
1778661058.3429341,1983,0,ɑ
1778661058.344311,1759,0,ɑ
1778661058.349231,1902,0,ɑ
1778661058.3497658,2047,0,ɑ
1778661058.3511522,2127,0,ɑ
1778661058.353024,2079,0,ɑ
1778661058.3545358,2058,0,ɑ
1778661058.358475,2222,0,ɑ
1778661058.358698,2102,0,ɑ
1778661058.3606029,1828,0,ɑ
1778661058.363289,1737,0,ɑ
1778661058.364619,2026,0,ɑ
1778661058.36717,2283,0,ɑ
1778661058.368462,2109,0,ɑ
1778661058.3732538,1919,0,ɑ
1778661058.373661,2128,0,ɑ
1778661058.376281,2144,0,ɑ
1778661058.3763719,1887,0,ɑ
1778661058.380977,1670,0,ɑ
1778661058.3810802,1941,0,ɑ
1778661058.3835971,2081,0,ɑ
1778661058.385584,2119,0,ɑ
1778661058.3868842,1980,0,ɑ
1778661058.38959,2087,0,ɑ
1778661058.393952,2206,0,ɑ
1778661058.394024,2009,0,ɑ
1778661058.397606,1753,0,ɑ
1778661058.3979788,1847,0,ɑ
1778661058.400165,2030,0,ɑ
1778661058.401491,2102,0,ɑ
1778661058.403896,2016,0,ɑ
1778661058.4058392,2014,0,ɑ
1778661058.40714,2225,0,ɑ
1778661058.408428,2115,0,ɑ
1778661058.410835,1854,0,ɑ
1778661058.413483,1757,0,ɑ
1778661058.414915,2017,0,ɑ
1778661058.419664,2097,0,ɑ
1778661058.4201431,2068,0,ɑ
1778661058.420584,1898,0,ɑ
1778661058.423549,2168,0,ɑ
1778661058.425312,2195,0,ɑ
1778661058.426704,1865,0,ɑ
1778661058.431198,1656,0,ɑ
1778661058.431343,1948,0,ɑ
1778661058.432639,2063,0,ɑ
1778661058.4352,2136,0,ɑ
1778661058.439281,1976,0,ɑ
1778661058.4397461,2087,0,ɑ
1778661058.4421382,2201,0,ɑ
1778661058.442345,1977,0,ɑ
1778661058.4476218,1727,0,ɑ
1778661058.450557,1806,0,ɑ
1778661058.450711,2054,0,ɑ
1778661058.450916,2155,0,ɑ
1778661058.4530702,2005,0,ɑ
1778661058.454371,2090,0,ɑ
1778661058.456922,2231,0,ɑ
1778661058.458267,2119,0,ɑ
1778661058.460829,1849,0,ɑ
1778661058.4666061,1687,0,ɑ
1778661058.4679072,1925,0,ɑ
1778661058.4683259,2129,0,ɑ
1778661058.469573,2118,0,ɑ
1778661058.4718459,1990,0,ɑ
1778661058.4769971,2149,0,ɑ
1778661058.477081,2135,0,ɑ
1778661058.477395,1898,0,ɑ
1778661058.479445,1706,0,ɑ
1778661058.4807732,1957,0,ɑ
1778661058.487173,2093,0,ɑ
1778661058.4875672,2133,0,ɑ
1778661058.487941,1988,0,ɑ
1778661058.489331,2070,0,ɑ
1778661058.490751,2163,0,ɑ
1778661058.494273,2001,0,ɑ
1778661058.4994361,1810,0,ɑ
1778661058.4994729,1802,0,ɑ
1778661058.499501,1995,0,ɑ
1778661058.500927,2158,0,ɑ
1778661058.502401,2088,0,ɑ
1778661058.504964,2048,0,ɑ
1778661058.506301,2229,0,ɑ
1778661058.5120032,2101,0,ɑ
1778661058.513348,1841,0,ɑ
1778661058.5149288,1733,0,ɑ
1778661058.515152,2025,0,ɑ
1778661058.516916,2140,0,ɑ
1778661058.52021,2112,0,ɑ
1778661058.522727,1983,0,ɑ
1778661058.523218,2176,0,ɑ
1778661058.524967,2171,0,ɑ
1778661058.526366,1918,0,ɑ
1778661058.5289621,1704,0,ɑ
1778661058.533484,1975,0,ɑ
1778661058.536212,2112,0,ɑ
1778661058.536492,2149,0,ɑ
1778661058.5377479,2013,0,ɑ
1778661058.5400279,2103,0,ɑ
1778661058.541696,2233,0,ɑ
1778661058.544085,2027,0,ɑ
1778661058.546016,1765,0,ɑ
1778661058.547192,1862,0,ɑ
1778661058.548485,2037,0,ɑ
1778661058.551046,2137,0,ɑ
1778661058.5523431,2076,0,ɑ
1778661058.554893,2078,0,ɑ
1778661058.559906,2264,0,ɑ
1778661058.561075,2158,0,ɑ
1778661058.562475,1881,0,ɑ
1778661058.564558,1759,0,ɑ
1778661058.5649312,2040,0,ɑ
1778661058.566713,2155,0,ɑ
1778661058.5706592,2147,0,ɑ
1778661058.5707798,2010,0,ɑ
1778661058.5726058,2198,0,ɑ
1778661058.57516,2173,0,ɑ
1778661058.576449,1937,0,ɑ
1778661058.580863,1708,0,ɑ
1778661058.58132,1979,0,ɑ
1778661058.583349,2110,0,ɑ
1778661058.5852292,2145,0,ɑ
1778661058.5867462,1991,0,ɑ
1778661058.588327,2073,0,ɑ
1778661058.590679,2219,0,ɑ
1778661058.592363,2006,0,ɑ
1778661058.595264,1754,0,ɑ
1778661058.596577,1833,0,ɑ
1778661058.599127,2032,0,ɑ
1778661058.600429,2144,0,ɑ
1778661058.605644,2094,0,ɑ
1778661058.6057448,2056,0,ɑ
1778661058.608122,2215,0,ɑ
1778661058.6096509,2156,0,ɑ
1778661058.611508,1880,0,ɑ
1778661058.615502,1756,0,ɑ
1778661058.615586,2054,0,ɑ
1778661058.617586,2142,0,ɑ
1778661058.618897,2123,0,ɑ
1778661058.621449,2005,0,ɑ
1778661058.622735,2171,0,ɑ
1778661058.625292,2192,0,ɑ
1778661058.6265879,1970,0,ɑ
1778661058.630952,1734,0,ɑ
1778661058.631008,1977,0,ɑ
1778661058.633437,2112,0,ɑ
1778661058.63532,2176,0,ɑ
1778661058.6385112,2105,0,ɑ
1778661058.6386611,2096,0,ɑ
1778661058.641054,2253,0,ɑ
1778661058.642661,2069,0,ɑ
1778661058.645257,1833,0,ɑ
1778661058.646558,1842,0,ɑ
1778661058.64903,2023,0,ɑ
1778661058.650325,2177,0,ɑ
1778661058.656348,2133,0,ɑ
1778661058.656426,2126,0,ɑ
1778661058.657142,2250,0,ɑ
1778661058.658593,2174,0,ɑ
1778661058.661443,1922,0,ɑ
1778661058.665867,1779,0,ɑ
1778661058.665992,2105,0,ɑ
1778661058.6679559,2239,0,ɑ
1778661058.6692631,2192,0,ɑ
1778661058.6705542,1822,0,ɑ
1778661058.673159,2114,0,ɑ
1778661058.674449,2217,0,ɑ
1778661058.676857,1953,0,ɑ
1778661058.6804821,1695,0,ɑ
1778661058.6809332,1925,0,ɑ
1778661058.6828558,2131,0,ɑ
1778661058.68509,2164,0,ɑ
1778661058.687726,2026,0,ɑ
1778661058.689968,2132,0,ɑ
1778661058.691799,2264,0,ɑ
1778661058.69309,2107,0,ɑ
1778661058.6943831,1762,0,ɑ
1778661058.696943,1835,0,ɑ
1778661058.698276,2032,0,ɑ
1778661058.703967,2169,0,ɑ
1778661058.704055,2123,0,ɑ
1778661058.706252,2120,0,ɑ
1778661058.706356,2260,0,ɑ
1778661058.709676,2125,0,ɑ
1778661058.7134342,1885,0,ɑ
1778661058.71353,1738,0,ɑ
1778661058.7153192,2002,0,ɑ
1778661058.7166212,2142,0,ɑ
1778661058.7191749,2155,0,ɑ
1778661058.720468,2097,0,ɑ
1778661058.7230139,2264,0,ɑ
1778661058.727747,2207,0,ɑ
1778661058.728482,1958,0,ɑ
1778661058.7292318,1738,0,ɑ
1778661058.730676,2019,0,ɑ
1778661058.7339158,2126,0,ɑ
1778661058.737646,2145,0,ɑ
1778661058.737795,2031,0,ɑ
1778661058.7397928,2117,0,ɑ
1778661058.741087,2244,0,ɑ
1778661058.742378,2030,0,ɑ
1778661058.7449548,1857,0,ɑ
1778661058.746279,2010,0,ɑ
1778661058.752223,2054,0,ɑ
1778661058.752596,2087,0,ɑ
1778661058.752675,2075,0,ɑ
1778661058.754675,1998,0,ɑ
1778661058.757946,2258,0,ɑ
1778661058.7613308,2134,0,ɑ
1778661058.761515,1858,0,ɑ
1778661058.763306,1756,0,ɑ
1778661058.7645938,2043,0,ɑ
1778661058.767154,2139,0,ɑ
1778661058.7684429,2130,0,ɑ
1778661058.770945,2007,0,ɑ
1778661058.772235,2208,0,ɑ
1778661058.7774878,2136,0,ɑ
1778661058.777938,1820,0,ɑ
1778661058.77934,1787,0,ɑ
1778661058.780685,2052,0,ɑ
1778661058.7837381,2152,0,ɑ
1778661058.785933,2025,0,ɑ
1778661058.787866,1917,0,ɑ
1778661058.78916,2272,0,ɑ
1778661058.790446,2335,0,ɑ
1778661058.792989,2018,0,ɑ
1778661058.7942731,1679,0,ɑ
1778661058.80047,1838,0,ɑ
1778661058.8008451,2147,0,ɑ
1778661058.800941,2234,0,ɑ
1778661058.802988,2040,0,ɑ
1778661058.804826,1975,0,ɑ
1778661058.807565,2244,0,ɑ
1778661058.809676,2173,0,ɑ
1778661058.811457,1849,0,ɑ
1778661058.8129091,1631,0,ɑ
1778661058.814375,2102,0,ɑ
1778661058.8169339,2148,0,ɑ
1778661058.818228,2121,0,ɑ
1778661058.8234591,2276,0,ɑ
1778661058.824399,2076,0,ɑ
1778661058.8250492,2075,0,ɑ
1778661058.8281128,1927,0,ɑ
1778661058.8308742,1759,0,ɑ
1778661058.830977,1867,0,ɑ
1778661058.833279,2042,0,ɑ
1778661058.835099,1999,0,ɑ
1778661058.836611,2002,0,ɑ
1778661058.8391628,2112,0,ɑ
1778661058.840449,2212,0,ɑ
1778661058.842997,1953,0,ɑ
1778661058.8476312,1725,0,ɑ
1778661058.8481011,2019,0,ɑ
1778661058.848534,2129,0,ɑ
1778661058.851846,2123,0,ɑ
1778661058.8544252,2033,0,ɑ
1778661058.8545752,2040,0,ɑ
1778661058.856738,2276,0,ɑ
1778661058.858516,2184,0,ɑ
1778661058.861066,1898,0,ɑ
1778661058.862422,1724,0,ɑ
1778661058.864949,1932,0,ɑ
1778661058.86627,2069,0,ɑ
1778661058.8703911,2134,0,ɑ
1778661058.871089,2009,0,ɑ
1778661058.872714,2201,0,ɑ
1778661058.874479,2167,0,ɑ
1778661058.884778,1944,0,ɑ
1778661058.886472,1722,0,ɑ
1778661058.886792,1954,0,ɑ
1778661058.8870258,2080,0,ɑ
1778661058.887058,2104,0,ɑ
1778661058.8870862,1975,0,ɑ
1778661058.890353,2080,0,ɑ
1778661058.892469,2235,0,ɑ
1778661058.89277,2057,0,ɑ
1778661058.895021,1803,0,ɑ
1778661058.896783,1863,0,ɑ
1778661058.902216,2043,0,ɑ
1778661058.902642,2069,0,ɑ
1778661058.90274,2020,0,ɑ
1778661058.904782,2018,0,ɑ
1778661058.90716,2168,0,ɑ
1778661058.9105432,2098,0,ɑ
1778661058.910649,1863,0,ɑ
1778661058.912659,1779,0,ɑ
1778661058.9152389,1999,0,ɑ
1778661058.916533,2113,0,ɑ
1778661058.9190888,2169,0,ɑ
1778661058.920406,1945,0,ɑ
1778661058.924822,2130,0,ɑ
1778661058.925575,2180,0,ɑ
1778661058.927273,1974,0,ɑ
1778661058.929603,1750,0,ɑ
1778661058.932002,1888,0,ɑ
1778661058.9342132,2019,0,ɑ
1778661058.934407,2105,0,ɑ
1778661058.937064,2020,0,ɑ
1778661058.938352,2087,0,ɑ
1778661058.940914,2242,0,ɑ
1778661058.9422212,2005,0,ɑ
1778661058.94493,1921,0,ɑ
1778661058.9486752,1697,0,ɑ
1778661058.9491131,1834,0,ɑ
1778661058.951085,1923,0,ɑ
1778661058.953127,2083,0,ɑ
1778661058.954653,2117,0,ɑ
1778661058.9578161,2298,0,ɑ
1778661058.9597068,1921,0,ɑ
1778661058.961011,1669,0,ɑ
1778661058.9624069,1878,0,ɑ
1778661058.964988,1916,0,ɑ
1778661058.966229,2153,0,ɑ
1778661058.9724312,2103,0,ɑ
1778661058.9740531,1971,0,ɑ
1778661058.974259,2158,0,ɑ
1778661058.9756181,2127,0,ɑ
1778661058.9772851,1996,0,ɑ
1778661058.978865,1951,0,ɑ
1778661058.982532,1865,0,ɑ
1778661058.982968,1868,0,ɑ
1778661058.984267,1954,0,ɑ
1778661058.986818,2206,0,ɑ
1778661058.9881961,2249,0,ɑ
1778661058.990744,2185,0,ɑ
1778661058.995362,1771,0,ɑ
1778661058.997678,1648,0,ɑ
1778661058.997761,1802,0,ɑ
1778661058.999145,2082,0,ɑ
1778661059.0009868,2077,0,ɑ
1778661059.002458,1831,0,ɑ
1778661059.004724,2037,0,ɑ
1778661059.006486,2273,0,ɑ
1778661059.009043,2010,0,ɑ
1778661059.010338,1760,0,ɑ
1778661059.012928,1871,0,ɑ
1778661059.0142279,2105,0,ɑ
1778661059.01872,2221,0,ɑ
1778661059.019441,2044,0,ɑ
1778661059.021109,2018,0,ɑ
1778661059.023442,2195,0,ɑ
1778661059.0257149,2055,0,ɑ
1778661059.028009,1918,0,ɑ
1778661059.030166,1551,0,ɑ
1778661059.0303402,2017,0,ɑ
1778661059.032973,2048,0,ɑ
1778661059.034271,2163,0,ɑ
1778661059.036918,1968,0,ɑ
1778661059.038253,1971,0,ɑ
1778661059.0428119,2057,0,ɑ
1778661059.043631,1998,0,ɑ
1778661059.04705,1844,0,ɑ
1778661059.0479412,1942,0,ɑ
1778661059.050425,2007,0,ɑ
1778661059.052774,2082,0,ɑ
1778661059.05297,2062,0,ɑ
1778661059.054933,1948,0,ɑ
1778661059.0564978,2254,0,ɑ
1778661059.059051,2124,0,ɑ
1778661059.060336,1755,0,ɑ
1778661059.0631099,1600,0,ɑ
1778661059.0683289,1911,0,ɑ
1778661059.068775,2098,0,ɑ
1778661059.0704992,2214,0,ɑ
1778661059.0706491,1970,0,ɑ
1778661059.072212,1995,0,ɑ
1778661059.0755022,2073,0,ɑ
1778661059.077611,1993,0,ɑ
1778661059.079797,1786,0,ɑ
1778661059.081001,1883,0,ɑ
1778661059.082308,2044,0,ɑ
1778661059.084877,2176,0,ɑ
1778661059.0861819,1991,0,ɑ
1778661059.093187,2059,0,ɑ
1778661059.0937338,2175,0,ɑ
1778661059.09458,1948,0,ɑ
1778661059.096033,1633,0,ɑ
1778661059.098148,1732,0,ɑ
1778661059.0989141,1966,0,ɑ
1778661059.101325,2038,0,ɑ
1778661059.103612,1962,0,ɑ
1778661059.1056871,1871,0,ɑ
1778661059.1069791,2539,0,ɑ
1778661059.108435,2320,0,ɑ
1778661059.114002,1670,0,ɑ
1778661059.1153228,1751,0,ɑ
1778661059.117059,2123,0,ɑ
1778661059.117483,1903,0,ɑ
1778661059.120401,1862,0,ɑ
1778661059.122566,1967,0,ɑ
1778661059.122689,2148,0,ɑ
1778661059.124597,2324,0,ɑ
1778661059.126168,1983,0,ɑ
1778661059.1287282,1946,0,ɑ
1778661059.13132,1995,0,ɑ
1778661059.132617,1831,0,ɑ
1778661059.1383018,2198,0,ɑ
1778661059.139138,2120,0,ɑ
1778661059.1407301,2257,0,ɑ
1778661059.141013,2123,0,ɑ
1778661059.142754,1648,0,ɑ
1778661059.1480372,2075,0,ɑ
1778661059.148167,2121,0,ɑ
1778661059.148293,2159,0,ɑ
1778661059.15119,2087,0,ɑ
1778661059.1524942,2376,0,ɑ
1778661059.1586611,1874,0,ɑ
1778661059.159369,1765,0,ɑ
1778661059.159482,2112,0,ɑ
1778661059.1609678,1846,0,ɑ
1778661059.162625,1677,0,ɑ
1778661059.1646771,1926,0,ɑ
1778661059.1665332,2092,0,ɑ
1778661059.168989,2237,0,ɑ
1778661059.171021,2261,0,ɑ
1778661059.172338,2226,0,ɑ
1778661059.174885,2069,0,ɑ
1778661059.176163,1951,0,ɑ
1778661059.178715,1852,0,ɑ
1778661059.183412,1965,0,ɑ
1778661059.184167,2032,0,ɑ
1778661059.184244,2047,0,ɑ
1778661059.186342,2061,0,ɑ
1778661059.189596,2283,0,ɑ
1778661059.190987,2367,0,ɑ
1778661059.193068,2184,0,ɑ
1778661059.195044,1885,0,ɑ
1778661059.19647,1799,0,ɑ
1778661059.198951,2025,0,ɑ
1778661059.2002509,2166,0,ɑ
1778661059.2027981,2090,0,ɑ
1778661059.207249,2090,0,ɑ
1778661059.2084339,2289,0,ɑ
1778661059.2088351,2166,0,ɑ
1778661059.210384,1921,0,ɑ
1778661059.213987,1753,0,ɑ
1778661059.217281,2042,0,ɑ
1778661059.217417,2221,0,ɑ
1778661059.2193432,2113,0,ɑ
1778661059.2206452,1973,0,ɑ
1778661059.2230332,2118,0,ɑ
1778661059.224333,2218,0,ɑ
1778661059.226964,1988,0,ɑ
1778661059.2282739,1727,0,ɑ
1778661059.23182,1919,0,ɑ
1778661059.233272,2063,0,ɑ
1778661059.235476,2147,0,ɑ
1778661059.237375,2034,0,ɑ
1778661059.2391949,2085,0,ɑ
1778661059.241314,2243,0,ɑ
1778661059.243208,2090,0,ɑ
1778661059.244499,1808,0,ɑ
1778661059.2469351,1805,0,ɑ
1778661059.248229,2031,0,ɑ
1778661059.250777,2143,0,ɑ
1778661059.2552881,2101,0,ɑ
1778661059.255326,2047,0,ɑ
1778661059.256796,2225,0,ɑ
1778661059.259617,2146,0,ɑ
1778661059.26144,1916,0,ɑ
1778661059.264909,1719,0,ɑ
1778661059.265051,1988,0,ɑ
1778661059.266995,2100,0,ɑ
1778661059.268296,2150,0,ɑ
1778661059.2708511,2042,0,ɑ
1778661059.272197,2100,0,ɑ
1778661059.274752,2175,0,ɑ
1778661059.280352,2045,0,ɑ
1778661059.28147,1728,0,ɑ
1778661059.281556,1945,0,ɑ
1778661059.283395,2037,0,ɑ
1778661059.285085,2081,0,ɑ
1778661059.288497,2022,0,ɑ
1778661059.2886899,2130,0,ɑ
1778661059.2905548,2308,0,ɑ
1778661059.293109,2052,0,ɑ
1778661059.294403,1723,0,ɑ
1778661059.2969952,1720,0,ɑ
1778661059.298283,2166,0,ɑ
1778661059.334722,2111,0,ɑ
1778661059.341713,2049,0,ɑ
1778661059.341936,2128,0,ɑ
1778661059.3419788,2178,0,ɑ
1778661059.342077,2156,0,ɑ
1778661059.3422458,1975,0,ɑ
1778661059.342283,1784,0,ɑ
1778661059.342308,2121,0,ɑ
1778661059.342331,2203,0,ɑ
1778661059.3423538,1986,0,ɑ
1778661059.342377,2160,0,ɑ
1778661059.3424,2072,0,ɑ
1778661059.342423,2276,0,ɑ
1778661059.342449,2026,0,ɑ
1778661059.342471,1710,0,ɑ
1778661059.342495,1859,0,ɑ
1778661059.342517,2110,0,ɑ
1778661059.34254,2280,0,ɑ
1778661059.342562,2030,0,ɑ
1778661059.342585,2110,0,ɑ
1778661059.342607,2275,0,ɑ
1778661059.3426292,2129,0,ɑ
1778661059.345186,1864,0,ɑ
1778661059.359544,1753,0,ɑ
1778661059.359682,2226,0,ɑ
1778661059.359828,2282,0,ɑ
1778661059.3600042,2003,0,ɑ
1778661059.360072,1920,0,ɑ
1778661059.360201,2180,0,ɑ
1778661059.3603132,2356,0,ɑ
1778661059.360482,1938,0,ɑ
1778661059.363297,1788,0,ɑ
1778661059.364584,2009,0,ɑ
1778661059.367153,2015,0,ɑ
1778661059.368447,2035,0,ɑ
1778661059.371113,2077,0,ɑ
1778661059.374986,2245,0,ɑ
1778661059.37506,2339,0,ɑ
1778661059.377346,1851,0,ɑ
1778661059.3801012,1669,0,ɑ
1778661059.3805592,1951,0,ɑ
1778661059.382435,2131,0,ɑ
1778661059.384898,2208,0,ɑ
1778661059.386896,2019,0,ɑ
1778661059.38825,2147,0,ɑ
1778661059.39085,2268,0,ɑ
1778661059.392164,2125,0,ɑ
1778661059.3947158,1877,0,ɑ
1778661059.399807,1780,0,ɑ
1778661059.400583,2034,0,ɑ
1778661059.401681,2201,0,ɑ
1778661059.404592,2099,0,ɑ
1778661059.405327,1964,0,ɑ
1778661059.4078422,2273,0,ɑ
1778661059.4100218,2124,0,ɑ
1778661059.410476,1816,0,ɑ
1778661059.413012,1736,0,ɑ
1778661059.414308,2124,0,ɑ
1778661059.416887,2158,0,ɑ
1778661059.418176,2171,0,ɑ
1778661059.4208431,2023,0,ɑ
1778661059.424685,2056,0,ɑ
1778661059.4247758,2302,0,ɑ
1778661059.4267688,2055,0,ɑ
1778661059.428517,1878,0,ɑ
1778661059.431614,1857,0,ɑ
1778661059.43377,1960,0,ɑ
1778661059.435637,2165,0,ɑ
1778661059.436942,2105,0,ɑ
1778661059.438232,2020,0,ɑ
1778661059.440788,2171,0,ɑ
1778661059.442178,2059,0,ɑ
1778661059.444729,1781,0,ɑ
1778661059.448861,1807,0,ɑ
1778661059.449305,2003,0,ɑ
1778661059.451457,2078,0,ɑ
1778661059.453033,2136,0,ɑ
1778661059.4545438,2003,0,ɑ
1778661059.458072,2093,0,ɑ
1778661059.4582012,2236,0,ɑ
1778661059.460932,2056,0,ɑ
1778661059.4622169,1652,0,ɑ
1778661059.464969,1964,0,ɑ
1778661059.4662578,2177,0,ɑ
1778661059.468802,2153,0,ɑ
1778661059.4737039,2050,0,ɑ
1778661059.4744582,2093,0,ɑ
1778661059.475543,2116,0,ɑ
1778661059.478652,1943,0,ɑ
1778661059.4800901,1705,0,ɑ
1778661059.4804852,1892,0,ɑ
1778661059.483897,2071,0,ɑ
1778661059.485824,2151,0,ɑ
1778661059.487123,2074,0,ɑ
1778661059.48841,2120,0,ɑ
1778661059.4909718,2225,0,ɑ
1778661059.49226,2104,0,ɑ
1778661059.498868,1897,0,ɑ
1778661059.499243,1827,0,ɑ
1778661059.499603,2005,0,ɑ
1778661059.502374,2202,0,ɑ
1778661059.502817,2110,0,ɑ
1778661059.5075788,2007,0,ɑ
1778661059.507655,2158,0,ɑ
1778661059.5095522,2132,0,ɑ
1778661059.5108569,1865,0,ɑ
1778661059.512216,1681,0,ɑ
1778661059.5147789,2023,0,ɑ
1778661059.517354,2070,0,ɑ
1778661059.52283,2164,0,ɑ
1778661059.522923,2019,0,ɑ
1778661059.5243661,2105,0,ɑ
1778661059.524504,2216,0,ɑ
1778661059.527331,1991,0,ɑ
1778661059.5291488,1708,0,ɑ
1778661059.531252,1858,0,ɑ
1778661059.532829,2028,0,ɑ
1778661059.534241,2119,0,ɑ
1778661059.536791,2016,0,ɑ
1778661059.5381498,2051,0,ɑ
1778661059.5407,2228,0,ɑ
1778661059.545818,2091,0,ɑ
1778661059.547914,1846,0,ɑ
1778661059.5481129,1799,0,ɑ
1778661059.549719,1997,0,ɑ
1778661059.551584,2059,0,ɑ
1778661059.553169,2025,0,ɑ
1778661059.5553112,1995,0,ɑ
1778661059.55681,2180,0,ɑ
1778661059.559157,2110,0,ɑ
1778661059.560446,1870,0,ɑ
1778661059.563067,1670,0,ɑ
1778661059.564359,1961,0,ɑ
1778661059.5704231,2081,0,ɑ
1778661059.571527,2097,0,ɑ
1778661059.571878,1962,0,ɑ
1778661059.5742888,2044,0,ɑ
1778661059.575006,2194,0,ɑ
1778661059.576535,1996,0,ɑ
1778661059.5800939,1717,0,ɑ
1778661059.580213,1828,0,ɑ
1778661059.5832598,1988,0,ɑ
1778661059.584548,2123,0,ɑ
1778661059.587103,2020,0,ɑ
1778661059.588392,2069,0,ɑ
1778661059.5909388,2216,0,ɑ
1778661059.5948858,2073,0,ɑ
1778661059.594966,1815,0,ɑ
1778661059.598418,1770,0,ɑ
1778661059.599496,2037,0,ɑ
1778661059.601003,2115,0,ɑ
1778661059.604343,2130,0,ɑ
1778661059.6046562,2024,0,ɑ
1778661059.607244,2197,0,ɑ
1778661059.608535,2129,0,ɑ
1778661059.611087,1888,0,ɑ
1778661059.612386,1717,0,ɑ
1778661059.614805,2019,0,ɑ
1778661059.618957,2124,0,ɑ
1778661059.6200051,2112,0,ɑ
1778661059.622685,1999,0,ɑ
1778661059.623083,2133,0,ɑ
1778661059.625747,2204,0,ɑ
1778661059.627831,2000,0,ɑ
1778661059.62978,1766,0,ɑ
1778661059.631111,1903,0,ɑ
1778661059.632399,2088,0,ɑ
1778661059.634953,2222,0,ɑ
1778661059.636203,2094,0,ɑ
1778661059.638753,1959,0,ɑ
1778661059.6412969,2212,0,ɑ
1778661059.64582,2314,0,ɑ
1778661059.6479092,1862,0,ɑ
1778661059.648014,1779,0,ɑ
1778661059.650188,2121,0,ɑ
1778661059.650614,2126,0,ɑ
1778661059.652962,2006,0,ɑ
1778661059.655137,2068,0,ɑ
1778661059.656986,2272,0,ɑ
1778661059.6583219,2226,0,ɑ
1778661059.6608799,2009,0,ɑ
1778661059.662209,1504,0,ɑ
1778661059.664892,1843,0,ɑ
1778661059.669355,2114,0,ɑ
1778661059.669761,2290,0,ɑ
1778661059.671807,2096,0,ɑ
1778661059.673244,2242,0,ɑ
1778661059.6754298,2128,0,ɑ
1778661059.678804,1948,0,ɑ
1778661059.678941,1857,0,ɑ
1778661059.680757,1867,0,ɑ
1778661059.6833322,1968,0,ɑ
1778661059.684649,2144,0,ɑ
1778661059.687196,2023,0,ɑ
1778661059.688482,2014,0,ɑ
1778661059.6941,2291,0,ɑ
1778661059.6952488,2139,0,ɑ
1778661059.695342,1828,0,ɑ
1778661059.697979,1635,0,ɑ
1778661059.699779,2029,0,ɑ
1778661059.703449,2115,0,ɑ
1778661059.703579,2216,0,ɑ
1778661059.7055712,2070,0,ɑ
1778661059.706861,2266,0,ɑ
1778661059.708148,2283,0,ɑ
1778661059.710733,1626,0,ɑ
1778661059.713353,1792,0,ɑ
1778661059.717669,2119,0,ɑ
1778661059.717748,2304,0,ɑ
1778661059.720469,2105,0,ɑ
1778661059.720522,1881,0,ɑ
1778661059.7240782,2295,0,ɑ
1778661059.725377,2102,0,ɑ
1778661059.7275789,1704,0,ɑ
1778661059.7294662,1797,0,ɑ
1778661059.7307782,2051,0,ɑ
1778661059.732065,1945,0,ɑ
1778661059.7346208,2138,0,ɑ
1778661059.737183,1676,0,ɑ
1778661059.74256,1644,0,ɑ
1778661059.7426848,2544,0,ɑ
1778661059.7427561,2365,0,ɑ
1778661059.7444348,2012,0,ɑ
1778661059.747736,1858,0,ɑ
1778661059.749256,2153,0,ɑ
1778661059.751559,1690,0,ɑ
1778661059.753118,2159,0,ɑ
1778661059.7544131,2277,0,ɑ
1778661059.75697,2097,0,ɑ
1778661059.758275,2148,0,ɑ
1778661059.760664,1677,0,ɑ
1778661059.766025,1666,0,ɑ
1778661059.766732,1997,0,ɑ
1778661059.7677062,2230,0,ɑ
1778661059.770308,2226,0,ɑ
1778661059.770713,1986,0,ɑ
1778661059.773396,2104,0,ɑ
1778661059.775655,2087,0,ɑ
1778661059.777567,1782,0,ɑ
1778661059.7788632,1424,0,ɑ
1778661059.780155,2338,0,ɑ
1778661059.7827232,1913,0,ɑ
1778661059.785271,1398,0,ɑ
1778661059.786562,2470,0,ɑ
1778661059.791094,2226,0,ɑ
1778661059.7911522,2249,0,ɑ
1778661059.792949,2063,0,ɑ
1778661059.794454,1890,0,ɑ
1778661059.799861,1809,0,ɑ
1778661059.799955,2080,0,ɑ
1778661059.801833,2253,0,ɑ
1778661059.803126,2073,0,ɑ
1778661059.804416,2066,0,ɑ
1778661059.806966,2102,0,ɑ
1778661059.80807,2092,0,ɑ
1778661059.810764,1729,0,ɑ
1778661059.815016,1688,0,ɑ
1778661059.815437,2254,0,ɑ
1778661059.816998,2272,0,ɑ
1778661059.818471,2362,0,ɑ
1778661059.8216121,1923,0,ɑ
1778661059.823825,2060,0,ɑ
1778661059.825682,2305,0,ɑ
1778661059.826977,2067,0,ɑ
1778661059.828328,1731,0,ɑ
1778661059.830892,1786,0,ɑ
1778661059.83218,1958,0,ɑ
1778661059.834728,2116,0,ɑ
1778661059.838732,2026,0,ɑ
1778661059.838785,2072,0,ɑ
1778661059.840739,2165,0,ɑ
1778661059.842217,2098,0,ɑ
1778661059.845433,1975,0,ɑ
1778661059.847611,1774,0,ɑ
1778661059.849441,1897,0,ɑ
1778661059.8507361,2158,0,ɑ
1778661059.853282,1968,0,ɑ
1778661059.8545668,1929,0,ɑ
1778661059.857107,2406,0,ɑ
1778661059.861495,2291,0,ɑ
1778661059.8618891,1610,0,ɑ
1778661059.8637729,1668,0,ɑ
1778661059.86561,2124,0,ɑ
1778661059.867427,2103,0,ɑ
1778661059.870782,2032,0,ɑ
1778661059.870877,2292,0,ɑ
1778661059.872769,2255,0,ɑ
1778661059.8753269,2171,0,ɑ
1778661059.8766131,1985,0,ɑ
1778661059.879168,1862,0,ɑ
1778661059.880456,1735,0,ɑ
1778661059.885225,2036,0,ɑ
1778661059.885598,2267,0,ɑ
1778661059.887258,1776,0,ɑ
1778661059.888915,2188,0,ɑ
1778661059.8904011,2463,0,ɑ
1778661059.893983,2171,0,ɑ
1778661059.895921,1877,0,ɑ
1778661059.8972192,1912,0,ɑ
1778661059.898528,2138,0,ɑ
1778661059.901077,2253,0,ɑ
1778661059.9023628,2097,0,ɑ
1778661059.908117,1853,0,ɑ
1778661059.908732,1903,0,ɑ
1778661059.9091,2396,0,ɑ
1778661059.911287,1850,0,ɑ
1778661059.912688,1894,0,ɑ
1778661059.9148002,2032,0,ɑ
1778661059.916975,1891,0,ɑ
1778661059.9187672,2158,0,ɑ
1778661059.92133,2516,0,ɑ
1778661059.922627,2028,0,ɑ
1778661059.925171,2191,0,ɑ
1778661059.926462,2027,0,ɑ
1778661059.9309282,1665,0,ɑ
1778661059.931303,1724,0,ɑ
1778661059.933564,2160,0,ɑ
1778661059.935296,2261,0,ɑ
1778661059.9380438,2047,0,ɑ
1778661059.940301,1710,0,ɑ
1778661059.940383,2051,0,ɑ
1778661059.943171,2400,0,ɑ
1778661059.944463,2021,0,ɑ
1778661059.947073,1775,0,ɑ
1778661059.94837,1898,0,ɑ
1778661059.953856,2055,0,ɑ
1778661059.954572,2360,0,ɑ
1778661059.955304,1974,0,ɑ
1778661059.956485,2174,0,ɑ
1778661059.960781,2042,0,ɑ
1778661059.963287,2013,0,ɑ
1778661059.963472,1442,0,ɑ
1778661059.965079,2061,0,ɑ
1778661059.966366,2289,0,ɑ
1778661059.968929,2195,0,ɑ
1778661059.970164,2145,0,ɑ
1778661059.9727108,2313,0,ɑ
1778661059.977779,2281,0,ɑ
1778661059.978164,2080,0,ɑ
1778661059.9799879,1889,0,ɑ
1778661059.9812968,2034,0,ɑ
1778661059.9829051,1862,0,ɑ
1778661059.9843452,2074,0,ɑ
1778661059.986498,2154,0,ɑ
1778661059.988406,2038,0,ɑ
1778661059.9909601,2402,0,ɑ
1778661059.992251,2492,0,ɑ
1778661059.994894,2040,0,ɑ
1778661059.996201,1748,0,ɑ
1778661060.000028,2058,0,ɑ
1778661060.000504,2128,0,ɑ
1778661060.00241,2314,0,ɑ
1778661060.005623,2038,0,ɑ
1778661060.0089579,2189,0,ɑ
1778661060.009119,2314,0,ɑ
1778661060.010912,1836,0,ɑ
1778661060.01232,2009,0,ɑ
1778661060.014878,2277,0,ɑ
1778661060.016177,2623,0,ɑ
1778661060.018891,2147,0,ɑ
1778661060.023711,1102,0,ɑ
1778661060.024097,2594,0,ɑ
1778661060.024457,2528,0,ɑ
1778661060.027392,2346,0,ɑ
1778661060.0302951,1693,0,ɑ
1778661060.030383,1816,0,ɑ
1778661060.0325959,2122,0,ɑ
1778661060.0344691,2570,0,ɑ
1778661060.037021,2497,0,ɑ
1778661060.0383081,2264,0,ɑ
1778661060.0408509,2232,0,ɑ
1778661060.042135,2000,0,ɑ
1778661060.047356,1939,0,ɑ
1778661060.0474482,2196,0,ɑ
1778661060.049338,1990,0,ɑ
1778661060.050963,2229,0,ɑ
1778661060.052737,2537,0,ɑ
1778661060.056293,2313,0,ɑ
1778661060.056417,2621,0,ɑ
1778661060.0591412,2471,0,ɑ
1778661060.0604281,1694,0,ɑ
1778661060.063068,1779,0,ɑ
1778661060.0643651,2257,0,ɑ
1778661060.066911,2288,0,ɑ
1778661060.072025,2325,0,ɑ
1778661060.0733912,2131,0,ɑ
1778661060.073419,2306,0,ɑ
1778661060.075149,2490,0,ɑ
1778661060.078017,1981,0,ɑ
1778661060.080398,1991,0,ɑ
1778661060.080422,1872,0,ɑ
1778661060.0854359,2125,0,ɑ
1778661060.085792,2310,0,ɑ
1778661060.0872278,2397,0,ɑ
1778661060.088604,2095,0,ɑ
1778661060.093803,2412,0,ɑ
1778661060.095308,2591,0,ɑ
1778661060.095477,2130,0,ɑ
1778661060.098124,2062,0,ɑ
1778661060.0993721,2100,0,ɑ
1778661060.1027799,2202,0,ɑ
1778661060.102891,2070,0,ɑ
1778661060.1049721,1922,0,ɑ
1778661060.106275,2079,0,ɑ
1778661060.108824,2524,0,ɑ
1778661060.1102872,1897,0,ɑ
1778661060.1130502,1774,0,ɑ
1778661060.1184142,2039,0,ɑ
1778661060.1188061,2595,0,ɑ
1778661060.120686,2314,0,ɑ
1778661060.121938,2054,0,ɑ
1778661060.123754,2218,0,ɑ
1778661060.125582,2680,0,ɑ
1778661060.1282282,2311,0,ɑ
1778661060.128578,1782,0,ɑ
1778661060.13136,1830,0,ɑ
1778661060.132661,2019,0,ɑ
1778661060.137952,2225,0,ɑ
1778661060.138745,2139,0,ɑ
1778661060.1391811,2208,0,ɑ
1778661060.140506,2215,0,ɑ
1778661060.1449752,2329,0,ɑ
1778661060.1450958,1952,0,ɑ
1778661060.1474822,1823,0,ɑ
1778661060.149497,2194,0,ɑ
1778661060.1507971,2390,0,ɑ
1778661060.15209,2331,0,ɑ
1778661060.1546319,2172,0,ɑ
1778661060.157181,2226,0,ɑ
1778661060.162119,2018,0,ɑ
1778661060.164352,2125,0,ɑ
1778661060.16446,1477,0,ɑ
1778661060.165911,1884,0,ɑ
1778661060.169297,2547,0,ɑ
1778661060.1694038,2472,0,ɑ
1778661060.171745,1936,0,ɑ
1778661060.1735182,2551,0,ɑ
1778661060.174804,2180,0,ɑ
1778661060.176091,2069,0,ɑ
1778661060.17874,1958,0,ɑ
1778661060.1813529,1962,0,ɑ
1778661060.182647,2185,0,ɑ
1778661060.186846,2300,0,ɑ
1778661060.1869152,1991,0,ɑ
1778661060.1892061,1869,0,ɑ
1778661060.190602,2147,0,ɑ
1778661060.192272,2610,0,ɑ
1778661060.197786,2102,0,ɑ
1778661060.198354,1719,0,ɑ
1778661060.198411,2141,0,ɑ
1778661060.200973,2295,0,ɑ
1778661060.2022662,2251,0,ɑ
1778661060.2048068,2219,0,ɑ
1778661060.215229,2367,0,ɑ
1778661060.216361,2413,0,ɑ
1778661060.216754,1971,0,ɑ
1778661060.2172039,1698,0,ɑ
1778661060.219009,2142,0,ɑ
1778661060.2218251,2291,0,ɑ
1778661060.2260532,2218,0,ɑ
1778661060.226092,2123,0,ɑ
1778661060.22612,2184,0,ɑ
1778661060.226145,2355,0,ɑ
1778661060.2261708,2121,0,ɑ
1778661060.229152,1825,0,ɑ
1778661060.2307122,1969,0,ɑ
1778661060.23565,2152,0,ɑ
1778661060.2356858,2140,0,ɑ
1778661060.23698,2098,0,ɑ
1778661060.244652,2333,0,ɑ
1778661060.2449129,2238,0,ɑ
1778661060.248322,2331,0,ɑ
1778661060.248783,2001,0,ɑ
1778661060.251044,1751,0,ɑ
1778661060.2513258,1985,0,ɑ
1778661060.254494,2179,0,ɑ
1778661060.256782,2151,0,ɑ
1778661060.256876,2006,0,ɑ
1778661060.256931,2213,0,ɑ
1778661060.2583182,2221,0,ɑ
1778661060.261023,1960,0,ɑ
1778661060.26241,1725,0,ɑ
1778661060.2652102,1992,0,ɑ
1778661060.272007,2189,0,ɑ
1778661060.2753432,2215,0,ɑ
1778661060.276344,2031,0,ɑ
1778661060.276844,2117,0,ɑ
1778661060.277698,2268,0,ɑ
1778661060.2778518,2031,0,ɑ
1778661060.282185,1744,0,ɑ
1778661060.2825751,1885,0,ɑ
1778661060.2842722,2104,0,ɑ
1778661060.284857,2239,0,ɑ
1778661060.28626,2033,0,ɑ
1778661060.289175,1745,0,ɑ
1778661060.293602,2271,0,ɑ
1778661060.296337,2303,0,ɑ
1778661060.298748,1869,0,ɑ
1778661060.299306,1764,0,ɑ
1778661060.300672,1981,0,ɑ
1778661060.3011992,2100,0,ɑ
1778661060.303082,2174,0,ɑ
1778661060.3060281,2054,0,ɑ
1778661060.30627,2214,0,ɑ
1778661060.30828,2209,0,ɑ
1778661060.310925,1912,0,ɑ
1778661060.312264,1654,0,ɑ
1778661060.31494,1961,0,ɑ
1778661060.316371,2077,0,ɑ
1778661060.324697,2176,0,ɑ
1778661060.324945,2158,0,ɑ
1778661060.326657,2200,0,ɑ
1778661060.3278022,2114,0,ɑ
1778661060.33087,1856,0,ɑ
1778661060.333848,1860,0,ɑ
1778661060.3342772,1830,0,ɑ
1778661060.3346298,2038,0,ɑ
1778661060.3348181,2153,0,ɑ
1778661060.336889,2051,0,ɑ
1778661060.3382778,2145,0,ɑ
1778661060.340962,2304,0,ɑ
1778661060.345433,2215,0,ɑ
1778661060.346933,1871,0,ɑ
1778661060.3501592,1741,0,ɑ
1778661060.350623,2019,0,ɑ
1778661060.3514931,2145,0,ɑ
1778661060.35458,2135,0,ɑ
1778661060.357398,2015,0,ɑ
1778661060.3576362,2070,0,ɑ
1778661060.359929,2087,0,ɑ
1778661060.3612869,2036,0,ɑ
1778661060.3626199,1724,0,ɑ
1778661060.365273,1997,0,ɑ
1778661060.366624,2188,0,ɑ
1778661060.369159,2186,0,ɑ
1778661060.374829,1981,0,ɑ
1778661060.376105,2119,0,ɑ
1778661060.3774562,2262,0,ɑ
1778661060.377772,2039,0,ɑ
1778661060.381151,1754,0,ɑ
1778661060.381237,1796,0,ɑ
1778661060.383592,2024,0,ɑ
1778661060.386522,2154,0,ɑ
1778661060.386678,2078,0,ɑ
1778661060.38889,2040,0,ɑ
1778661060.3901892,2270,0,ɑ
1778661060.39276,2169,0,ɑ
1778661060.397856,1887,0,ɑ
1778661060.397961,1729,0,ɑ
1778661060.3988469,2019,0,ɑ
1778661060.400896,2077,0,ɑ
1778661060.4032419,2100,0,ɑ
1778661060.406338,2038,0,ɑ
1778661060.406498,2205,0,ɑ
1778661060.409087,2190,0,ɑ
1778661060.411247,1927,0,ɑ
1778661060.412608,1671,0,ɑ
1778661060.41518,1942,0,ɑ
1778661060.41653,2128,0,ɑ
1778661060.4190972,2160,0,ɑ
1778661060.420392,1982,0,ɑ
1778661060.4252748,2082,0,ɑ
1778661060.426137,2198,0,ɑ
1778661060.4262269,2004,0,ɑ
1778661060.428756,1803,0,ɑ
1778661060.4309618,1781,0,ɑ
1778661060.4331899,2055,0,ɑ
1778661060.434727,2208,0,ɑ
1778661060.437501,2114,0,ɑ
1778661060.439709,2058,0,ɑ
1778661060.4411361,2263,0,ɑ
1778661060.442431,2191,0,ɑ
1778661060.448479,1876,0,ɑ
1778661060.449812,1708,0,ɑ
1778661060.451426,2013,0,ɑ
1778661060.451506,2123,0,ɑ
1778661060.453888,2124,0,ɑ
1778661060.454667,1980,0,ɑ
1778661060.45979,2182,0,ɑ
1778661060.460042,2208,0,ɑ
1778661060.460299,1945,0,ɑ
1778661060.462314,1672,0,ɑ
1778661060.46509,1942,0,ɑ
1778661060.46642,2078,0,ɑ
1778661060.468978,2144,0,ɑ
1778661060.470303,1997,0,ɑ
1778661060.476862,2075,0,ɑ
1778661060.47771,2204,0,ɑ
1778661060.478189,2016,0,ɑ
1778661060.481091,1754,0,ɑ
1778661060.4818728,1818,0,ɑ
1778661060.485452,2042,0,ɑ
1778661060.4856708,2140,0,ɑ
1778661060.488375,2050,0,ɑ
1778661060.48863,2012,0,ɑ
1778661060.4906769,2218,0,ɑ
1778661060.492079,2136,0,ɑ
1778661060.494636,1842,0,ɑ
1778661060.499261,1703,0,ɑ
1778661060.4997592,2009,0,ɑ
1778661060.501847,2106,0,ɑ
1778661060.5038311,2092,0,ɑ
1778661060.506064,1982,0,ɑ
1778661060.507444,2150,0,ɑ
1778661060.510259,2147,0,ɑ
1778661060.510331,1931,0,ɑ
1778661060.5126588,1667,0,ɑ
1778661060.5140538,1936,0,ɑ
1778661060.516609,2094,0,ɑ
1778661060.518081,2136,0,ɑ
1778661060.52067,2001,0,ɑ
1778661060.526898,2081,0,ɑ
1778661060.527413,2218,0,ɑ
1778661060.528556,2030,0,ɑ
1778661060.530117,1756,0,ɑ
1778661060.53025,1805,0,ɑ
1778661060.53348,2055,0,ɑ
1778661060.535798,2175,0,ɑ
1778661060.541003,2143,0,ɑ
1778661060.541039,2102,0,ɑ
1778661060.541069,2157,0,ɑ
1778661060.542398,2087,0,ɑ
1778661060.545024,1866,0,ɑ
1778661060.549807,1713,0,ɑ
1778661060.55024,2015,0,ɑ
1778661060.5507898,2219,0,ɑ
1778661060.553111,2277,0,ɑ
1778661060.5553439,1804,0,ɑ
1778661060.557643,1995,0,ɑ
1778661060.5591948,2169,0,ɑ
1778661060.562573,1974,0,ɑ
1778661060.565077,1651,0,ɑ
1778661060.565176,1862,0,ɑ
1778661060.566586,2059,0,ɑ
1778661060.5690188,2101,0,ɑ
1778661060.570418,2034,0,ɑ
1778661060.5734541,2153,0,ɑ
1778661060.574881,2295,0,ɑ
1778661060.583509,2062,0,ɑ
1778661060.5838678,1804,0,ɑ
1778661060.584097,1835,0,ɑ
1778661060.5874538,2022,0,ɑ
1778661060.5905821,2103,0,ɑ
1778661060.5936499,1988,0,ɑ
1778661060.593933,2140,0,ɑ
1778661060.594238,2278,0,ɑ
1778661060.5947862,2157,0,ɑ
1778661060.596587,1885,0,ɑ
1778661060.5972831,1742,0,ɑ
1778661060.598714,2054,0,ɑ
1778661060.6001122,2138,0,ɑ
1778661060.606603,2123,0,ɑ
1778661060.6075609,2009,0,ɑ
1778661060.608274,2159,0,ɑ
1778661060.608823,2175,0,ɑ
1778661060.612622,1959,0,ɑ
1778661060.614816,1702,0,ɑ
1778661060.614893,1946,0,ɑ
1778661060.619478,2087,0,ɑ
1778661060.622622,2185,0,ɑ
1778661060.622887,2038,0,ɑ
1778661060.624086,2105,0,ɑ
1778661060.624366,2243,0,ɑ
1778661060.627912,2065,0,ɑ
1778661060.629311,1821,0,ɑ
1778661060.631097,1832,0,ɑ
1778661060.632905,2033,0,ɑ
1778661060.637797,2138,0,ɑ
1778661060.639431,2062,0,ɑ
1778661060.6413782,2122,0,ɑ
1778661060.643792,2286,0,ɑ
1778661060.643977,2098,0,ɑ
1778661060.645665,1815,0,ɑ
1778661060.651177,1680,0,ɑ
1778661060.651644,2004,0,ɑ
1778661060.654093,2113,0,ɑ
1778661060.6541939,2085,0,ɑ
1778661060.654291,1940,0,ɑ
1778661060.656785,2127,0,ɑ
1778661060.658241,2197,0,ɑ
1778661060.666137,1907,0,ɑ
1778661060.666355,1678,0,ɑ
1778661060.667867,1935,0,ɑ
1778661060.669504,2063,0,ɑ
1778661060.671344,2120,0,ɑ
1778661060.676246,1971,0,ɑ
1778661060.676636,2038,0,ɑ
1778661060.678455,2194,0,ɑ
1778661060.6791701,2011,0,ɑ
1778661060.679254,1782,0,ɑ
1778661060.680573,1814,0,ɑ
1778661060.68324,2019,0,ɑ
1778661060.684614,2224,0,ɑ
1778661060.6871848,2043,0,ɑ
1778661060.6884842,1995,0,ɑ
1778661060.6977532,2219,0,ɑ
1778661060.701822,2143,0,ɑ
1778661060.702482,1821,0,ɑ
1778661060.7046242,1671,0,ɑ
1778661060.7077801,1984,0,ɑ
1778661060.7079449,2088,0,ɑ
1778661060.7081542,2090,0,ɑ
1778661060.708385,1976,0,ɑ
1778661060.708622,2172,0,ɑ
1778661060.7087831,2247,0,ɑ
1778661060.711143,1937,0,ɑ
1778661060.712658,1651,0,ɑ
1778661060.714132,1953,0,ɑ
1778661060.720682,2113,0,ɑ
1778661060.721159,2120,0,ɑ
1778661060.72177,1979,0,ɑ
1778661060.723648,2041,0,ɑ
1778661060.727443,2238,0,ɑ
1778661060.728072,2052,0,ɑ
1778661060.730089,1770,0,ɑ
1778661060.7334342,1814,0,ɑ
1778661060.733695,2024,0,ɑ
1778661060.736031,2115,0,ɑ
1778661060.736171,2032,0,ɑ
1778661060.739163,1967,0,ɑ
1778661060.740551,2190,0,ɑ
1778661060.742165,2177,0,ɑ
1778661060.7448509,1802,0,ɑ
1778661060.7516181,1667,0,ɑ
1778661060.752307,1986,0,ɑ
1778661060.754296,2105,0,ɑ
1778661060.754636,2152,0,ɑ
1778661060.754766,1995,0,ɑ
1778661060.756813,2137,0,ɑ
1778661060.76078,2181,0,ɑ
1778661060.761054,1936,0,ɑ
1778661060.76412,1697,0,ɑ
1778661060.764678,1915,0,ɑ
1778661060.767026,2085,0,ɑ
1778661060.768416,2149,0,ɑ
1778661060.771119,2038,0,ɑ
1778661060.776563,2099,0,ɑ
1778661060.777565,2237,0,ɑ
1778661060.778549,1953,0,ɑ
1778661060.7826009,1753,0,ɑ
1778661060.78414,1974,0,ɑ
1778661060.784652,2075,0,ɑ
1778661060.7871628,2169,0,ɑ
1778661060.7874079,1970,0,ɑ
1778661060.790622,2047,0,ɑ
1778661060.7910972,2285,0,ɑ
1778661060.79382,2187,0,ɑ
1778661060.795313,1879,0,ɑ
1778661060.796706,1702,0,ɑ
1778661060.798134,2038,0,ɑ
1778661060.800842,2146,0,ɑ
1778661060.802164,2137,0,ɑ
1778661060.805064,2013,0,ɑ
1778661060.810018,2130,0,ɑ
1778661060.811674,2216,0,ɑ
1778661060.8160372,1999,0,ɑ
1778661060.8166559,1680,0,ɑ
1778661060.817615,1910,0,ɑ
1778661060.818239,2066,0,ɑ
1778661060.819274,2190,0,ɑ
1778661060.824275,1950,0,ɑ
1778661060.8246138,2021,0,ɑ
1778661060.825182,2354,0,ɑ
1778661060.827734,1944,0,ɑ
1778661060.829164,1629,0,ɑ
1778661060.8306181,1981,0,ɑ
1778661060.832056,2216,0,ɑ
1778661060.8377159,2011,0,ɑ
1778661060.8409238,2036,0,ɑ
1778661060.841147,2099,0,ɑ
1778661060.8436952,2152,0,ɑ
1778661060.844556,2171,0,ɑ
1778661060.8471859,1909,0,ɑ
1778661060.849051,1610,0,ɑ
1778661060.8523111,1899,0,ɑ
1778661060.852649,2155,0,ɑ
1778661060.854744,2133,0,ɑ
1778661060.8554518,2154,0,ɑ
1778661060.856778,2259,0,ɑ
1778661060.858167,2114,0,ɑ
1778661060.860826,1761,0,ɑ
1778661060.8622022,1670,0,ɑ
1778661060.864785,2122,0,ɑ
1778661060.8664582,2121,0,ɑ
1778661060.876749,2033,0,ɑ
1778661060.876929,1952,0,ɑ
1778661060.877665,2094,0,ɑ
1778661060.878665,2114,0,ɑ
1778661060.8788679,1865,0,ɑ
1778661060.879241,1973,0,ɑ
1778661060.885876,1989,0,ɑ
1778661060.8862982,1886,0,ɑ
1778661060.886643,2155,0,ɑ
1778661060.8868449,2063,0,ɑ
1778661060.889239,2032,0,ɑ
1778661060.890639,2265,0,ɑ
1778661060.891993,2194,0,ɑ
1778661060.899505,1884,0,ɑ
1778661060.900585,1691,0,ɑ
1778661060.902587,1992,0,ɑ
1778661060.902793,2116,0,ɑ
1778661060.902912,2141,0,ɑ
1778661060.90505,1927,0,ɑ
1778661060.9065511,2150,0,ɑ
1778661060.90884,2259,0,ɑ
1778661060.911701,1989,0,ɑ
1778661060.9140182,1639,0,ɑ
1778661060.914065,1936,0,ɑ
1778661060.916619,2084,0,ɑ
1778661060.919174,2159,0,ɑ
1778661060.9204638,2043,0,ɑ
1778661060.923014,2093,0,ɑ
1778661060.928585,2306,0,ɑ
1778661060.928679,2107,0,ɑ
1778661060.9315379,1790,0,ɑ
1778661060.9317,1756,0,ɑ
1778661060.93372,1986,0,ɑ
1778661060.935631,2146,0,ɑ
1778661060.937504,2110,0,ɑ
1778661060.940243,1975,0,ɑ
1778661060.940386,2190,0,ɑ
1778661060.9424798,2139,0,ɑ
1778661060.945049,1832,0,ɑ
1778661060.946476,1693,0,ɑ
1778661060.951288,1983,0,ɑ
1778661060.9521122,2071,0,ɑ
1778661060.95222,2009,0,ɑ
1778661060.954464,1989,0,ɑ
1778661060.9577322,2215,0,ɑ
1778661060.960153,2223,0,ɑ
1778661060.960256,1949,0,ɑ
1778661060.965587,1683,0,ɑ
1778661060.965755,1895,0,ɑ
1778661060.967072,2076,0,ɑ
1778661060.9683719,2231,0,ɑ
1778661060.970934,2048,0,ɑ
1778661060.972229,2008,0,ɑ
1778661060.974782,2215,0,ɑ
1778661060.981217,2076,0,ɑ
1778661060.9817548,1800,0,ɑ
1778661060.9818501,1789,0,ɑ
1778661060.9835498,2028,0,ɑ
1778661060.98535,2130,0,ɑ
1778661060.987107,2052,0,ɑ
1778661060.989414,1994,0,ɑ
1778661060.9923048,2219,0,ɑ
1778661060.9923809,2165,0,ɑ
1778661060.9944818,1920,0,ɑ
1778661060.9970272,1706,0,ɑ
1778661060.998327,2013,0,ɑ
1778661061.0034182,2093,0,ɑ
1778661061.0046778,2112,0,ɑ
1778661061.00643,1934,0,ɑ
1778661061.006539,2079,0,ɑ
1778661061.009276,2250,0,ɑ
1778661061.011122,2075,0,ɑ
1778661061.01551,1657,0,ɑ
1778661061.015629,2046,0,ɑ
1778661061.018084,2067,0,ɑ
1778661061.018141,2283,0,ɑ
1778661061.02077,2024,0,ɑ
1778661061.0220768,2003,0,ɑ
1778661061.024749,2300,0,ɑ
1778661061.026054,2183,0,ɑ
1778661061.028714,1660,0,ɑ
1778661061.0337641,1600,0,ɑ
1778661061.035218,1969,0,ɑ
1778661061.0353699,2145,0,ɑ
1778661061.0377421,2146,0,ɑ
1778661061.040572,2035,0,ɑ
1778661061.040722,2132,0,ɑ
1778661061.042708,2206,0,ɑ
1778661061.047455,2183,0,ɑ
1778661061.0494459,1840,0,ɑ
1778661061.0500312,1710,0,ɑ
1778661061.050303,1973,0,ɑ
1778661061.052885,2067,0,ɑ
1778661061.054199,1850,0,ɑ
1778661061.060947,1896,0,ɑ
1778661061.061412,2154,0,ɑ
1778661061.063953,1935,0,ɑ
1778661061.064102,1790,0,ɑ
1778661061.06427,2212,0,ɑ
1778661061.066098,2252,0,ɑ
1778661061.0700538,2171,0,ɑ
1778661061.072906,2085,0,ɑ
1778661061.073291,1976,0,ɑ
1778661061.075475,2222,0,ɑ
1778661061.076807,1937,0,ɑ
1778661061.0781069,1857,0,ɑ
1778661061.080707,1736,0,ɑ
1778661061.082023,2052,0,ɑ
1778661061.084713,2041,0,ɑ
1778661061.0860171,1967,0,ɑ
1778661061.090765,2053,0,ɑ
1778661061.091871,2480,0,ɑ
1778661061.094444,2406,0,ɑ
1778661061.0945559,2153,0,ɑ
1778661061.097924,1518,0,ɑ
1778661061.098481,1829,0,ɑ
1778661061.101242,2020,0,ɑ
1778661061.103932,2036,0,ɑ
1778661061.104148,2092,0,ɑ
1778661061.106328,2266,0,ɑ
1778661061.1089349,2310,0,ɑ
1778661061.1102421,1860,0,ɑ
1778661061.115968,1412,0,ɑ
1778661061.1184158,1952,0,ɑ
1778661061.118638,1996,0,ɑ
1778661061.120827,2071,0,ɑ
1778661061.121429,2122,0,ɑ
1778661061.1233122,2121,0,ɑ
1778661061.127517,2111,0,ɑ
1778661061.1276858,1936,0,ɑ
1778661061.129904,1758,0,ɑ
1778661061.130136,1813,0,ɑ
1778661061.132961,2165,0,ɑ
1778661061.134382,2281,0,ɑ
1778661061.1369212,2035,0,ɑ
1778661061.1382358,1948,0,ɑ
1778661061.145113,2169,0,ɑ
1778661061.1461608,2109,0,ɑ
1778661061.14813,1864,0,ɑ
1778661061.1482508,1719,0,ɑ
1778661061.1483572,2033,0,ɑ
1778661061.150602,2138,0,ɑ
1778661061.153861,2250,0,ɑ
1778661061.1585548,1975,0,ɑ
1778661061.159168,2142,0,ɑ
1778661061.15923,2190,0,ɑ
1778661061.160529,1923,0,ɑ
1778661061.163164,1677,0,ɑ
1778661061.168363,1897,0,ɑ
1778661061.16843,2087,0,ɑ
1778661061.168483,2184,0,ɑ
1778661061.1725929,2081,0,ɑ
1778661061.1730402,2104,0,ɑ
1778661061.1765802,2240,0,ɑ
1778661061.176691,2097,0,ɑ
1778661061.1791081,1826,0,ɑ
1778661061.181382,1755,0,ɑ
1778661061.182726,2014,0,ɑ
1778661061.1840289,2163,0,ɑ
1778661061.18658,2132,0,ɑ
1778661061.188023,2017,0,ɑ
1778661061.190573,2196,0,ɑ
1778661061.195005,2151,0,ɑ
1778661061.1954,1903,0,ɑ
1778661061.197869,1797,0,ɑ
1778661061.198001,1989,0,ɑ
1778661061.201151,2008,0,ɑ
1778661061.205987,2114,0,ɑ
1778661061.206462,1985,0,ɑ
1778661061.206632,2093,0,ɑ
1778661061.2085462,2168,0,ɑ
1778661061.209959,1938,0,ɑ
1778661061.212613,1682,0,ɑ
1778661061.2182589,1869,0,ɑ
1778661061.218352,2059,0,ɑ
1778661061.2191281,2149,0,ɑ
1778661061.222666,2058,0,ɑ
1778661061.2231848,2059,0,ɑ
1778661061.2260458,2216,0,ɑ
1778661061.228429,2068,0,ɑ
1778661061.228568,1807,0,ɑ
1778661061.276416,1748,0,ɑ
1778661061.276587,2121,0,ɑ
1778661061.276635,2171,0,ɑ
1778661061.2766678,2019,0,ɑ
1778661061.276695,2006,0,ɑ
1778661061.276721,2215,0,ɑ
1778661061.276746,2252,0,ɑ
1778661061.276772,1883,0,ɑ
1778661061.2767968,1607,0,ɑ
1778661061.276822,1998,0,ɑ
1778661061.2768471,2080,0,ɑ
1778661061.276872,2154,0,ɑ
1778661061.2769039,1990,0,ɑ
1778661061.2769291,2135,0,ɑ
1778661061.277048,2193,0,ɑ
1778661061.277079,1977,0,ɑ
1778661061.277133,1755,0,ɑ
1778661061.277174,1918,0,ɑ
1778661061.2772028,2095,0,ɑ
1778661061.27728,2188,0,ɑ
1778661061.2773492,2071,0,ɑ
1778661061.277407,2100,0,ɑ
1778661061.277455,2210,0,ɑ
1778661061.277504,2153,0,ɑ
1778661061.278812,1940,0,ɑ
1778661061.2801101,1751,0,ɑ
1778661061.282696,2062,0,ɑ
1778661061.285238,2197,0,ɑ
1778661061.286626,2073,0,ɑ
1778661061.288011,1944,0,ɑ
1778661061.292646,2214,0,ɑ
1778661061.2931788,2203,0,ɑ
1778661061.295837,1892,0,ɑ
1778661061.297338,1734,0,ɑ
1778661061.2988858,2060,0,ɑ
1778661061.301625,2101,0,ɑ
1778661061.304159,2179,0,ɑ
1778661061.3043242,2134,0,ɑ
1778661061.306284,2026,0,ɑ
1778661061.3088472,2096,0,ɑ
1778661061.310028,1996,0,ɑ
1778661061.3152058,1744,0,ɑ
1778661061.316017,1846,0,ɑ
1778661061.316124,1985,0,ɑ
1778661061.318051,2006,0,ɑ
1778661061.321821,2186,0,ɑ
1778661061.323199,2164,0,ɑ
1778661061.325603,2214,0,ɑ
1778661061.3272982,2113,0,ɑ
1778661061.328597,1877,0,ɑ
1778661061.3299232,1830,0,ɑ
1778661061.3325288,2085,0,ɑ
1778661061.3339279,2095,0,ɑ
1778661061.336478,2118,0,ɑ
1778661061.3442051,2302,0,ɑ
1778661061.344531,2108,0,ɑ
1778661061.348773,2045,0,ɑ
1778661061.352772,2003,0,ɑ
1778661061.353031,1704,0,ɑ
1778661061.353187,2032,0,ɑ
1778661061.353361,2167,0,ɑ
1778661061.3555148,2101,0,ɑ
1778661061.355576,1846,0,ɑ
1778661061.356867,2185,0,ɑ
1778661061.358159,2324,0,ɑ
1778661061.364778,2019,0,ɑ
1778661061.365636,1767,0,ɑ
1778661061.367029,1938,0,ɑ
1778661061.368264,2045,0,ɑ
1778661061.369018,2147,0,ɑ
1778661061.3723578,2061,0,ɑ
1778661061.3748648,2055,0,ɑ
1778661061.375044,2199,0,ɑ
1778661061.377236,2162,0,ɑ
1778661061.378565,1852,0,ɑ
1778661061.379998,1868,0,ɑ
1778661061.382582,2056,0,ɑ
1778661061.3839538,2124,0,ɑ
1778661061.386529,2156,0,ɑ
1778661061.391029,2013,0,ɑ
1778661061.391126,2141,0,ɑ
1778661061.393493,1975,0,ɑ
1778661061.39538,1970,0,ɑ
1778661061.397294,1761,0,ɑ
1778661061.398751,1890,0,ɑ
1778661061.4010282,2085,0,ɑ
1778661061.402667,2173,0,ɑ
1778661061.403969,1964,0,ɑ
1778661061.406514,2119,0,ɑ
1778661061.411158,2213,0,ɑ
1778661061.411593,1978,0,ɑ
1778661061.4156,1844,0,ɑ
1778661061.4160671,1914,0,ɑ
1778661061.4168031,2117,0,ɑ
1778661061.419353,2164,0,ɑ
1778661061.4216619,2041,0,ɑ
1778661061.423796,2201,0,ɑ
1778661061.423926,2273,0,ɑ
1778661061.4265,2075,0,ɑ
1778661061.42924,1856,0,ɑ
1778661061.430645,1773,0,ɑ
1778661061.432974,2031,0,ɑ
1778661061.437053,2155,0,ɑ
1778661061.438099,2127,0,ɑ
1778661061.440298,2018,0,ɑ
1778661061.441965,2288,0,ɑ
1778661061.442719,2281,0,ɑ
1778661061.444308,1884,0,ɑ
1778661061.447892,1646,0,ɑ
1778661061.4481869,1967,0,ɑ
1778661061.45043,2184,0,ɑ
1778661061.452988,2172,0,ɑ
1778661061.454418,2067,0,ɑ
1778661061.460259,2164,0,ɑ
1778661061.461986,2195,0,ɑ
1778661061.469323,2130,0,ɑ
1778661061.469578,1770,0,ɑ
1778661061.470073,1873,0,ɑ
1778661061.4727738,2056,0,ɑ
1778661061.472808,2158,0,ɑ
1778661061.472834,2078,0,ɑ
1778661061.472859,2088,0,ɑ
1778661061.47415,2260,0,ɑ
1778661061.4766972,2095,0,ɑ
1778661061.477932,1842,0,ɑ
1778661061.480653,1869,0,ɑ
1778661061.488251,2150,0,ɑ
1778661061.4907908,2271,0,ɑ
1778661061.490918,2029,0,ɑ
1778661061.491301,2008,0,ɑ
1778661061.4924219,2237,0,ɑ
1778661061.499024,2210,0,ɑ
1778661061.499605,1969,0,ɑ
1778661061.499732,1749,0,ɑ
1778661061.499846,1992,0,ɑ
1778661061.499928,2070,0,ɑ
1778661061.502485,2177,0,ɑ
1778661061.507842,2037,0,ɑ
1778661061.508685,2148,0,ɑ
1778661061.510568,2258,0,ɑ
1778661061.51206,2048,0,ɑ
1778661061.516154,1817,0,ɑ
1778661061.518805,1941,0,ɑ
1778661061.518969,2045,0,ɑ
1778661061.5191529,2108,0,ɑ
1778661061.521364,2015,0,ɑ
1778661061.5227048,2199,0,ɑ
1778661061.5240052,2262,0,ɑ
1778661061.52657,2103,0,ɑ
1778661061.52803,1887,0,ɑ
1778661061.530714,1758,0,ɑ
1778661061.535935,2114,0,ɑ
1778661061.536427,2204,0,ɑ
1778661061.537514,2091,0,ɑ
1778661061.539258,2088,0,ɑ
1778661061.5416708,2271,0,ɑ
1778661061.5432901,2088,0,ɑ
1778661061.544749,1868,0,ɑ
1778661061.5473201,1733,0,ɑ
1778661061.549576,2003,0,ɑ
1778661061.550875,2116,0,ɑ
1778661061.552011,2138,0,ɑ
1778661061.5572789,1997,0,ɑ
1778661061.557698,2121,0,ɑ
1778661061.559874,2316,0,ɑ
1778661061.55999,2036,0,ɑ
1778661061.564548,1820,0,ɑ
1778661061.564663,1966,0,ɑ
1778661061.5669289,1946,0,ɑ
1778661061.568619,2096,0,ɑ
1778661061.570018,2080,0,ɑ
1778661061.572649,2142,0,ɑ
1778661061.5739388,2256,0,ɑ
1778661061.576492,2090,0,ɑ
1778661061.5779421,1903,0,ɑ
1778661061.581779,1805,0,ɑ
1778661061.582185,2098,0,ɑ
1778661061.584291,2172,0,ɑ
1778661061.587501,2006,0,ɑ
1778661061.5891562,2047,0,ɑ
1778661061.591449,2239,0,ɑ
1778661061.5934122,2205,0,ɑ
1778661061.594711,1881,0,ɑ
1778661061.596103,1725,0,ɑ
1778661061.598664,2008,0,ɑ
1778661061.599961,2126,0,ɑ
1778661061.6067278,2107,0,ɑ
1778661061.6072059,2098,0,ɑ
1778661061.6079419,2291,0,ɑ
1778661061.608031,2090,0,ɑ
1778661061.610899,1961,0,ɑ
1778661061.613929,1775,0,ɑ
1778661061.6141078,1946,0,ɑ
1778661061.616451,2053,0,ɑ
1778661061.6184409,2133,0,ɑ
1778661061.620818,2044,0,ɑ
1778661061.6224551,2040,0,ɑ
1778661061.628018,2220,0,ɑ
1778661061.631604,2094,0,ɑ
1778661061.633718,1848,0,ɑ
1778661061.6354759,1757,0,ɑ
1778661061.639869,2065,0,ɑ
1778661061.640307,2160,0,ɑ
1778661061.6419342,2130,0,ɑ
1778661061.6422489,2042,0,ɑ
1778661061.642483,2185,0,ɑ
1778661061.642522,2107,0,ɑ
1778661061.645201,1887,0,ɑ
1778661061.646653,1652,0,ɑ
1778661061.648171,1943,0,ɑ
1778661061.650728,2187,0,ɑ
1778661061.65586,2200,0,ɑ
1778661061.656244,2002,0,ɑ
1778661061.6570802,2065,0,ɑ
1778661061.658992,2199,0,ɑ
1778661061.661171,2156,0,ɑ
1778661061.666532,1776,0,ɑ
1778661061.666825,1765,0,ɑ
1778661061.668622,1970,0,ɑ
1778661061.6688159,2062,0,ɑ
1778661061.670107,2010,0,ɑ
1778661061.672671,2026,0,ɑ
1778661061.676846,2222,0,ɑ
1778661061.677286,2175,0,ɑ
1778661061.679338,1835,0,ɑ
1778661061.680931,1677,0,ɑ
1778661061.682476,2062,0,ɑ
1778661061.684552,2185,0,ɑ
1778661061.68691,2183,0,ɑ
1778661061.688826,1899,0,ɑ
1778661061.6901262,2135,0,ɑ
1778661061.692676,2182,0,ɑ
1778661061.693967,1848,0,ɑ
1778661061.696563,1623,0,ɑ
1778661061.697925,2057,0,ɑ
1778661061.702441,2122,0,ɑ
1778661061.702484,2119,0,ɑ
1778661061.705044,2003,0,ɑ
1778661061.710294,2073,0,ɑ
1778661061.71311,2203,0,ɑ
1778661061.7133281,2038,0,ɑ
1778661061.715719,1787,0,ɑ
1778661061.715876,1868,0,ɑ
1778661061.7159529,2040,0,ɑ
1778661061.7185888,2138,0,ɑ
1778661061.721546,2034,0,ɑ
1778661061.7274492,2040,0,ɑ
1778661061.729409,2210,0,ɑ
1778661061.72953,2069,0,ɑ
1778661061.731065,1890,0,ɑ
1778661061.731447,1763,0,ɑ
1778661061.7358131,2028,0,ɑ
1778661061.735925,2121,0,ɑ
1778661061.7379808,2118,0,ɑ
1778661061.738017,2020,0,ɑ
1778661061.740501,2121,0,ɑ
1778661061.7419431,2327,0,ɑ
1778661061.744521,2116,0,ɑ
1778661061.7473001,1511,0,ɑ
1778661061.752481,1908,0,ɑ
1778661061.752543,2050,0,ɑ
1778661061.752743,2086,0,ɑ
1778661061.755473,1970,0,ɑ
1778661061.757057,2003,0,ɑ
1778661061.758765,2313,0,ɑ
1778661061.760823,2020,0,ɑ
1778661061.765733,1834,0,ɑ
1778661061.765884,1906,0,ɑ
1778661061.7660449,2003,0,ɑ
1778661061.7686012,2182,0,ɑ
1778661061.769974,2089,0,ɑ
1778661061.774359,2025,0,ɑ
1778661061.774457,2228,0,ɑ
1778661061.779436,2093,0,ɑ
1778661061.782076,1853,0,ɑ
1778661061.782163,1753,0,ɑ
1778661061.784559,2057,0,ɑ
1778661061.78475,2172,0,ɑ
1778661061.786806,2161,0,ɑ
1778661061.78821,2013,0,ɑ
1778661061.79076,2153,0,ɑ
1778661061.792057,2146,0,ɑ
1778661061.7946198,1895,0,ɑ
1778661061.796046,1708,0,ɑ
1778661061.803165,1972,0,ɑ
1778661061.8032699,2101,0,ɑ
1778661061.804925,2169,0,ɑ
1778661061.8050401,2031,0,ɑ
1778661061.806844,2097,0,ɑ
1778661061.811299,2209,0,ɑ
1778661061.8116748,2024,0,ɑ
1778661061.814649,1783,0,ɑ
1778661061.8147871,1869,0,ɑ
1778661061.8163168,2087,0,ɑ
1778661061.818937,2160,0,ɑ
1778661061.823641,2146,0,ɑ
1778661061.823702,2036,0,ɑ
1778661061.826275,2156,0,ɑ
1778661061.826356,2161,0,ɑ
1778661061.828224,1861,0,ɑ
1778661061.831458,1746,0,ɑ
1778661061.833787,2033,0,ɑ
1778661061.835853,2020,0,ɑ
1778661061.835883,2176,0,ɑ
1778661061.838439,2005,0,ɑ
1778661061.840996,2158,0,ɑ
1778661061.8422852,2182,0,ɑ
1778661061.848414,1936,0,ɑ
1778661061.8492658,1719,0,ɑ
1778661061.849351,1977,0,ɑ
1778661061.851458,2129,0,ɑ
1778661061.8533518,2253,0,ɑ
1778661061.855202,2013,0,ɑ
1778661061.85866,1959,0,ɑ
1778661061.858902,2174,0,ɑ
1778661061.860806,2078,0,ɑ
1778661061.862139,1829,0,ɑ
1778661061.864712,1935,0,ɑ
1778661061.8690119,2056,0,ɑ
1778661061.869505,2071,0,ɑ
1778661061.8718998,2055,0,ɑ
1778661061.8719912,2126,0,ɑ
1778661061.874797,2275,0,ɑ
1778661061.8766341,2150,0,ɑ
1778661061.878953,1880,0,ɑ
1778661061.880904,1746,0,ɑ
1778661061.882211,2000,0,ɑ
1778661061.884764,2141,0,ɑ
1778661061.8860512,2151,0,ɑ
1778661061.888598,2049,0,ɑ
1778661061.889884,2180,0,ɑ
1778661061.893875,2183,0,ɑ
1778661061.8939662,1965,0,ɑ
1778661061.897968,1708,0,ɑ
1778661061.898428,1955,0,ɑ
1778661061.900309,2086,0,ɑ
1778661061.903734,2149,0,ɑ
1778661061.905704,2029,0,ɑ
1778661061.906999,2147,0,ɑ
1778661061.9082859,2249,0,ɑ
1778661061.910833,2029,0,ɑ
1778661061.91212,1757,0,ɑ
1778661061.9146712,1825,0,ɑ
1778661061.918813,2048,0,ɑ
1778661061.91888,2188,0,ɑ
1778661061.9212701,2070,0,ɑ
1778661061.92305,2011,0,ɑ
1778661061.924622,2199,0,ɑ
1778661061.926356,2142,0,ɑ
1778661061.928593,1906,0,ɑ
1778661061.930442,1747,0,ɑ
1778661061.933002,1992,0,ɑ
1778661061.934292,2072,0,ɑ
1778661061.936857,2179,0,ɑ
1778661061.938147,2068,0,ɑ
1778661061.944118,2171,0,ɑ
1778661061.944915,2169,0,ɑ
1778661061.9468942,1933,0,ɑ
1778661061.946957,1692,0,ɑ
1778661061.948899,1963,0,ɑ
1778661061.950804,2114,0,ɑ
1778661061.95423,2143,0,ɑ
1778661061.9546208,2033,0,ɑ
1778661061.956126,2154,0,ɑ
1778661061.958694,2247,0,ɑ
1778661061.960007,2094,0,ɑ
1778661061.964312,1793,0,ɑ
1778661061.9644108,1885,0,ɑ
1778661061.966795,2146,0,ɑ
1778661061.968648,2182,0,ɑ
1778661061.971809,2041,0,ɑ
1778661061.97193,2212,0,ɑ
1778661061.974126,2356,0,ɑ
1778661061.976953,1862,0,ɑ
1778661061.978243,1758,0,ɑ
1778661061.980916,1979,0,ɑ
1778661061.9822311,2101,0,ɑ
1778661061.9847949,2090,0,ɑ
1778661061.988957,2092,0,ɑ
1778661061.9893692,1956,0,ɑ
1778661061.99137,2077,0,ɑ
1778661061.993509,2320,0,ɑ
1778661061.996175,2285,0,ɑ
1778661061.998313,1683,0,ɑ
1778661061.998626,1697,0,ɑ
1778661062.00047,1999,0,ɑ
1778661062.001848,2097,0,ɑ
1778661062.0043972,2075,0,ɑ
1778661062.005833,2476,0,ɑ
1778661062.008379,2397,0,ɑ
1778661062.0139148,1533,0,ɑ
1778661062.015413,1853,0,ɑ
1778661062.015574,2155,0,ɑ
1778661062.017229,2311,0,ɑ
1778661062.01902,2159,0,ɑ
1778661062.022274,1959,0,ɑ
1778661062.022389,2228,0,ɑ
1778661062.023937,1608,0,ɑ
1778661062.026645,2230,0,ɑ
1778661062.0279748,2288,0,ɑ
1778661062.0305622,1984,0,ɑ
1778661062.031851,1957,0,ɑ
1778661062.0374012,2130,0,ɑ
1778661062.0378082,2208,0,ɑ
1778661062.038205,1843,0,ɑ
1778661062.040909,2258,0,ɑ
1778661062.0426419,2338,0,ɑ
1778661062.044318,1755,0,ɑ
1778661062.046788,1689,0,ɑ
1778661062.048654,2065,0,ɑ
1778661062.0499442,2102,0,ɑ
1778661062.052487,2079,0,ɑ
1778661062.053822,2138,0,ɑ
1778661062.056402,2208,0,ɑ
1778661062.061267,2316,0,ɑ
1778661062.061675,2087,0,ɑ
1778661062.063761,1788,0,ɑ
1778661062.0651782,1808,0,ɑ
1778661062.06669,2030,0,ɑ
1778661062.068584,2166,0,ɑ
1778661062.0706902,2113,0,ɑ
1778661062.072564,2098,0,ɑ
1778661062.073853,2380,0,ɑ
1778661062.076402,2170,0,ɑ
1778661062.079051,1709,0,ɑ
1778661062.0802078,1542,0,ɑ
1778661062.084748,2165,0,ɑ
1778661062.085221,2313,0,ɑ
1778661062.087289,2169,0,ɑ
1778661062.0889118,1985,0,ɑ
1778661062.0907362,2176,0,ɑ
1778661062.094003,2255,0,ɑ
1778661062.094134,2022,0,ɑ
1778661062.0969012,1775,0,ɑ
1778661062.098194,1976,0,ɑ
1778661062.100749,2135,0,ɑ
1778661062.10204,2063,0,ɑ
1778661062.104599,1941,0,ɑ
1778661062.108673,1966,0,ɑ
1778661062.1107469,2163,0,ɑ
1778661062.110823,2148,0,ɑ
1778661062.112566,1609,0,ɑ
1778661062.114411,1878,0,ɑ
1778661062.1177049,2103,0,ɑ
1778661062.117942,2142,0,ɑ
1778661062.120573,2081,0,ɑ
1778661062.1218581,2062,0,ɑ
1778661062.1244092,2253,0,ɑ
1778661062.1269498,2182,0,ɑ
1778661062.1315541,1899,0,ɑ
1778661062.132313,1730,0,ɑ
1778661062.132376,1981,0,ɑ
1778661062.134341,2178,0,ɑ
1778661062.136114,2187,0,ɑ
1778661062.138926,1845,0,ɑ
1778661062.141065,2005,0,ɑ
1778661062.142875,2282,0,ɑ
1778661062.14418,2087,0,ɑ
1778661062.146795,1740,0,ɑ
1778661062.148088,1890,0,ɑ
1778661062.150471,1987,0,ɑ
1778661062.152013,2181,0,ɑ
1778661062.1556711,2124,0,ɑ
1778661062.156068,2153,0,ɑ
1778661062.1579268,2148,0,ɑ
1778661062.1608052,1994,0,ɑ
1778661062.16472,1866,0,ɑ
1778661062.164844,1953,0,ɑ
1778661062.1667898,2141,0,ɑ
1778661062.1680799,1613,0,ɑ
1778661062.170666,2014,0,ɑ
1778661062.1719549,2291,0,ɑ
1778661062.174428,2328,0,ɑ
1778661062.1759832,2170,0,ɑ
1778661062.1820118,1753,0,ɑ
1778661062.183428,1443,0,ɑ
1778661062.183563,2010,0,ɑ
1778661062.1868439,2522,0,ɑ
1778661062.186944,2144,0,ɑ
1778661062.189024,1888,0,ɑ
1778661062.190978,2161,0,ɑ
1778661062.192267,2261,0,ɑ
1778661062.1948202,1856,0,ɑ
1778661062.1961129,1626,0,ɑ
1778661062.198476,1986,0,ɑ
1778661062.1998641,2002,0,ɑ
1778661062.203558,2145,0,ɑ
1778661062.205881,2018,0,ɑ
1778661062.207304,2084,0,ɑ
1778661062.2106519,2309,0,ɑ
1778661062.215182,1655,0,ɑ
1778661062.215275,1814,0,ɑ
1778661062.215371,2343,0,ɑ
1778661062.216705,2044,0,ɑ
1778661062.2178838,1447,0,ɑ
1778661062.2204301,2327,0,ɑ
1778661062.222985,2555,0,ɑ
1778661062.228161,2271,0,ɑ
1778661062.22832,2065,0,ɑ
1778661062.230669,1801,0,ɑ
1778661062.23086,1512,0,ɑ
1778661062.2321742,2156,0,ɑ
1778661062.235403,2303,0,ɑ
1778661062.2375412,2088,0,ɑ
1778661062.239396,1938,0,ɑ
1778661062.240745,2085,0,ɑ
1778661062.242041,2389,0,ɑ
1778661062.244603,2091,0,ɑ
1778661062.245897,2061,0,ɑ
1778661062.248502,2109,0,ɑ
1778661062.25344,2175,0,ɑ
1778661062.255529,2103,0,ɑ
1778661062.2573829,2004,0,ɑ
1778661062.257493,2110,0,ɑ
1778661062.2590132,2325,0,ɑ
1778661062.260766,2244,0,ɑ
1778661062.264758,1765,0,ɑ
1778661062.265131,1693,0,ɑ
1778661062.266433,2143,0,ɑ
1778661062.267835,2359,0,ɑ
1778661062.273291,2131,0,ɑ
1778661062.2744582,2212,0,ɑ
1778661062.274884,2290,0,ɑ
1778661062.277696,2260,0,ɑ
1778661062.278154,2183,0,ɑ
1778661062.281112,1937,0,ɑ
1778661062.283442,2248,0,ɑ
1778661062.285234,2493,0,ɑ
1778661062.286495,1867,0,ɑ
1778661062.2878132,2031,0,ɑ
1778661062.290377,2015,0,ɑ
1778661062.292925,2261,0,ɑ
1778661062.294215,2390,0,ɑ
1778661062.2985878,1942,0,ɑ
1778661062.299077,2231,0,ɑ
1778661062.3016052,2249,0,ɑ
1778661062.303091,2286,0,ɑ
1778661062.304957,2416,0,ɑ
1778661062.306572,2713,0,ɑ
1778661062.308887,2682,0,ɑ
1778661062.310922,2107,0,ɑ
1778661062.312319,2137,0,ɑ
1778661062.3149078,1537,0,ɑ
1778661062.316206,2711,0,ɑ
1778661062.318754,1968,0,ɑ
1778661062.3236868,1618,0,ɑ
1778661062.324359,2783,0,ɑ
1778661062.3251069,2922,0,ɑ
1778661062.3279161,2346,0,ɑ
1778661062.3280199,1987,0,ɑ
1778661062.3308449,1964,0,ɑ
1778661062.3331058,2446,0,ɑ
1778661062.33511,2528,0,ɑ
1778661062.336381,2469,0,ɑ
1778661062.338932,2162,0,ɑ
1778661062.340217,2468,0,ɑ
1778661062.342767,2564,0,ɑ
1778661062.347568,2326,0,ɑ
1778661062.348025,1672,0,ɑ
1778661062.348499,1463,0,ɑ
1778661062.3499782,2679,0,ɑ
1778661062.353222,2868,0,ɑ
1778661062.354733,2086,0,ɑ
1778661062.357019,2297,0,ɑ
1778661062.358757,2634,0,ɑ
1778661062.360051,2406,0,ɑ
1778661062.362616,2033,0,ɑ
1778661062.363917,2238,0,ɑ
1778661062.366283,2303,0,ɑ
1778661062.3719192,2488,0,ɑ
1778661062.372011,2289,0,ɑ
1778661062.373771,2077,0,ɑ
1778661062.373869,2614,0,ɑ
1778661062.376874,2375,0,ɑ
1778661062.37851,2060,0,ɑ
1778661062.380747,2304,0,ɑ
1778661062.3823261,2233,0,ɑ
1778661062.3848782,2378,0,ɑ
1778661062.386173,2333,0,ɑ
1778661062.3887172,2337,0,ɑ
1778661062.390002,2465,0,ɑ
1778661062.3944461,2224,0,ɑ
1778661062.395113,1951,0,ɑ
1778661062.397124,1935,0,ɑ
1778661062.398576,2121,0,ɑ
1778661062.400649,2581,0,ɑ
1778661062.404096,2375,0,ɑ
1778661062.404196,1988,0,ɑ
1778661062.4069,2236,0,ɑ
1778661062.4081879,2432,0,ɑ
1778661062.410626,2192,0,ɑ
1778661062.411923,1871,0,ɑ
1778661062.4144828,1847,0,ɑ
1778661062.418045,2152,0,ɑ
1778661062.418475,2421,0,ɑ
1778661062.420636,1967,0,ɑ
1778661062.4222221,1947,0,ɑ
1778661062.425361,1986,0,ɑ
1778661062.427704,2331,0,ɑ
1778661062.427845,2247,0,ɑ
1778661062.430559,1828,0,ɑ
1778661062.43185,1996,0,ɑ
1778661062.434446,2261,0,ɑ
1778661062.4358149,2452,0,ɑ
1778661062.438333,2224,0,ɑ
1778661062.441997,2260,0,ɑ
1778661062.4433439,2413,0,ɑ
1778661062.445806,1989,0,ɑ
1778661062.446207,1516,0,ɑ
1778661062.4490612,2045,0,ɑ
1778661062.4515111,2104,0,ɑ
1778661062.4533372,2094,0,ɑ
1778661062.454632,2158,0,ɑ
1778661062.455919,2248,0,ɑ
1778661062.4584692,2605,0,ɑ
1778661062.459865,2128,0,ɑ
1778661062.465905,1625,0,ɑ
1778661062.466392,1843,0,ɑ
1778661062.4667578,2204,0,ɑ
1778661062.4692092,2137,0,ɑ
1778661062.4712,2173,0,ɑ
1778661062.4745579,2068,0,ɑ
1778661062.474725,2297,0,ɑ
1778661062.476592,2338,0,ɑ
1778661062.4778821,1964,0,ɑ
1778661062.480447,1797,0,ɑ
1778661062.481898,2128,0,ɑ
1778661062.484446,2200,0,ɑ
1778661062.4893901,2388,0,ɑ
1778661062.489463,1988,0,ɑ
1778661062.491446,1883,0,ɑ
1778661062.493384,2224,0,ɑ
1778661062.496,2010,0,ɑ
1778661062.49839,2020,0,ɑ
1778661062.498543,2173,0,ɑ
1778661062.500415,1712,0,ɑ
1778661062.5030148,2264,0,ɑ
1778661062.504309,2149,0,ɑ
1778661062.506853,2120,0,ɑ
1778661062.5081432,2281,0,ɑ
1778661062.512765,2080,0,ɑ
1778661062.512807,1796,0,ɑ
1778661062.515102,1758,0,ɑ
1778661062.518621,1857,0,ɑ
1778661062.520262,2109,0,ɑ
1778661062.522796,2225,0,ɑ
1778661062.524905,2122,0,ɑ
1778661062.525011,2201,0,ɑ
1778661062.526366,2192,0,ɑ
1778661062.529032,2037,0,ɑ
1778661062.530456,1649,0,ɑ
1778661062.5318289,1893,0,ɑ
1778661062.539319,2109,0,ɑ
1778661062.540979,2156,0,ɑ
1778661062.541265,2056,0,ɑ
1778661062.543626,2103,0,ɑ
1778661062.5441122,2118,0,ɑ
1778661062.544205,1950,0,ɑ
1778661062.5495539,1807,0,ɑ
1778661062.5499132,1929,0,ɑ
1778661062.55014,2100,0,ɑ
1778661062.5533671,2168,0,ɑ
1778661062.554722,2046,0,ɑ
1778661062.556055,2100,0,ɑ
1778661062.562646,2278,0,ɑ
1778661062.564841,2051,0,ɑ
1778661062.5666401,1764,0,ɑ
1778661062.568223,1718,0,ɑ
1778661062.570816,2148,0,ɑ
1778661062.5711129,2097,0,ɑ
1778661062.571265,2114,0,ɑ
1778661062.5730822,2102,0,ɑ
1778661062.5744488,2188,0,ɑ
1778661062.5758562,2146,0,ɑ
1778661062.578506,1875,0,ɑ
1778661062.5800161,1700,0,ɑ
1778661062.586771,2107,0,ɑ
1778661062.587353,1868,0,ɑ
1778661062.589275,1796,0,ɑ
1778661062.591347,2160,0,ɑ
1778661062.59257,2292,0,ɑ
1778661062.594667,2197,0,ɑ
1778661062.597565,1867,0,ɑ
1778661062.5998552,1691,0,ɑ
1778661062.599997,1952,0,ɑ
1778661062.600093,2102,0,ɑ
1778661062.602756,2175,0,ɑ
1778661062.608159,2027,0,ɑ
1778661062.6089559,2052,0,ɑ
1778661062.6105978,2244,0,ɑ
1778661062.6143832,2055,0,ɑ
1778661062.615343,1786,0,ɑ
1778661062.6169322,1775,0,ɑ
1778661062.619427,2075,0,ɑ
1778661062.619721,2162,0,ɑ
1778661062.620209,2051,0,ɑ
1778661062.623074,1971,0,ɑ
1778661062.624467,2191,0,ɑ
1778661062.625845,2136,0,ɑ
1778661062.6285288,1851,0,ɑ
1778661062.629923,1581,0,ɑ
1778661062.63671,1982,0,ɑ
1778661062.640359,2149,0,ɑ
1778661062.642102,2131,0,ɑ
1778661062.644048,1978,0,ɑ
1778661062.646639,2106,0,ɑ
1778661062.647259,2199,0,ɑ
1778661062.649438,1982,0,ɑ
1778661062.6497211,1670,0,ɑ
1778661062.649811,1887,0,ɑ
1778661062.6498828,2055,0,ɑ
1778661062.652533,2159,0,ɑ
1778661062.6577249,2064,0,ɑ
1778661062.659625,2143,0,ɑ
1778661062.661002,2177,0,ɑ
1778661062.661259,2035,0,ɑ
1778661062.6665542,1815,0,ɑ
1778661062.66685,1759,0,ɑ
1778661062.669371,2027,0,ɑ
1778661062.669677,2123,0,ɑ
1778661062.669909,2075,0,ɑ
1778661062.67202,1989,0,ɑ
1778661062.6751711,2192,0,ɑ
1778661062.676312,2143,0,ɑ
1778661062.679086,1863,0,ɑ
1778661062.6804018,1657,0,ɑ
1778661062.686757,1979,0,ɑ
1778661062.688782,2082,0,ɑ
1778661062.6889532,2095,0,ɑ
1778661062.690797,1973,0,ɑ
1778661062.6916769,2084,0,ɑ
1778661062.6918762,2179,0,ɑ
1778661062.697829,1981,0,ɑ
1778661062.698224,1667,0,ɑ
1778661062.698485,1852,0,ɑ
1778661062.702348,2026,0,ɑ
1778661062.702419,2118,0,ɑ
1778661062.7098858,2003,0,ɑ
1778661062.711524,2051,0,ɑ
1778661062.711874,2218,0,ɑ
1778661062.7140968,2055,0,ɑ
1778661062.715351,1806,0,ɑ
1778661062.716243,1766,0,ɑ
1778661062.718239,2040,0,ɑ
