timestamp,ch1,ch2,label
1789464451.310482,2053,2876,10
1789464451.31289,2066,2878,10
1789464451.3134022,2064,2875,10
1789464451.3155751,2070,2877,10
1789464451.317538,2075,2877,10
1789464451.3206851,2047,2876,10
1789464451.321593,2078,2877,10
1789464451.323787,2102,2877,10
1789464451.3248918,2075,2876,10
1789464451.327232,2072,2876,10
1789464451.3286731,2069,2876,10
1789464451.330753,2088,2877,10
1789464451.333141,2080,2876,10
1789464451.335277,2063,2876,10
1789464451.3375602,2088,2879,10
1789464451.3388631,2109,2877,10
1789464451.341206,2092,2877,10
1789464451.343777,2056,2875,10
1789464451.345084,2040,2877,10
1789464451.347153,2090,2879,10
1789464451.3494558,2090,2876,10
1789464451.372427,2072,2876,10
1789464451.3724859,2078,2878,10
1789464451.372519,2110,2878,10
1789464451.372565,2097,2877,10
1789464451.372596,2050,2876,10
1789464451.390702,2053,2877,10
1789464451.390848,2066,2876,10
1789464451.390922,2092,2877,10
1789464451.394298,2065,2876,10
1789464451.3943732,2055,2875,10
1789464451.3944361,2097,2877,10
1789464451.3982542,2101,2876,10
1789464451.414813,2080,2877,10
1789464451.41495,2063,2877,10
1789464451.4150012,2064,2878,10
1789464451.415037,2078,2876,10
1789464451.415071,2094,2877,10
1789464451.415103,2075,2877,10
1789464451.415135,2082,2879,10
1789464451.4152489,2095,2878,10
1789464451.415336,2077,2877,10
1789464451.415375,2051,2877,10
1789464451.4154072,2053,2877,10
1789464451.415442,2086,2876,10
1789464451.415475,2076,2876,10
1789464451.4155068,2076,2877,10
1789464451.4155378,2072,2878,10
1789464451.41557,2097,2878,10
1789464451.415602,2090,2875,10
1789464451.415634,2060,2876,10
1789464451.415665,2063,2878,10
1789464451.4156969,2079,2878,10
1789464451.4157288,2094,2876,10
1789464451.417109,2098,2876,10
1789464451.419615,2084,2879,10
1789464451.420949,2106,2877,10
1789464451.423518,2121,2876,10
1789464451.425099,2062,2877,10
1789464451.4274461,2060,2876,10
1789464451.4286752,2067,2878,10
1789464451.430964,2100,2878,10
1789464451.43354,2070,2876,10
1789464451.434636,2048,2876,10
1789464451.4367192,2101,2878,10
1789464451.439281,2091,2877,10
1789464451.441354,2093,2876,10
1789464451.4434319,2060,2877,10
1789464451.4489841,2064,2877,10
1789464451.449145,2086,2875,10
1789464451.450151,2080,2876,10
1789464451.452169,2060,2876,10
1789464451.453998,2065,2879,10
1789464451.456053,2102,2878,10
1789464451.4579399,2097,2876,10
1789464451.460994,2054,2877,10
1789464451.4610791,2042,2876,10
1789464451.4636428,2083,2877,10
1789464451.464941,2078,2877,10
1789464451.467502,2073,2876,10
1789464451.4695702,2057,2876,10
1789464451.470668,2090,2877,10
1789464451.4731462,2091,2876,10
1789464451.475698,2066,2876,10
1789464451.476754,2055,2876,10
1789464451.479071,2077,2877,10
1789464451.481626,2071,2875,10
1789464451.482916,2083,2877,10
1789464451.485224,2056,2876,10
1789464451.4872892,2077,2877,10
1789464451.489845,2085,2877,10
1789464451.490905,2068,2877,10
1789464451.495808,2060,2876,10
1789464451.495937,2071,2877,10
1789464451.4983912,2082,2875,10
1789464451.500865,2102,2876,10
1789464451.501638,2076,2876,10
1789464451.504308,2082,2879,10
1789464451.507345,2110,2876,10
1789464451.507382,2105,2876,10
1789464451.508685,2066,2877,10
1789464451.510803,2046,2877,10
1789464451.5131378,2075,2878,10
1789464451.5155468,2092,2877,10
1789464451.5166981,2081,2876,10
1789464451.519157,2059,2876,10
1789464451.521454,2082,2878,10
1789464451.523541,2081,2876,10
1789464451.524651,2073,2877,10
1789464451.527095,2058,2876,10
1789464451.529461,2064,2877,10
1789464451.530782,2089,2876,10
1789464451.532864,2053,2877,10
1789464451.535458,2070,2876,10
1789464451.5375412,2089,2878,10
1789464451.5386398,2104,2878,10
1789464451.545228,2081,2876,10
1789464451.5462542,2056,2876,10
1789464451.546758,2056,2878,10
1789464451.547244,2085,2876,10
1789464451.550294,2093,2874,10
1789464451.551876,2081,2876,10
1789464451.5544808,2075,2879,10
1789464451.5557508,2106,2877,10
1789464451.557934,2095,2876,10
1789464451.559248,2060,2876,10
1789464451.56161,2058,2878,10
1789464451.566612,2083,2879,10
1789464451.567969,2088,2876,10
1789464451.569848,2083,2876,10
1789464451.571572,2065,2876,10
1789464451.572206,2097,2879,10
1789464451.5740821,2093,2875,10
1789464451.577088,2070,2876,10
1789464451.5775292,2060,2875,10
1789464451.57993,2071,2877,10
1789464451.581022,2074,2876,10
1789464451.5835898,2074,2877,10
1789464451.58467,2065,2876,10
1789464451.5867531,2086,2878,10
1789464451.588821,2100,2877,10
1789464451.590901,2087,2876,10
1789464451.5929852,2075,2876,10
1789464451.5950599,2069,2877,10
1789464451.597402,2105,2879,10
1789464451.598707,2098,2876,10
1789464451.601026,2086,2878,10
1789464451.603341,2073,2877,10
1789464451.605427,2104,2877,10
1789464451.607512,2077,2878,10
1789464451.608685,2074,2877,10
1789464451.610784,2038,2877,10
1789464451.617816,2067,2876,10
1789464451.618766,2083,2876,10
1789464451.619818,2091,2876,10
1789464451.623012,2069,2877,10
1789464451.625129,2094,2876,10
1789464451.6260118,2115,2876,10
1789464451.6276128,2073,2877,10
1789464451.62895,2048,2877,10
1789464451.629311,2075,2877,10
1789464451.631555,2078,2875,10
1789464451.6326542,2092,2876,10
1789464451.634751,2067,2876,10
1789464451.6416588,2079,2878,10
1789464451.643902,2099,2877,10
1789464451.6440508,2089,2876,10
1789464451.6441689,2064,2876,10
1789464451.646376,2063,2878,10
1789464451.648143,2070,2876,10
1789464451.650523,2088,2876,10
1789464451.654002,2077,2876,10
1789464451.654249,2079,2878,10
1789464451.655554,2102,2876,10
1789464451.6566532,2101,2877,10
1789464451.65923,2060,2875,10
1789464451.661323,2061,2877,10
1789464451.66341,2086,2878,10
1789464451.6655018,2093,2876,10
1789464451.666802,2078,2877,10
1789464451.6693609,2054,2876,10
1789464451.671678,2090,2879,10
1789464451.672982,2092,2876,10
1789464451.675541,2065,2876,10
1789464451.676665,2043,2876,10
1789464451.6790028,2049,2874,10
1789464451.681082,2073,2876,10
1789464451.683392,2093,2876,10
1789464451.68578,2064,2877,10
1789464451.687077,2065,2878,10
1789464451.6938822,2108,2876,10
1789464451.694751,2078,2876,10
1789464451.696181,2057,2876,10
1789464451.696382,2060,2877,10
1789464451.698357,2080,2876,10
1789464451.700267,2078,2876,10
1789464451.702635,2058,2877,10
1789464451.702872,2077,2878,10
1789464451.7059982,2113,2878,10
1789464451.707306,2105,2877,10
1789464451.70998,2061,2877,10
1789464451.71469,2067,2877,10
1789464451.715472,2081,2878,10
1789464451.71596,2099,2875,10
1789464451.717686,2081,2876,10
1789464451.7200031,2044,2876,10
1789464451.721761,2074,2876,10
1789464451.723244,2088,2876,10
1789464451.7262871,2063,2875,10
1789464451.7278872,2051,2877,10
1789464451.728983,2065,2877,10
1789464451.7319171,2082,2875,10
1789464451.7330098,2098,2877,10
1789464451.735096,2077,2878,10
1789464451.7372968,2076,2878,10
1789464451.7395892,2092,2878,10
1789464451.7407749,2084,2877,10
1789464451.743113,2073,2876,10
1789464451.7452319,2042,2878,10
1789464451.7478,2066,2876,10
1789464451.749115,2074,2876,10
1789464451.751279,2066,2875,10
1789464451.753493,2068,2879,10
1789464451.755726,2104,2878,10
1789464451.756798,2109,2877,10
1789464451.75949,2071,2877,10
1789464451.7650838,2050,2877,10
1789464451.7656572,2084,2878,10
1789464451.767828,2089,2877,10
1789464451.7679849,2082,2876,10
1789464451.770522,2073,2876,10
1789464451.774755,2090,2877,10
1789464451.775038,2106,2876,10
1789464451.776351,2059,2876,10
1789464451.778833,2048,2876,10
1789464451.7788842,2079,2877,10
1789464451.781454,2085,2875,10
1789464451.78638,2080,2877,10
1789464451.787315,2086,2876,10
1789464451.78748,2080,2879,10
1789464451.78975,2098,2876,10
1789464451.7918952,2076,2877,10
1789464451.793906,2056,2876,10
1789464451.795839,2061,2877,10
1789464451.7994702,2077,2876,10
1789464451.799516,2096,2876,10
1789464451.800821,2064,2877,10
1789464451.803398,2082,2877,10
1789464451.805512,2083,2878,10
1789464451.806838,2081,2876,10
1789464451.8094091,2071,2875,10
1789464451.8108,2048,2878,10
1789464451.813376,2070,2875,10
1789464451.814582,2068,2877,10
1789464451.8166761,2082,2876,10
1789464451.8192441,2071,2875,10
1789464451.820585,2105,2877,10
1789464451.823009,2092,2876,10
1789464451.825331,2062,2876,10
1789464451.82765,2062,2876,10
1789464451.828892,2070,2878,10
1789464451.83132,2088,2875,10
1789464451.836767,2087,2876,10
1789464451.83729,2055,2876,10
1789464451.837945,2080,2878,10
1789464451.839869,2118,2876,10
1789464451.842182,2087,2875,10
1789464451.844438,2050,2876,10
1789464451.8459892,2056,2877,10
1789464451.847533,2072,2875,10
1789464451.8496928,2071,2877,10
1789464451.850945,2050,2876,10
1789464451.853288,2063,2879,10
1789464451.858512,2100,2878,10
1789464451.8599548,2088,2877,10
1789464451.8615801,2068,2876,10
1789464451.863636,2045,2878,10
1789464451.864799,2078,2875,10
1789464451.8649979,2085,2876,10
1789464451.8677619,2055,2876,10
1789464451.869045,2041,2876,10
1789464451.871349,2094,2877,10
1789464451.8726661,2084,2877,10
1789464451.875009,2092,2876,10
1789464451.877596,2063,2876,10
1789464451.878672,2046,2876,10
1789464451.881226,2094,2876,10
1789464451.8834538,2072,2876,10
1789464451.884759,2070,2876,10
1789464451.8872378,2062,2877,10
1789464451.8893921,2095,2877,10
1789464451.89059,2096,2877,10
1789464451.893077,2069,2876,10
1789464451.8956559,2031,2875,10
1789464451.896965,2037,2876,10
1789464451.899122,2099,2877,10
1789464451.901448,2068,2876,10
1789464451.902575,2066,2875,10
1789464451.9049249,2082,2876,10
1789464451.910065,2083,2876,10
1789464451.9115179,2040,2877,10
1789464451.912066,2042,2876,10
1789464451.913585,2076,2875,10
1789464451.915339,2135,2880,10
1789464451.9171588,2159,2879,10
1789464451.92106,2072,2875,10
1789464451.921472,2087,2877,10
1789464451.923867,2079,2877,10
1789464451.925029,2044,2877,10
1789464451.927947,2043,2877,10
1789464451.932679,2039,2875,10
1789464451.9336991,2031,2876,10
1789464451.9342709,1979,2876,10
1789464451.9362078,2024,2876,10
1789464451.9385521,2039,2875,10
1789464451.9396281,2066,2876,10
1789464451.9423392,2059,2877,10
1789464451.943776,2113,2875,10
1789464451.946165,2106,2877,10
1789464451.94734,2005,2875,10
1789464451.9485781,2039,2876,10
1789464451.9507341,2145,2878,10
1789464451.952917,2096,2878,10
1789464451.9554508,2131,2877,10
1789464451.956545,2201,2876,10
1789464451.958823,2101,2875,10
1789464451.961069,2055,2876,10
1789464451.96314,2113,2877,10
1789464451.965217,2158,2878,10
1789464451.9673002,2156,2878,10
1789464451.968831,1997,2875,10
1789464451.971179,2000,2874,10
1789464451.973529,1985,2874,10
1789464451.974839,2001,2877,10
1789464451.9774091,2017,2876,10
1789464451.982559,2027,2875,10
1789464451.983685,2117,2876,10
1789464451.985173,2116,2877,10
1789464451.986652,2063,2874,10
1789464451.988262,2111,2878,10
1789464451.990696,2136,2877,10
1789464451.991678,2115,2877,10
1789464451.9946492,2037,2877,10
1789464451.994972,2091,2876,10
1789464451.99721,2142,2878,10
1789464451.999663,2113,2878,10
1789464452.0045671,2123,2878,10
1789464452.005436,2029,2875,10
1789464452.006027,2043,2875,10
1789464452.008092,2095,2877,10
1789464452.010491,2006,2874,10
1789464452.0106728,1978,2875,10
1789464452.01438,1922,2874,10
1789464452.016193,1922,2874,10
1789464452.018501,2154,2877,10
1789464452.018547,2136,2877,10
1789464452.020888,2141,2878,10
1789464452.023114,2201,2877,10
1789464452.025484,2199,2876,10
1789464452.026565,2116,2878,10
1789464452.0289018,2154,2877,10
1789464452.0311942,2200,2879,10
1789464452.032552,2052,2875,10
1789464452.035331,2048,2874,10
1789464452.037442,2063,2877,10
1789464452.0385852,1937,2875,10
1789464452.041097,1996,2874,10
1789464452.043224,2110,2877,10
1789464452.045596,1985,2874,10
1789464452.046704,2148,2877,10
1789464452.0490382,2138,2877,10
1789464452.055616,2009,2875,10
1789464452.056194,2072,2875,10
1789464452.0576909,2143,2877,10
1789464452.05915,1991,2876,10
1789464452.059353,1970,2874,10
1789464452.0619211,2081,2877,10
1789464452.065444,1990,2875,10
1789464452.065641,2037,2874,10
1789464452.06744,2168,2877,10
1789464452.0695722,2135,2879,10
1789464452.070714,2151,2877,10
1789464452.073251,2166,2877,10
1789464452.077857,2170,2877,10
1789464452.079403,2114,2877,10
1789464452.080894,1986,2875,10
1789464452.082674,1978,2875,10
1789464452.083592,1951,2875,10
1789464452.0855758,1869,2874,10
1789464452.088682,2111,2877,10
1789464452.089045,2219,2877,10
1789464452.0915048,2307,2877,10
1789464452.092633,2127,2877,10
1789464452.095147,2118,2879,10
1789464452.096589,2048,2876,10
1789464452.0991209,2124,2876,10
1789464452.1012921,1878,2877,10
1789464452.103677,1766,2876,10
1789464452.105021,2086,2878,10
1789464452.107353,2063,2876,10
1789464452.108661,1739,2873,10
1789464452.110991,1657,2875,10
1789464452.113127,2361,2878,10
1789464452.115505,2745,2879,10
1789464452.1169019,2437,2879,10
1789464452.118995,2198,2877,10
1789464452.121085,2116,2876,10
1789464452.12342,2191,2877,10
1789464452.129534,2145,2876,10
1789464452.130608,1856,2875,10
1789464452.131538,1899,2875,10
1789464452.133046,2009,2874,10
1789464452.133247,1931,2874,10
1789464452.135394,1705,2874,10
1789464452.137273,1811,2874,10
1789464452.1393542,2300,2878,10
1789464452.141022,2254,2876,10
1789464452.143511,1917,2873,10
1789464452.144578,1756,2875,10
1789464452.1469598,2293,2878,10
1789464452.152276,2410,2878,10
1789464452.153187,2256,2878,10
1789464452.1547961,1976,2874,10
1789464452.155015,2068,2877,10
1789464452.157129,1760,2874,10
1789464452.158962,1740,2875,10
1789464452.161055,2252,2878,10
1789464452.162667,2542,2878,10
1789464452.164961,2262,2878,10
1789464452.167541,1996,2877,10
1789464452.168606,1940,2875,10
1789464452.1711612,1795,2875,10
1789464452.173724,2374,2878,10
1789464452.175019,2336,2878,10
1789464452.177095,2055,2877,10
1789464452.179664,1927,2874,10
1789464452.180964,1620,2875,10
1789464452.183279,1633,2875,10
1789464452.184582,2082,2875,10
1789464452.1869,2304,2878,10
1789464452.189151,2278,2877,10
1789464452.1905658,2273,2878,10
1789464452.192885,2281,2877,10
1789464452.1952791,1976,2876,10
1789464452.197353,2044,2875,10
1789464452.203125,2294,2878,10
1789464452.2032309,2068,2876,10
1789464452.2040908,2005,2874,10
1789464452.205663,1909,2875,10
1789464452.2073338,1666,2874,10
1789464452.2087731,1939,2874,10
1789464452.211184,2486,2878,10
1789464452.212949,2331,2878,10
1789464452.2152262,2262,2878,10
1789464452.216563,1996,2876,10
1789464452.218891,2112,2875,10
1789464452.2232902,2214,2878,10
1789464452.22376,2319,2878,10
1789464452.2258098,2065,2877,10
1789464452.2274141,2001,2877,10
1789464452.228919,1652,2875,10
1789464452.231553,1910,2875,10
1789464452.233238,2015,2876,10
1789464452.235121,2039,2875,10
1789464452.237202,2104,2878,10
1789464452.238539,2586,2878,10
1789464452.241108,2277,2877,10
1789464452.2434309,2187,2877,10
1789464452.244548,2090,2877,10
1789464452.2471092,2083,2874,10
1789464452.249666,2102,2876,10
1789464452.2509649,2014,2876,10
1789464452.2530382,1855,2874,10
1789464452.255594,1989,2874,10
1789464452.256649,2209,2877,10
1789464452.258966,2041,2876,10
1789464452.261517,1992,2875,10
1789464452.2628129,2101,2877,10
1789464452.2653708,2159,2875,10
1789464452.266685,2080,2876,10
1789464452.273827,2085,2876,10
1789464452.273964,2199,2877,10
1789464452.274792,2107,2877,10
1789464452.274975,1999,2876,10
1789464452.277938,1986,2876,10
1789464452.279397,1935,2874,10
1789464452.281968,2039,2875,10
1789464452.283791,2191,2878,10
1789464452.286199,2114,2878,10
1789464452.287502,2188,2877,10
1789464452.288577,2140,2876,10
1789464452.293314,2058,2876,10
1789464452.2937632,2036,2876,10
1789464452.2963011,2093,2876,10
1789464452.2982678,2069,2875,10
1789464452.299653,2107,2877,10
1789464452.303566,2159,2877,10
1789464452.30386,2059,2877,10
1789464452.306027,1993,2877,10
1789464452.307347,2023,2876,10
1789464452.3095272,2108,2877,10
1789464452.310587,2120,2877,10
1789464452.313139,2045,2875,10
1789464452.3152168,1980,2875,10
1789464452.3165388,2031,2876,10
1789464452.3188648,2200,2879,10
1789464452.32142,2158,2877,10
1789464452.3227131,2052,2876,10
1789464452.3252668,2079,2876,10
1789464452.326565,2137,2876,10
1789464452.3291168,2087,2874,10
1789464452.3312798,2051,2875,10
1789464452.332577,2132,2876,10
1789464452.334846,2148,2878,10
1789464452.340393,2098,2877,10
1789464452.341175,2092,2876,10
1789464452.3416162,1943,2873,10
1789464452.343169,2050,2878,10
1789464452.344758,2149,2878,10
1789464452.3483589,2105,2875,10
1789464452.350107,2098,2876,10
1789464452.352351,2066,2875,10
1789464452.3534122,2020,2874,10
1789464452.35453,1917,2874,10
1789464452.3570938,1974,2873,10
1789464452.3596559,2032,2877,10
1789464452.3609521,2175,2877,10
1789464452.3632598,2140,2878,10
1789464452.364558,2125,2879,10
1789464452.36687,2082,2875,10
1789464452.369177,2040,2876,10
1789464452.371729,2180,2879,10
1789464452.3727748,2237,2877,10
1789464452.375326,2103,2877,10
1789464452.376621,1976,2873,10
1789464452.379144,2066,2876,10
1789464452.381728,2063,2875,10
1789464452.383025,2090,2875,10
1789464452.3873,2115,2877,10
1789464452.387841,2074,2877,10
1789464452.390048,2006,2874,10
1789464452.391875,1876,2874,10
1789464452.3934588,2204,2877,10
1789464452.3951519,2162,2877,10
1789464452.396959,2106,2876,10
1789464452.399203,2055,2876,10
1789464452.400543,2103,2875,10
1789464452.403098,2042,2875,10
1789464452.4055731,2171,2878,10
1789464452.406869,2197,2877,10
1789464452.409169,1988,2876,10
1789464452.411233,1967,2875,10
1789464452.412547,2083,2878,10
1789464452.414618,2052,2875,10
1789464452.417006,2071,2876,10
1789464452.419557,1987,2875,10
1789464452.420851,2050,2875,10
1789464452.423289,2120,2877,10
1789464452.4245849,2097,2876,10
1789464452.426647,1991,2873,10
1789464452.42895,2014,2874,10
1789464452.433745,2083,2877,10
1789464452.434243,2032,2875,10
1789464452.436468,2054,2875,10
1789464452.43666,2136,2877,10
1789464452.439798,2101,2876,10
1789464452.44167,2091,2877,10
1789464452.443532,2124,2877,10
1789464452.4452422,2044,2876,10
1789464452.446547,2148,2878,10
1789464452.4491038,2163,2879,10
1789464452.451246,2074,2876,10
1789464452.453569,2037,2875,10
1789464452.4546182,2090,2877,10
1789464452.457173,2086,2877,10
1789464452.459726,2018,2877,10
1789464452.461036,1966,2874,10
1789464452.463357,2075,2877,10
1789464452.464653,2131,2878,10
1789464452.467211,2168,2878,10
1789464452.46862,2059,2874,10
1789464452.47117,2010,2875,10
1789464452.4734879,2078,2876,10
1789464452.474781,2095,2876,10
1789464452.480722,2122,2877,10
1789464452.480876,2090,2876,10
1789464452.482031,2018,2873,10
1789464452.483726,2069,2875,10
1789464452.4852412,2107,2877,10
1789464452.486849,2095,2878,10
1789464452.488965,2122,2877,10
1789464452.4909,2108,2876,10
1789464452.4929311,2118,2877,10
1789464452.495245,2020,2874,10
1789464452.497555,2044,2875,10
1789464452.4986129,2092,2877,10
1789464452.501174,2058,2876,10
1789464452.502469,2070,2878,10
1789464452.50494,2124,2877,10
1789464452.5072482,2066,2876,10
1789464452.508539,2065,2877,10
1789464452.511086,2084,2878,10
1789464452.5135229,1937,2875,10
1789464452.514571,1954,2875,10
1789464452.516881,2162,2878,10
1789464452.519191,2094,2878,10
1789464452.5204842,2072,2876,10
1789464452.526561,2145,2877,10
1789464452.5272782,2167,2878,10
1789464452.5291898,2020,2874,10
1789464452.529321,1920,2874,10
1789464452.531111,2116,2876,10
1789464452.533823,2249,2879,10
1789464452.535174,2100,2877,10
1789464452.537036,2004,2876,10
1789464452.539051,2084,2876,10
1789464452.541249,2100,2877,10
1789464452.5425549,2092,2879,10
1789464452.545551,2036,2875,10
1789464452.546915,2089,2876,10
1789464452.549668,2053,2876,10
1789464452.55134,1920,2874,10
1789464452.552417,2066,2877,10
1789464452.554731,2171,2876,10
1789464452.557069,2091,2876,10
1789464452.5591402,2036,2877,10
1789464452.5613608,2079,2878,10
1789464452.562443,2106,2875,10
1789464452.56454,2151,2879,10
1789464452.567103,2072,2875,10
1789464452.5691872,2012,2875,10
1789464452.5759192,2000,2874,10
1789464452.5791092,2088,2877,10
1789464452.580995,2016,2875,10
1789464452.5830898,1972,2874,10
1789464452.585612,2206,2878,10
1789464452.5857458,2162,2878,10
1789464452.587841,2080,2875,10
1789464452.587991,2051,2876,10
1789464452.5880818,2132,2878,10
1789464452.5894122,2203,2878,10
1789464452.59072,2152,2877,10
1789464452.59586,2048,2877,10
1789464452.597499,2060,2876,10
1789464452.598897,2013,2876,10
1789464452.599087,2030,2877,10
1789464452.600678,2014,2876,10
1789464452.604181,2054,2875,10
1789464452.606216,2120,2876,10
1789464452.607931,2070,2876,10
1789464452.6095319,2021,2876,10
1789464452.610663,2126,2877,10
1789464452.6129742,2172,2878,10
1789464452.615286,2088,2875,10
1789464452.616609,2044,2876,10
1789464452.6186721,2112,2879,10
1789464452.6209059,2043,2877,10
1789464452.622983,2063,2876,10
1789464452.625074,2110,2876,10
1789464452.627412,2091,2876,10
1789464452.6284869,1957,2874,10
1789464452.6307971,2053,2875,10
1789464452.6333408,2121,2876,10
1789464452.634401,2132,2877,10
1789464452.6367009,2052,2877,10
1789464452.6388218,2108,2877,10
1789464452.64341,2099,2876,10
1789464452.644293,2051,2877,10
1789464452.644808,1999,2874,10
1789464452.646569,2104,2877,10
1789464452.6496089,2063,2877,10
1789464452.651652,2059,2875,10
1789464452.6536372,2072,2877,10
1789464452.655848,2123,2878,10
1789464452.657158,2111,2876,10
1789464452.659225,1988,2875,10
1789464452.6633432,2051,2876,10
1789464452.663744,2145,2878,10
1789464452.666214,2111,2876,10
1789464452.6678321,2068,2876,10
1789464452.6696682,2069,2874,10
1789464452.671306,2131,2878,10
1789464452.673386,2114,2876,10
1789464452.6750982,2049,2875,10
1789464452.676438,2018,2876,10
1789464452.6787672,2028,2876,10
1789464452.6811001,2117,2879,10
1789464452.683413,2123,2878,10
1789464452.684478,2039,2876,10
1789464452.686784,2100,2879,10
1789464452.6891,2152,2878,10
1789464452.691402,2142,2878,10
1789464452.692651,2084,2876,10
1789464452.694962,2068,2878,10
1789464452.697275,2108,2875,10
1789464452.6985521,2111,2876,10
1789464452.7006269,2071,2875,10
1789464452.703191,2049,2875,10
1789464452.705516,2074,2876,10
1789464452.710588,2088,2875,10
1789464452.711017,2040,2876,10
1789464452.711473,2030,2877,10
1789464452.7130392,2046,2875,10
1789464452.715035,2107,2876,10
1789464452.720344,2097,2876,10
1789464452.720605,2095,2878,10
1789464452.720801,2103,2878,10
1789464452.722962,2101,2877,10
1789464452.7245219,2091,2876,10
1789464452.736492,2086,2877,10
1789464452.736647,2090,2878,10
1789464452.737161,2083,2875,10
1789464452.737637,2103,2876,10
1789464452.739043,2072,2876,10
1789464452.739229,2108,2877,10
1789464452.741129,2126,2875,10
1789464452.74135,2122,2876,10
1789464452.7431319,2065,2876,10
1789464452.744433,2084,2876,10
1789464452.746996,2101,2875,10
1789464452.749089,2130,2878,10
1789464452.750421,2088,2876,10
1789464452.752704,2080,2877,10
1789464452.755146,2111,2877,10
1789464452.7564402,2106,2877,10
1789464452.758995,2093,2876,10
1789464452.7613041,2064,2877,10
1789464452.762422,2117,2878,10
1789464452.7649732,2125,2879,10
1789464452.76723,2116,2879,10
1789464452.768526,2050,2875,10
1789464452.771074,2082,2878,10
1789464452.773215,2168,2877,10
1789464452.777736,2093,2876,10
1789464452.778233,2082,2876,10
1789464452.7809951,2093,2875,10
1789464452.781172,2113,2878,10
1789464452.7826822,2125,2877,10
1789464452.786155,2099,2877,10
1789464452.7880661,2123,2877,10
1789464452.790142,2119,2877,10
1789464452.7914398,2094,2877,10
1789464452.7924879,2068,2876,10
1789464452.795056,2070,2877,10
1789464452.796522,2102,2878,10
1789464452.798839,2126,2878,10
1789464452.8013911,2105,2878,10
1789464452.80245,2082,2878,10
1789464452.805001,2149,2877,10
1789464452.807165,2126,2878,10
1789464452.8084,2071,2877,10
1789464452.8109682,2079,2877,10
1789464452.813524,2082,2877,10
1789464452.8145752,2114,2877,10
1789464452.81713,2081,2875,10
1789464452.819254,2106,2878,10
1789464452.8205462,2127,2876,10
1789464452.825021,2160,2878,10
1789464452.825454,2112,2876,10
1789464452.827766,2074,2876,10
1789464452.829643,2064,2876,10
1789464452.83125,2110,2874,10
1789464452.832931,2117,2875,10
1789464452.83485,2088,2878,10
1789464452.836916,2082,2876,10
1789464452.839479,2088,2877,10
1789464452.8407738,2111,2877,10
1789464452.843096,2052,2877,10
1789464452.844438,2077,2878,10
1789464452.847011,2072,2874,10
1789464452.849247,2062,2875,10
1789464452.850431,2047,2876,10
1789464452.852694,2079,2877,10
1789464452.855006,2118,2875,10
1789464452.857316,2062,2876,10
1789464452.85861,2060,2875,10
1789464452.8610198,2052,2876,10
1789464452.862429,2055,2874,10
1789464452.864738,2091,2876,10
1789464452.8702002,2076,2875,10
1789464452.8713222,2061,2875,10
1789464452.872161,2099,2878,10
1789464452.874582,2080,2876,10
1789464452.8749719,2034,2876,10
1789464452.876775,2043,2876,10
1789464452.879779,2077,2877,10
1789464452.8813922,2112,2875,10
1789464452.882705,2127,2879,10
1789464452.8851001,2102,2878,10
1789464452.887375,2111,2877,10
1789464452.888675,2127,2876,10
1789464452.891229,2104,2876,10
1789464452.892519,2080,2877,10
1789464452.8948321,2083,2878,10
1789464452.8973792,2100,2876,10
1789464452.8986702,2085,2876,10
1789464452.90122,2063,2876,10
1789464452.9025102,2077,2878,10
1789464452.904628,2077,2876,10
1789464452.9071949,2080,2876,10
1789464452.909503,2035,2875,10
1789464452.910794,2038,2877,10
1789464452.915275,2105,2879,10
1789464452.915379,2132,2877,10
1789464452.917546,2108,2878,10
1789464452.919039,2058,2875,10
1789464452.920531,2095,2878,10
1789464452.924195,2103,2877,10
1789464452.92583,2070,2877,10
1789464452.927129,2043,2876,10
1789464452.9284322,2101,2877,10
1789464452.9309802,2086,2875,10
1789464452.9333,2065,2876,10
1789464452.9345548,2037,2874,10
1789464452.9371011,2079,2878,10
1789464452.938397,2163,2876,10
1789464452.940713,2127,2876,10
1789464452.942836,2051,2876,10
1789464452.945152,2041,2873,10
1789464452.9472268,2090,2875,10
1789464452.949301,2113,2876,10
1789464452.950613,2078,2876,10
1789464452.953165,2061,2878,10
1789464452.954456,2095,2877,10
1789464452.95898,2088,2876,10
1789464452.959388,2096,2877,10
1789464452.961758,2073,2877,10
1789464452.9636748,2078,2875,10
1789464452.964895,2059,2875,10
1789464452.9668758,2029,2876,10
1789464452.968841,2068,2875,10
1789464452.971633,2078,2876,10
1789464452.972929,2092,2875,10
1789464452.9752479,2130,2876,10
1789464452.9776,2103,2876,10
1789464452.97866,2045,2875,10
1789464452.981211,2042,2876,10
1789464452.983527,2077,2876,10
1789464452.984596,2071,2876,10
1789464452.987145,2086,2877,10
1789464452.988436,2094,2875,10
1789464452.990748,2067,2876,10
1789464452.9930549,2011,2876,10
1789464452.995359,2055,2877,10
1789464452.9964428,2068,2876,10
1789464452.998508,2108,2877,10
1789464453.003596,2091,2876,10
1789464453.004128,2058,2875,10
1789464453.0059578,2103,2877,10
1789464453.0077388,2074,2876,10
1789464453.009705,2045,2877,10
1789464453.012738,2058,2876,10
1789464453.013003,2074,2874,10
1789464453.0149262,2100,2876,10
1789464453.017482,2103,2876,10
1789464453.01878,2068,2875,10
1789464453.02135,2087,2877,10
1789464453.022646,2079,2875,10
1789464453.025203,2055,2876,10
1789464453.026431,2025,2875,10
1789464453.028501,2053,2874,10
1789464453.0310552,2062,2876,10
1789464453.032418,2093,2877,10
1789464453.034973,2062,2876,10
1789464453.037097,2076,2877,10
1789464453.0384152,2094,2876,10
1789464453.040715,2076,2876,10
1789464453.043266,2063,2875,10
1789464453.047838,2054,2876,10
1789464453.0482419,2101,2878,10
1789464453.049999,2110,2876,10
1789464453.0518,2067,2877,10
1789464453.0537071,2078,2878,10
1789464453.056722,2099,2876,10
1789464453.0568461,2076,2875,10
1789464453.0588522,2052,2876,10
1789464453.061416,2054,2877,10
1789464453.0625029,2076,2879,10
1789464453.06483,2067,2875,10
1789464453.067144,2100,2876,10
1789464453.069459,2072,2876,10
1789464453.070751,2115,2878,10
1789464453.0733051,2103,2876,10
1789464453.074411,2077,2876,10
1789464453.076481,2053,2877,10
1789464453.079028,2060,2874,10
1789464453.081095,2094,2875,10
1789464453.0834079,2110,2879,10
1789464453.084558,2064,2875,10
1789464453.0871072,2081,2878,10
1789464453.091736,2092,2877,10
1789464453.092149,2092,2875,10
1789464453.093973,2057,2877,10
1789464453.095705,2044,2874,10
1789464453.0972748,2071,2875,10
1789464453.098943,2074,2877,10
1789464453.100728,2056,2875,10
1789464453.103403,2069,2877,10
1789464453.1046982,2091,2877,10
1789464453.107247,2097,2875,10
1789464453.108458,2041,2876,10
1789464453.1110091,2051,2877,10
1789464453.113131,2069,2875,10
1789464453.115196,2089,2876,10
1789464453.116487,2078,2876,10
1789464453.1190321,2049,2875,10
1789464453.120407,2078,2876,10
1789464453.122715,2093,2876,10
1789464453.125261,2080,2876,10
1789464453.1263921,2044,2877,10
1789464453.128938,2076,2877,10
1789464453.134968,2096,2875,10
1789464453.135437,2086,2876,10
1789464453.1355672,2059,2876,10
1789464453.1375182,2084,2877,10
1789464453.139317,2103,2877,10
1789464453.140845,2092,2877,10
1789464453.144036,2072,2875,10
1789464453.145656,2074,2876,10
1789464453.1469529,2100,2878,10
1789464453.1493728,2108,2878,10
1789464453.150669,2061,2876,10
1789464453.1529868,2101,2877,10
1789464453.155536,2137,2877,10
1789464453.156827,2098,2875,10
1789464453.158904,2067,2877,10
1789464453.161206,2057,2877,10
1789464453.162496,2091,2877,10
1789464453.165049,2082,2875,10
1789464453.166389,2107,2879,10
1789464453.168937,2086,2878,10
1789464453.171062,2115,2877,10
1789464453.172436,2105,2876,10
1789464453.174753,2077,2877,10
1789464453.179986,2061,2876,10
1789464453.180059,2065,2875,10
1789464453.1817741,2078,2875,10
1789464453.183865,2112,2877,10
1789464453.186559,2080,2878,10
1789464453.186661,2065,2877,10
1789464453.190217,2087,2877,10
1789464453.191515,2091,2877,10
1789464453.192808,2061,2877,10
1789464453.195116,2030,2874,10
1789464453.197425,2073,2876,10
1789464453.198472,2075,2875,10
1789464453.200938,2070,2876,10
1789464453.203485,2056,2877,10
1789464453.204778,2081,2876,10
1789464453.207108,2089,2877,10
1789464453.20847,2062,2877,10
1789464453.210559,2055,2877,10
1789464453.213112,2087,2878,10
1789464453.21442,2086,2876,10
1789464453.21648,2073,2875,10
1789464453.2187898,2055,2875,10
1789464453.2235289,2083,2876,10
1789464453.223655,2098,2876,10
1789464453.226198,2071,2875,10
1789464453.227577,2054,2877,10
1789464453.22985,2063,2875,10
1789464453.232727,2081,2876,10
1789464453.2328792,2086,2876,10
1789464453.234794,2052,2875,10
1789464453.237352,2066,2876,10
1789464453.238474,2070,2875,10
1789464453.2410371,2082,2876,10
1789464453.24334,2069,2876,10
1789464453.244429,2079,2877,10
1789464453.2465029,2056,2875,10
1789464453.248621,2101,2876,10
1789464453.250685,2058,2875,10
1789464453.2527921,2096,2878,10
1789464453.254861,2094,2878,10
1789464453.2574139,2085,2876,10
1789464453.258469,2079,2876,10
1789464453.260548,2059,2877,10
1789464453.262849,2060,2874,10
1789464453.268266,2101,2875,10
1789464453.2694101,2080,2877,10
1789464453.269505,2063,2875,10
1789464453.270915,2100,2876,10
1789464453.272799,2098,2875,10
1789464453.275688,2038,2875,10
1789464453.277291,2045,2877,10
1789464453.2792902,2071,2878,10
1789464453.28044,2068,2875,10
1789464453.28299,2096,2876,10
1789464453.28512,2050,2876,10
1789464453.286433,2090,2878,10
1789464453.288984,2108,2876,10
1789464453.291532,2080,2877,10
1789464453.2928262,2032,2876,10
1789464453.295372,2050,2877,10
1789464453.2966661,2081,2875,10
1789464453.2987158,2087,2876,10
1789464453.301206,2058,2876,10
1789464453.303518,2051,2874,10
1789464453.304617,2103,2877,10
1789464453.3074381,2084,2875,10
1789464453.311542,2041,2875,10
1789464453.3116841,2039,2876,10
1789464453.3136241,2088,2876,10
1789464453.315396,2076,2877,10
1789464453.316917,2083,2876,10
1789464453.318474,2047,2875,10
1789464453.321773,2087,2878,10
1789464453.323074,2091,2876,10
1789464453.3244228,2076,2876,10
1789464453.326977,2062,2875,10
1789464453.3293009,2054,2874,10
1789464453.33041,2080,2874,10
1789464453.332957,2088,2876,10
1789464453.335506,2065,2876,10
1789464453.3365629,2077,2878,10
1789464453.338864,2090,2876,10
1789464453.341414,2074,2876,10
1789464453.34247,2066,2876,10
1789464453.345023,2047,2877,10
1789464453.347317,2064,2875,10
1789464453.348414,2092,2876,10
1789464453.353096,2074,2876,10
1789464453.353219,2054,2874,10
1789464453.355375,2074,2877,10
1789464453.357375,2069,2876,10
1789464453.3585951,2062,2875,10
1789464453.3615942,2041,2876,10
1789464453.363637,2051,2875,10
1789464453.364931,2051,2876,10
1789464453.3674839,2105,2878,10
1789464453.368772,2082,2877,10
1789464453.370836,2093,2876,10
1789464453.373143,2106,2875,10
1789464453.374432,2104,2876,10
1789464453.376985,2080,2877,10
1789464453.379337,2079,2876,10
1789464453.3806322,2083,2875,10
1789464453.3829298,2063,2875,10
1789464453.385105,2031,2876,10
1789464453.387424,2047,2875,10
1789464453.3884811,2078,2877,10
1789464453.390611,2056,2876,10
1789464453.395583,2048,2876,10
1789464453.396724,2062,2876,10
1789464453.397176,2101,2878,10
1789464453.39978,2096,2877,10
1789464453.4013598,2080,2876,10
1789464453.403771,2058,2876,10
1789464453.405673,2078,2878,10
1789464453.407951,2097,2876,10
1789464453.40925,2063,2876,10
1789464453.410402,2035,2876,10
1789464453.412616,2050,2874,10
1789464453.414786,2069,2876,10
1789464453.417032,2065,2876,10
1789464453.41923,2024,2876,10
1789464453.4206011,2088,2878,10
1789464453.4229078,2102,2875,10
1789464453.425051,2085,2876,10
1789464453.427215,2034,2876,10
1789464453.428549,2058,2878,10
1789464453.430676,2067,2875,10
1789464453.433154,2089,2875,10
1789464453.4353101,2090,2874,10
1789464453.4364722,2098,2878,10
1789464453.443424,2059,2876,10
1789464453.445732,2055,2876,10
1789464453.447306,2042,2876,10
1789464453.449773,2038,2874,10
1789464453.452322,2047,2875,10
1789464453.454754,2057,2876,10
1789464453.4550111,2076,2876,10
1789464453.455158,2072,2878,10
1789464453.4554482,2043,2877,10
1789464453.458158,2014,2876,10
1789464453.459233,2005,2873,10
1789464453.4606478,2067,2877,10
1789464453.4675741,2129,2878,10
1789464453.469121,2145,2878,10
1789464453.469655,2089,2877,10
1789464453.470232,2126,2877,10
1789464453.475605,2042,2875,10
1789464453.476264,2114,2877,10
1789464453.4764018,2121,2877,10
1789464453.4765792,2097,2877,10
1789464453.479389,2108,2876,10
1789464453.480754,2088,2878,10
1789464453.483135,2045,2875,10
1789464453.485292,1975,2876,10
1789464453.487566,2038,2875,10
1789464453.488771,2142,2877,10
1789464453.4909928,2071,2876,10
1789464453.493199,2085,2876,10
1789464453.4955142,2089,2877,10
1789464453.496806,2093,2877,10
1789464453.498883,2119,2877,10
1789464453.501169,2021,2876,10
1789464453.503485,2095,2876,10
1789464453.504693,2135,2877,10
1789464453.506762,2116,2876,10
1789464453.514261,1986,2874,10
1789464453.515726,2009,2874,10
1789464453.515875,1997,2874,10
1789464453.516124,2087,2877,10
1789464453.5185559,2112,2877,10
1789464453.519001,2112,2879,10
1789464453.521742,1961,2875,10
1789464453.5234969,2035,2875,10
1789464453.525577,2157,2877,10
1789464453.526645,2102,2877,10
1789464453.5316129,2065,2877,10
1789464453.5329149,2196,2877,10
1789464453.532995,2079,2876,10
1789464453.53551,2057,2874,10
1789464453.537463,2080,2875,10
1789464453.540715,2142,2877,10
1789464453.5408351,2116,2877,10
1789464453.542473,2043,2876,10
1789464453.5447302,2028,2878,10
1789464453.5472279,2024,2875,10
1789464453.548539,2014,2875,10
1789464453.551115,2043,2876,10
1789464453.552425,2039,2875,10
1789464453.554562,2163,2878,10
1789464453.556649,2081,2877,10
1789464453.559136,2060,2877,10
1789464453.5602822,2122,2876,10
1789464453.562602,2082,2877,10
1789464453.565145,2098,2878,10
1789464453.566488,2099,2879,10
1789464453.569077,2075,2875,10
1789464453.571248,2130,2879,10
1789464453.5725498,2079,2877,10
1789464453.574991,2035,2876,10
1789464453.57973,2093,2878,10
1789464453.580642,1965,2875,10
1789464453.581625,1998,2875,10
1789464453.583012,1971,2875,10
1789464453.584577,1998,2875,10
1789464453.589979,2048,2875,10
1789464453.590146,2054,2877,10
1789464453.5924852,2123,2876,10
1789464453.5925272,2283,2876,10
1789464453.594856,2122,2878,10
1789464453.601463,2128,2877,10
1789464453.602419,2243,2878,10
1789464453.6038258,2199,2878,10
1789464453.603942,2135,2877,10
1789464453.606446,2064,2878,10
1789464453.607386,2056,2876,10
1789464453.609812,2117,2877,10
1789464453.6116722,2033,2876,10
1789464453.614075,2020,2874,10
1789464453.6154299,1999,2875,10
1789464453.6167428,1988,2875,10
1789464453.619312,1899,2875,10
1789464453.62061,2057,2875,10
1789464453.62291,2259,2878,10
1789464453.625352,2247,2877,10
1789464453.626451,2012,2877,10
1789464453.62901,1942,2874,10
1789464453.631319,2067,2876,10
1789464453.632372,2167,2874,10
1789464453.634871,2185,2879,10
1789464453.637013,2213,2878,10
1789464453.6383119,2194,2876,10
1789464453.640882,2083,2876,10
1789464453.643314,2008,2877,10
1789464453.644455,2048,2877,10
1789464453.6487858,2116,2876,10
1789464453.6502001,2146,2876,10
1789464453.6517582,2041,2877,10
1789464453.653829,2083,2878,10
1789464453.6555,1905,2875,10
1789464453.6572769,1964,2874,10
1789464453.659013,2061,2877,10
1789464453.6613262,2323,2877,10
1789464453.662411,2255,2877,10
1789464453.664514,2144,2878,10
1789464453.6695502,2071,2876,10
1789464453.669646,2254,2878,10
1789464453.671844,2270,2879,10
1789464453.67375,2197,2877,10
1789464453.67535,2033,2877,10
1789464453.6772249,1999,2877,10
1789464453.679002,2032,2877,10
1789464453.680911,2051,2876,10
1789464453.6832461,1966,2875,10
1789464453.6845372,2153,2879,10
1789464453.686752,2235,2877,10
1789464453.6891992,2177,2877,10
1789464453.690301,1978,2874,10
1789464453.692708,1842,2874,10
1789464453.694895,2022,2875,10
1789464453.697067,2076,2874,10
1789464453.698364,2107,2877,10
1789464453.700931,2144,2877,10
1789464453.703147,1931,2874,10
1789464453.705479,2184,2877,10
1789464453.706663,2261,2877,10
1789464453.708768,2166,2877,10
1789464453.7109408,2163,2878,10
1789464453.7164092,2169,2879,10
1789464453.717331,2019,2874,10
1789464453.717867,2127,2878,10
1789464453.7193868,2038,2875,10
1789464453.7212942,2255,2878,10
1789464453.7231119,1869,2874,10
1789464453.7249331,1911,2874,10
1789464453.726707,1737,2876,10
1789464453.7288609,2043,2874,10
1789464453.7314172,2483,2878,10
1789464453.7362812,2204,2876,10
1789464453.73707,1826,2875,10
1789464453.73787,2136,2876,10
1789464453.739085,2297,2878,10
1789464453.7416131,2159,2876,10
1789464453.7458172,2162,2877,10
1789464453.746063,2086,2877,10
1789464453.748009,2030,2874,10
1789464453.7493079,1819,2875,10
1789464453.750605,2045,2874,10
1789464453.752922,2126,2876,10
1789464453.754306,2062,2876,10
1789464453.756625,2221,2876,10
1789464453.758683,2077,2876,10
1789464453.761206,2011,2874,10
1789464453.7625,1916,2875,10
1789464453.764884,1934,2876,10
1789464453.7671921,2171,2878,10
1789464453.7684858,2154,2876,10
1789464453.771043,2210,2875,10
1789464453.7723432,2103,2875,10
1789464453.774656,2003,2877,10
1789464453.7769651,2133,2878,10
1789464453.781897,2148,2874,10
1789464453.782811,2257,2878,10
1789464453.783699,2045,2875,10
1789464453.785289,1911,2875,10
1789464453.787155,1911,2874,10
1789464453.789218,2033,2877,10
1789464453.790766,2048,2876,10
1789464453.792619,1994,2877,10
1789464453.7947881,1841,2875,10
1789464453.79711,2065,2876,10
1789464453.7982888,2081,2876,10
1789464453.8013,2197,2878,10
1789464453.802614,2358,2878,10
1789464453.8051689,2154,2876,10
1789464453.806467,1972,2876,10
1789464453.8089821,2078,2877,10
1789464453.810278,2210,2878,10
1789464453.8128462,2211,2877,10
1789464453.8149152,2129,2876,10
1789464453.81702,1920,2876,10
1789464453.8182771,1942,2875,10
1789464453.820639,2127,2877,10
1789464453.823193,2018,2876,10
1789464453.8244889,1994,2876,10
1789464453.829687,2090,2877,10
1789464453.830543,2080,2875,10
1789464453.8306959,2166,2879,10
1789464453.832597,2201,2879,10
1789464453.834783,2003,2875,10
1789464453.836811,2039,2877,10
1789464453.839759,1965,2875,10
1789464453.841982,2021,2877,10
1789464453.84329,2094,2877,10
1789464453.844585,2122,2877,10
1789464453.846931,2020,2875,10
1789464453.849153,1860,2876,10
1789464453.85027,2086,2877,10
1789464453.85258,2206,2878,10
1789464453.854896,2246,2878,10
1789464453.857375,2153,2877,10
1789464453.858481,2028,2875,10
1789464453.8607721,2050,2874,10
1789464453.8633301,2155,2879,10
1789464453.86438,2126,2876,10
1789464453.866694,1941,2875,10
1789464453.869202,1905,2875,10
1789464453.870495,1969,2874,10
1789464453.877082,2141,2877,10
1789464453.8775868,2169,2875,10
1789464453.8783581,2143,2878,10
1789464453.879609,2095,2878,10
1789464453.881569,2147,2877,10
1789464453.883165,2108,2876,10
1789464453.884823,2058,2876,10
1789464453.8865302,2124,2879,10
1789464453.88928,2125,2877,10
1789464453.890578,2071,2875,10
1789464453.892898,1760,2874,10
1789464453.895222,1811,2875,10
1789464453.8963132,1869,2875,10
1789464453.898873,2127,2875,10
1789464453.9012768,2432,2878,10
1789464453.90257,2362,2878,10
1789464453.905122,2146,2876,10
1789464453.9064162,2092,2877,10
1789464453.9089658,2182,2876,10
1789464453.9103072,2188,2878,10
1789464453.912626,2219,2878,10
1789464453.915184,2093,2875,10
1789464453.916482,2017,2875,10
1789464453.9190311,1894,2876,10
1789464453.924639,1901,2874,10
1789464453.9255219,2064,2877,10
1789464453.925925,2121,2876,10
1789464453.928912,2099,2878,10
1789464453.929661,2126,2876,10
1789464453.9311821,2121,2875,10
1789464453.9326248,2110,2876,10
1789464453.934568,2036,2876,10
1789464453.937491,2078,2878,10
1789464453.938549,2160,2877,10
1789464453.940882,2086,2876,10
1789464453.943294,1998,2876,10
1789464453.9443488,1975,2874,10
1789464453.9469042,2128,2875,10
1789464453.949224,2094,2875,10
1789464453.950515,2084,2876,10
1789464453.9530408,2040,2874,10
1789464453.9553568,1936,2874,10
1789464453.956651,2017,2876,10
1789464453.9592059,2088,2876,10
1789464453.9604049,2085,2877,10
1789464453.962723,2050,2874,10
1789464453.965208,2097,2876,10
1789464453.9663801,2195,2879,10
1789464453.9715142,2142,2878,10
1789464453.971957,2112,2877,10
1789464453.97375,2141,2876,10
1789464453.9753458,2101,2876,10
1789464453.9769971,2080,2877,10
1789464453.978986,2041,2875,10
1789464453.980821,2036,2876,10
1789464453.982945,2058,2876,10
1789464453.985266,2081,2879,10
1789464453.9865742,2038,2876,10
1789464453.9886432,1986,2874,10
1789464453.990953,2098,2876,10
1789464453.992248,2175,2878,10
1789464453.994646,2107,2877,10
1789464453.9967139,2104,2878,10
1789464453.999261,2063,2875,10
1789464454.000552,2042,2876,10
1789464454.003098,2105,2878,10
1789464454.004388,2142,2877,10
1789464454.006689,2101,2877,10
1789464454.009237,2119,2877,10
1789464454.010394,2033,2877,10
1789464454.012814,2058,2875,10
1789464454.0175412,2115,2875,10
1789464454.0180411,2088,2876,10
1789464454.019567,2036,2875,10
1789464454.021336,2098,2876,10
1789464454.0225658,2112,2876,10
1789464454.024576,1944,2873,10
1789464454.026262,2082,2876,10
1789464454.0291789,2128,2877,10
1789464454.030473,1983,2875,10
1789464454.033021,2147,2878,10
1789464454.034276,2248,2878,10
1789464454.0365791,2192,2878,10
1789464454.038891,2124,2877,10
1789464454.0401878,2084,2876,10
1789464454.042739,2017,2873,10
1789464454.0452878,2046,2875,10
1789464454.046582,2039,2875,10
1789464454.0491362,2096,2875,10
1789464454.0501812,2049,2875,10
1789464454.0522408,1939,2874,10
1789464454.054789,1796,2874,10
1789464454.056936,2256,2878,10
1789464454.0608819,2515,2878,10
1789464454.060989,2162,2877,10
1789464454.063295,2011,2875,10
1789464454.0652192,2128,2876,10
1789464454.066748,2124,2876,10
1789464454.068336,2058,2875,10
1789464454.0719411,2089,2877,10
1789464454.0729952,2106,2876,10
1789464454.07429,1966,2876,10
1789464454.076572,1923,2875,10
1789464454.078927,1959,2875,10
1789464454.0809972,2078,2876,10
1789464454.082288,2119,2876,10
1789464454.084833,2103,2875,10
1789464454.086901,2199,2878,10
1789464454.089204,2039,2876,10
1789464454.090251,2020,2875,10
1789464454.0923579,2051,2878,10
1789464454.0944252,2031,2875,10
1789464454.096978,2013,2877,10
1789464454.098281,2137,2880,10
1789464454.100833,2175,2877,10
1789464454.105172,2068,2877,10
1789464454.105619,2130,2876,10
1789464454.107688,2027,2876,10
1789464454.1094432,2003,2874,10
1789464454.111273,2094,2878,10
1789464454.114219,2157,2878,10
1789464454.114351,2106,2878,10
1789464454.117234,2094,2877,10
1789464454.118527,2082,2876,10
1789464454.121086,2025,2875,10
1789464454.1222012,2110,2877,10
1789464454.124631,2104,2876,10
1789464454.127153,1968,2875,10
1789464454.1281972,1904,2874,10
1789464454.130497,2107,2878,10
1789464454.133054,2186,2876,10
1789464454.134352,2144,2877,10
1789464454.1369002,2054,2877,10
1789464454.1391602,2085,2877,10
1789464454.14045,2156,2877,10
1789464454.142997,2165,2878,10
1789464454.14429,2125,2878,10
1789464454.14933,2082,2877,10
1789464454.150072,2017,2875,10
1789464454.150495,2035,2876,10
1789464454.153067,2066,2878,10
1789464454.154782,2051,2877,10
1789464454.156424,1997,2874,10
1789464454.1600819,1998,2875,10
1789464454.160223,1974,2875,10
1789464454.162527,2058,2875,10
1789464454.165086,2085,2878,10
1789464454.166393,1991,2874,10
1789464454.1689441,2139,2877,10
1789464454.170235,2259,2877,10
1789464454.172371,2192,2878,10
1789464454.174928,2069,2878,10
1789464454.176225,2129,2879,10
1789464454.178483,2076,2875,10
1789464454.1810298,2109,2875,10
1789464454.182326,2098,2878,10
1789464454.184853,1989,2875,10
1789464454.1862059,2015,2877,10
1789464454.188522,2049,2876,10
1789464454.193221,2094,2878,10
1789464454.193614,2173,2878,10
1789464454.1954932,2119,2878,10
1789464454.197202,2078,2875,10
1789464454.198719,2092,2877,10
1789464454.200366,2068,2875,10
1789464454.204057,2049,2875,10
1789464454.20425,2095,2877,10
1789464454.206806,2061,2876,10
1789464454.209402,2048,2877,10
1789464454.2107,2051,2878,10
1789464454.213248,2055,2875,10
1789464454.214541,2042,2875,10
1789464454.216856,2080,2876,10
1789464454.21815,2087,2878,10
1789464454.2206988,2076,2878,10
1789464454.223003,2068,2876,10
1789464454.2243001,2043,2876,10
1789464454.226609,2055,2877,10
1789464454.2289321,2016,2875,10
1789464454.230228,2104,2876,10
1789464454.232286,2080,2876,10
1789464454.237212,2066,2876,10
1789464454.237925,2063,2877,10
1789464454.239467,2111,2876,10
1789464454.240915,2125,2876,10
1789464454.2424471,2097,2875,10
1789464454.2443562,2094,2877,10
1789464454.246272,2104,2879,10
1789464454.249076,2095,2876,10
1789464454.250367,2085,2876,10
1789464454.25244,2049,2875,10
1789464454.254528,2115,2877,10
1789464454.256854,2103,2877,10
1789464454.2581692,2056,2876,10
1789464454.26049,2037,2877,10
1789464454.2629602,2065,2876,10
1789464454.2642581,2032,2877,10
1789464454.266807,2104,2876,10
1789464454.268209,2097,2878,10
1789464454.2702699,2157,2878,10
1789464454.272566,2165,2877,10
1789464454.274871,2062,2877,10
1789464454.281112,2025,2878,10
1789464454.281892,2041,2875,10
1789464454.282337,2101,2876,10
1789464454.283492,2110,2876,10
1789464454.284984,2086,2878,10
1789464454.286734,2095,2877,10
1789464454.288417,2050,2876,10
1789464454.290292,2063,2875,10
1789464454.2931242,2059,2876,10
1789464454.294183,2082,2877,10
1789464454.29673,2125,2878,10
1789464454.299038,2095,2876,10
1789464454.300333,2033,2875,10
1789464454.302879,2052,2876,10
1789464454.304946,2102,2877,10
1789464454.3062358,2073,2875,10
1789464454.308539,2031,2875,10
1789464454.311088,2032,2874,10
1789464454.312181,2081,2875,10
1789464454.3147311,2101,2876,10
1789464454.317182,2075,2875,10
1789464454.318471,2042,2874,10
1789464454.320811,2087,2876,10
1789464454.3251112,2133,2875,10
1789464454.325238,2090,2876,10
1789464454.327424,2070,2876,10
1789464454.32891,2069,2876,10
1789464454.332211,2087,2876,10
1789464454.332343,2082,2876,10
1789464454.3359418,2072,2876,10
1789464454.33701,2073,2877,10
1789464454.338304,2092,2876,10
1789464454.340609,2058,2875,10
1789464454.3429399,2036,2876,10
1789464454.344235,2067,2877,10
1789464454.346533,2090,2875,10
1789464454.3489192,2112,2878,10
1789464454.3502111,2100,2878,10
1789464454.3525178,2069,2877,10
1789464454.3548212,2102,2876,10
1789464454.3561752,2117,2875,10
1789464454.35848,2093,2877,10
1789464454.3610282,2059,2877,10
1789464454.362166,2062,2875,10
1789464454.3647392,2104,2875,10
1789464454.368435,2089,2876,10
1789464454.368881,2053,2875,10
1789464454.372482,2096,2877,10
1789464454.372881,2090,2876,10
1789464454.374348,2072,2876,10
1789464454.3779452,2059,2876,10
1789464454.379827,2067,2876,10
1789464454.381118,2078,2876,10
1789464454.382182,2073,2877,10
1789464454.384594,2064,2876,10
1789464454.387159,2066,2878,10
1789464454.3884501,2084,2876,10
1789464454.3909938,2086,2876,10
1789464454.3922071,2067,2877,10
1789464454.394598,2059,2877,10
1789464454.39715,2097,2878,10
1789464454.39844,2098,2875,10
1789464454.400985,2113,2878,10
1789464454.402272,2098,2878,10
1789464454.40458,2129,2877,10
1789464454.4068859,2085,2877,10
1789464454.4117,2060,2877,10
1789464454.4117918,2116,2878,10
1789464454.413667,2115,2878,10
1789464454.415065,2068,2875,10
1789464454.416779,2072,2876,10
1789464454.418321,2034,2876,10
1789464454.421772,2067,2877,10
1789464454.4229481,2106,2877,10
1789464454.425261,2098,2876,10
1789464454.426553,2072,2876,10
1789464454.42912,2026,2874,10
1789464454.430173,2060,2876,10
1789464454.432511,2081,2875,10
1789464454.4348211,2079,2877,10
1789464454.437252,2152,2877,10
1789464454.4383092,2095,2877,10
1789464454.4408581,2080,2876,10
1789464454.442921,2079,2877,10
1789464454.444994,2047,2877,10
1789464454.4473112,2069,2876,10
1789464454.4486048,2095,2877,10
1789464454.453071,2073,2876,10
1789464454.453187,2065,2877,10
1789464454.4554071,2094,2878,10
1789464454.45712,2084,2876,10
1789464454.458872,2053,2876,10
1789464454.4616928,2032,2877,10
1789464454.4637032,2075,2874,10
1789464454.4650052,2117,2879,10
1789464454.467322,2122,2877,10
1789464454.468441,2073,2878,10
1789464454.470953,2097,2876,10
1789464454.472251,2107,2877,10
1789464454.474797,2071,2875,10
1789464454.477107,2031,2877,10
1789464454.4784,2078,2878,10
1789464454.480706,2106,2878,10
1789464454.4830139,2102,2875,10
1789464454.484159,2074,2876,10
1789464454.4864562,2065,2878,10
1789464454.488769,2120,2877,10
1789464454.494573,2116,2878,10
1789464454.494987,2027,2877,10
1789464454.4970791,2055,2875,10
1789464454.497213,2089,2875,10
1789464454.498679,2083,2876,10
1789464454.501869,2058,2875,10
1789464454.5035388,2034,2875,10
1789464454.505516,2045,2876,10
1789464454.5068119,2062,2875,10
1789464454.508179,2046,2876,10
1789464454.510509,2058,2877,10
1789464454.5128262,2105,2877,10
1789464454.5142,2125,2878,10
1789464454.516507,2075,2876,10
1789464454.518821,2088,2878,10
1789464454.521369,2159,2878,10
1789464454.522657,2134,2877,10
1789464454.525202,2086,2876,10
1789464454.5264902,2043,2877,10
1789464454.529033,2053,2874,10
1789464454.530323,2065,2875,10
1789464454.5329,2051,2876,10
1789464454.536711,2047,2876,10
1789464454.537142,2101,2877,10
1789464454.539082,2116,2876,10
1789464454.540551,2083,2875,10
1789464454.543692,2051,2876,10
1789464454.545392,2075,2877,10
1789464454.547389,2085,2875,10
1789464454.548695,2102,2877,10
1789464454.5511732,2052,2876,10
1789464454.5524778,2025,2875,10
1789464454.5550332,2081,2876,10
1789464454.556329,2143,2876,10
1789464454.558877,2073,2875,10
1789464454.560172,2039,2876,10
1789464454.562717,2030,2875,10
1789464454.565016,2072,2876,10
1789464454.5663092,2077,2876,10
1789464454.568435,2109,2879,10
1789464454.5707462,2123,2877,10
1789464454.5732942,2067,2876,10
1789464454.5743418,2064,2877,10
1789464454.578989,2085,2877,10
1789464454.579088,2052,2875,10
1789464454.580981,2075,2876,10
1789464454.582962,2038,2875,10
1789464454.5843399,2001,2876,10
1789464454.5871842,1995,2874,10
1789464454.5891259,2060,2875,10
1789464454.590183,2049,2876,10
1789464454.592499,1996,2876,10
1789464454.595056,1997,2874,10
1789464454.5963478,2012,2876,10
1789464454.598797,2074,2876,10
1789464454.600857,2050,2877,10
1789464454.602922,2039,2875,10
1789464454.6040761,2095,2878,10
1789464454.6063738,2036,2877,10
1789464454.608484,2024,2875,10
1789464454.610545,2027,2875,10
1789464454.6128588,2053,2875,10
1789464454.6151628,2073,2877,10
1789464454.6162062,2052,2876,10
1789464454.619798,2000,2875,10
1789464454.622387,2025,2874,10
1789464454.622623,2045,2876,10
1789464454.624494,2022,2876,10
1789464454.6270878,1988,2875,10
1789464454.6286972,2029,2875,10
1789464454.630808,2063,2876,10
1789464454.6321018,2062,2876,10
1789464454.63452,2043,2875,10
1789464454.6365921,2024,2875,10
1789464454.639138,2054,2876,10
1789464454.640426,2037,2876,10
1789464454.642745,2020,2875,10
1789464454.644085,2005,2874,10
1789464454.6466072,2042,2875,10
1789464454.648724,2063,2876,10
1789464454.650809,2040,2876,10
1789464454.652096,2040,2876,10
1789464454.65422,2093,2878,10
1789464454.6567712,2063,2876,10
1789464454.662198,2025,2875,10
1789464454.662635,2013,2874,10
1789464454.663031,2048,2876,10
1789464454.6644201,2073,2875,10
1789464454.667547,2096,2879,10
1789464454.670291,2054,2874,10
1789464454.670471,2088,2876,10
1789464454.673196,2094,2876,10
1789464454.674247,2099,2876,10
1789464454.6765718,2069,2876,10
1789464454.679125,2049,2875,10
1789464454.680416,2080,2876,10
1789464454.683002,2056,2876,10
1789464454.6842911,2030,2875,10
1789464454.686835,2068,2876,10
1789464454.688124,2077,2876,10
1789464454.69067,2066,2876,10
1789464454.6920671,2035,2876,10
1789464454.6941319,2042,2874,10
1789464454.6961951,2068,2876,10
1789464454.698501,2084,2876,10
1789464454.704121,2055,2877,10
1789464454.70453,2057,2874,10
1789464454.704619,2096,2876,10
1789464454.706453,2111,2875,10
1789464454.709188,2047,2875,10
1789464454.711018,2071,2876,10
1789464454.712629,2076,2875,10
1789464454.714242,2091,2876,10
1789464454.716795,2067,2876,10
1789464454.7180989,2060,2875,10
1789464454.720629,2095,2878,10
1789464454.723222,2127,2876,10
1789464454.724513,2060,2875,10
1789464454.727062,2047,2877,10
1789464454.7283509,2067,2878,10
1789464454.7308989,2112,2877,10
1789464454.7320461,2127,2878,10
1789464454.734594,2082,2875,10
1789464454.7366478,2083,2878,10
1789464454.7389572,2087,2877,10
1789464454.740245,2083,2875,10
1789464454.746164,2062,2877,10
1789464454.746905,2072,2878,10
1789464454.747,2096,2878,10
1789464454.748363,2063,2874,10
1789464454.751036,2062,2876,10
1789464454.752821,2063,2876,10
1789464454.7543838,2101,2876,10
1789464454.757143,2093,2876,10
1789464454.758185,2062,2876,10
1789464454.760502,2053,2876,10
1789464454.763063,2054,2874,10
1789464454.764359,2095,2876,10
1789464454.7667358,2081,2876,10
1789464454.768065,2059,2876,10
1789464454.7703738,2083,2878,10
1789464454.77244,2105,2875,10
1789464454.774751,2060,2876,10
1789464454.7760398,2051,2877,10
1789464454.778343,2055,2873,10
1789464454.780888,2078,2875,10
1789464454.782051,2072,2876,10
1789464454.787029,2064,2876,10
1789464454.787435,2062,2878,10
1789464454.7896152,2092,2876,10
1789464454.791448,2096,2876,10
1789464454.792814,2051,2876,10
1789464454.794324,2051,2876,10
1789464454.797801,2087,2877,10
1789464454.79886,2092,2876,10
1789464454.800164,2070,2876,10
1789464454.802731,2063,2876,10
1789464454.804041,2089,2877,10
1789464454.8063638,2098,2875,10
1789464454.808675,2060,2875,10
1789464454.8111172,2039,2877,10
1789464454.812408,2073,2878,10
1789464454.814707,2107,2877,10
1789464454.816767,2075,2876,10
1789464454.8180559,2047,2874,10
1789464454.820361,2095,2877,10
1789464454.8224561,2128,2878,10
1789464454.824909,2093,2875,10
1789464454.826198,2069,2876,10
1789464454.830852,2044,2876,10
1789464454.8319411,2075,2875,10
1789464454.8322911,2089,2877,10
1789464454.834947,2099,2880,10
1789464454.8365068,2033,2874,10
1789464454.839425,2097,2878,10
1789464454.841271,2076,2876,10
1789464454.842564,2034,2876,10
1789464454.844886,2055,2877,10
1789464454.846179,2052,2875,10
1789464454.848655,2084,2876,10
1789464454.850964,2094,2876,10
1789464454.852254,2018,2875,10
1789464454.854799,2104,2876,10
1789464454.8560908,2106,2877,10
1789464454.858268,2078,2877,10
1789464454.860527,2089,2874,10
1789464454.862836,2050,2875,10
1789464454.864125,2090,2877,10
1789464454.8664398,2088,2876,10
1789464454.8690932,2058,2875,10
1789464454.872784,2089,2876,10
1789464454.873536,2108,2875,10
1789464454.8752189,2058,2877,10
1789464454.877205,2029,2875,10
1789464454.878773,2052,2874,10
1789464454.880455,2105,2877,10
1789464454.883966,2095,2876,10
1789464454.8840609,2064,2876,10
1789464454.886612,2084,2878,10
1789464454.8891609,2088,2876,10
1789464454.890455,2094,2876,10
1789464454.8927622,2065,2876,10
1789464454.8940659,2073,2877,10
1789464454.896616,2078,2875,10
1789464454.898844,2105,2875,10
1789464454.9001338,2073,2876,10
1789464454.902445,2050,2875,10
1789464454.904547,2082,2877,10
1789464454.90685,2095,2876,10
1789464454.908139,2038,2875,10
1789464454.910439,2035,2876,10
1789464454.912748,2075,2878,10
1789464454.915043,2106,2878,10
1789464454.9163451,2099,2879,10
1789464454.920382,2067,2875,10
1789464454.920807,2075,2877,10
1789464454.922357,2097,2876,10
1789464454.9253702,2052,2876,10
1789464454.92693,2052,2877,10
1789464454.928475,2067,2876,10
1789464454.930342,2067,2875,10
1789464454.9329019,2079,2875,10
1789464454.9341161,2049,2876,10
1789464454.936193,2062,2878,10
1789464454.938504,2130,2876,10
1789464454.940944,2138,2877,10
1789464454.9422421,2074,2876,10
1789464454.944554,2014,2873,10
1789464454.946856,2055,2874,10
1789464454.948143,2082,2875,10
1789464454.950687,2087,2875,10
1789464454.9530501,2057,2874,10
1789464454.9543371,2099,2878,10
1789464454.9568808,2080,2875,10
1789464454.9626722,2072,2875,10
1789464454.963491,2033,2877,10
1789464454.963837,2087,2878,10
1789464454.9662411,2088,2876,10
1789464454.9666061,2093,2876,10
1789464454.9681878,2080,2878,10
1789464454.970857,2093,2877,10
1789464454.9727092,2097,2876,10
1789464454.975127,2088,2876,10
1789464454.9761841,2050,2877,10
1789464454.978505,2057,2874,10
1789464454.980633,2095,2876,10
1789464454.983194,2067,2875,10
1789464454.9844851,2072,2875,10
1789464454.987031,2079,2877,10
1789464454.988074,2107,2876,10
1789464454.990617,2105,2876,10
1789464454.9928892,2030,2876,10
1789464454.9940429,2008,2876,10
1789464454.9963598,2115,2879,10
1789464454.998658,2092,2877,10
1789464455.0040672,2082,2876,10
1789464455.004459,2038,2875,10
1789464455.004868,2057,2876,10
1789464455.006857,2074,2876,10
1789464455.008567,2061,2875,10
1789464455.0114539,2074,2877,10
1789464455.012979,2109,2877,10
1789464455.014575,2080,2875,10
1789464455.0161579,2119,2879,10
1789464455.018713,2082,2878,10
1789464455.0210261,2106,2876,10
1789464455.022152,2114,2876,10
1789464455.02446,2074,2876,10
1789464455.02689,2050,2878,10
1789464455.02818,2018,2874,10
1789464455.030677,2049,2875,10
1789464455.033252,2070,2875,10
1789464455.0345018,2106,2877,10
1789464455.036612,2113,2877,10
1789464455.0387762,2189,2877,10
1789464455.040067,2151,2876,10
1789464455.042711,2064,2877,10
1789464455.046607,2084,2878,10
1789464455.047035,2145,2878,10
1789464455.0486999,2142,2878,10
1789464455.0505202,2040,2875,10
1789464455.053417,1970,2875,10
1789464455.0549371,2055,2877,10
1789464455.056788,2071,2877,10
1789464455.058233,2050,2876,10
1789464455.06079,2035,2877,10
1789464455.0629172,2077,2878,10
1789464455.06405,2077,2875,10
1789464455.06636,2075,2876,10
1789464455.0689049,2027,2876,10
1789464455.070983,2051,2877,10
1789464455.072116,2071,2876,10
1789464455.074661,2054,2875,10
1789464455.077217,2031,2876,10
1789464455.0785081,2027,2874,10
1789464455.0810509,2073,2874,10
1789464455.082345,2072,2876,10
1789464455.087661,2072,2876,10
1789464455.088083,2094,2878,10
1789464455.0885088,2125,2876,10
1789464455.090181,2099,2876,10
1789464455.092915,2078,2876,10
1789464455.094722,2057,2877,10
1789464455.0962088,2030,2875,10
1789464455.098709,2057,2876,10
1789464455.100062,2044,2876,10
1789464455.10262,2038,2874,10
1789464455.105171,2088,2878,10
1789464455.106478,2069,2876,10
1789464455.1090271,2028,2875,10
1789464455.1102982,2041,2877,10
1789464455.112849,2101,2878,10
1789464455.114142,2096,2875,10
1789464455.1167,2059,2876,10
1789464455.11883,2037,2876,10
1789464455.120959,2071,2877,10
1789464455.122248,2087,2875,10
1789464455.1245608,2068,2876,10
1789464455.129737,2048,2876,10
1789464455.13051,2071,2876,10
1789464455.130964,2103,2877,10
1789464455.134337,2105,2876,10
1789464455.13445,2067,2876,10
1789464455.1367948,2097,2877,10
1789464455.1382039,2119,2876,10
1789464455.140704,2086,2876,10
1789464455.1430101,2047,2875,10
1789464455.1440692,2015,2874,10
1789464455.146623,2046,2875,10
1789464455.14869,2090,2876,10
1789464455.150079,2100,2879,10
1789464455.152382,2057,2876,10
1789464455.1549282,2078,2877,10
1789464455.156218,2087,2876,10
1789464455.1587808,2067,2877,10
1789464455.160077,2043,2876,10
1789464455.1626282,2064,2876,10
1789464455.165205,2094,2876,10
1789464455.1662679,2062,2876,10
1789464455.171382,2084,2878,10
1789464455.171475,2117,2877,10
1789464455.1736279,2118,2876,10
1789464455.175106,2084,2876,10
1789464455.176857,2059,2877,10
1789464455.1783738,2094,2878,10
1789464455.181608,2073,2876,10
1789464455.1829052,2051,2876,10
1789464455.184195,2064,2876,10
1789464455.1867578,2039,2875,10
1789464455.1888351,2091,2877,10
1789464455.190131,2104,2876,10
1789464455.192675,2068,2876,10
1789464455.194746,2052,2876,10
1789464455.197057,2082,2875,10
1789464455.198346,2084,2877,10
1789464455.200454,2060,2876,10
1789464455.202998,2103,2877,10
1789464455.2042859,2118,2877,10
1789464455.206505,2082,2875,10
1789464455.208817,2022,2876,10
1789464455.213155,2078,2877,10
1789464455.213908,2085,2877,10
1789464455.21564,2114,2878,10
1789464455.217056,2080,2876,10
1789464455.2184582,2046,2876,10
1789464455.220308,2136,2877,10
1789464455.223517,2102,2877,10
1789464455.2248142,2064,2877,10
1789464455.226093,2030,2875,10
1789464455.230062,2044,2874,10
1789464455.230102,2113,2877,10
1789464455.2323241,2131,2879,10
1789464455.23488,2113,2878,10
1789464455.237204,2102,2877,10
1789464455.2383628,2090,2877,10
1789464455.2409852,2077,2878,10
1789464455.242249,2081,2877,10
1789464455.244692,2038,2874,10
1789464455.246994,2010,2874,10
1789464455.248286,2045,2876,10
1789464455.2503629,2018,2875,10
1789464455.256066,1937,2876,10
1789464455.256504,2055,2878,10
1789464455.25662,2121,2876,10
1789464455.258704,2086,2876,10
1789464455.260362,2160,2877,10
1789464455.263368,2124,2878,10
1789464455.264836,2090,2876,10
1789464455.266934,2113,2878,10
1789464455.2691798,2040,2875,10
1789464455.2704709,2008,2875,10
1789464455.272786,2083,2877,10
1789464455.275102,2160,2876,10
1789464455.276196,2033,2877,10
1789464455.278741,2022,2876,10
1789464455.281041,2031,2875,10
1789464455.282331,2111,2876,10
1789464455.284627,2134,2879,10
1789464455.2869399,2120,2877,10
1789464455.288231,2079,2877,10
1789464455.290533,2084,2875,10
1789464455.2930849,1960,2874,10
1789464455.294144,1984,2875,10
1789464455.29909,2189,2878,10
1789464455.299593,2154,2878,10
1789464455.301728,2026,2875,10
1789464455.3039129,2088,2877,10
1789464455.3055842,2137,2877,10
1789464455.308397,2079,2878,10
1789464455.308553,2077,2878,10
1789464455.311033,2012,2874,10
1789464455.312195,2043,2875,10
1789464455.314774,2110,2878,10
1789464455.316971,2148,2878,10
1789464455.3192792,2051,2875,10
1789464455.3203359,2048,2877,10
1789464455.322639,1975,2874,10
1789464455.325183,2086,2877,10
1789464455.32624,2091,2877,10
1789464455.328537,2095,2877,10
1789464455.331084,2057,2877,10
1789464455.332371,2117,2877,10
1789464455.3344488,2105,2877,10
1789464455.3367522,2154,2878,10
1789464455.341142,2200,2877,10
1789464455.34161,2262,2878,10
1789464455.343671,1910,2874,10
1789464455.345212,1837,2874,10
1789464455.348248,2064,2875,10
1789464455.348423,1948,2875,10
1789464455.351681,1912,2875,10
1789464455.352791,1916,2874,10
1789464455.3551,2125,2878,10
1789464455.35619,2210,2876,10
1789464455.358746,2190,2878,10
1789464455.361322,2263,2878,10
1789464455.362612,2284,2878,10
1789464455.3649101,2233,2879,10
1789464455.366198,2084,2876,10
1789464455.368501,2003,2876,10
1789464455.3706849,2123,2878,10
1789464455.373234,2054,2877,10
1789464455.374277,1846,2874,10
1789464455.376833,2023,2877,10
1789464455.37891,2156,2878,10
1789464455.3802009,1938,2875,10
1789464455.38563,1784,2875,10
1789464455.386065,1838,2876,10
1789464455.386791,2426,2878,10
1789464455.3883011,2422,2878,10
1789464455.391546,2020,2876,10
1789464455.39313,2029,2876,10
1789464455.394735,1747,2874,10
1789464455.396804,1948,2875,10
1789464455.3981812,2216,2877,10
1789464455.400745,2212,2878,10
1789464455.403091,1871,2874,10
1789464455.404386,1930,2874,10
1789464455.406691,2255,2877,10
1789464455.408771,2403,2878,10
1789464455.411088,2102,2877,10
1789464455.412384,2013,2875,10
1789464455.414649,2216,2877,10
1789464455.416928,2280,2878,10
1789464455.4192278,2193,2879,10
1789464455.420272,2091,2876,10
1789464455.422705,1912,2873,10
1789464455.425109,1783,2874,10
1789464455.430326,1743,2875,10
1789464455.430859,2022,2874,10
1789464455.43233,2279,2878,10
1789464455.432483,1498,2874,10
1789464455.435337,1292,2873,10
1789464455.4376872,1938,2875,10
1789464455.4394329,2501,2878,10
1789464455.44119,2500,2878,10
1789464455.442451,2312,2876,10
1789464455.4447849,2107,2877,10
1789464455.446195,1864,2875,10
1789464455.448521,2460,2877,10
1789464455.450716,2846,2879,10
1789464455.4530811,2008,2875,10
1789464455.454344,1653,2874,10
1789464455.456671,1527,2874,10
1789464455.4588969,1838,2874,10
1789464455.4601989,2422,2877,10
1789464455.462649,2447,2878,10
1789464455.464968,2304,2877,10
1789464455.466211,2362,2878,10
1789464455.468394,2176,2874,10
1789464455.4708989,2117,2876,10
1789464455.4750578,2167,2876,10
1789464455.475557,1929,2874,10
1789464455.4779289,1835,2875,10
1789464455.4799669,1855,2875,10
1789464455.481994,1926,2873,10
1789464455.4834208,1972,2874,10
1789464455.485139,1921,2875,10
1789464455.487372,2137,2875,10
1789464455.488447,2274,2879,10
1789464455.4906611,2128,2877,10
1789464455.493237,2101,2878,10
1789464455.494564,2053,2876,10
1789464455.49713,1992,2875,10
1789464455.498214,1912,2875,10
1789464455.500297,2068,2875,10
1789464455.5025122,2125,2878,10
1789464455.5047328,2181,2878,10
1789464455.507095,2110,2877,10
1789464455.508211,2110,2878,10
1789464455.510763,2100,2878,10
1789464455.5132952,1994,2876,10
1789464455.514448,1962,2876,10
1789464455.5208051,2101,2876,10
1789464455.521743,2229,2878,10
1789464455.522727,2180,2877,10
1789464455.5239308,2075,2877,10
1789464455.525999,1967,2873,10
1789464455.5276318,1970,2873,10
1789464455.5294762,2200,2877,10
1789464455.531328,2132,2878,10
1789464455.533421,2051,2875,10
1789464455.534614,1928,2875,10
1789464455.537136,2065,2876,10
1789464455.5421891,2192,2877,10
1789464455.5426729,2156,2876,10
1789464455.544157,2018,2876,10
1789464455.5459971,2040,2875,10
1789464455.548119,2094,2877,10
1789464455.550146,2053,2875,10
1789464455.55206,2095,2878,10
1789464455.554403,2022,2874,10
1789464455.554511,2050,2877,10
1789464455.557054,2098,2878,10
1789464455.5583591,2013,2877,10
1789464455.5606,1908,2874,10
1789464455.562918,2000,2875,10
1789464455.564248,2095,2876,10
1789464455.5664032,2082,2878,10
1789464455.5687392,2054,2877,10
1789464455.571112,2194,2876,10
1789464455.572223,2143,2876,10
1789464455.574581,2178,2877,10
1789464455.576736,2069,2878,10
1789464455.579065,1907,2875,10
1789464455.5803661,2006,2876,10
1789464455.582794,2200,2878,10
1789464455.5895722,2080,2877,10
1789464455.5912452,2061,2877,10
1789464455.592542,2038,2877,10
1789464455.5927858,2111,2877,10
1789464455.5929759,2003,2875,10
1789464455.594832,2027,2876,10
1789464455.596229,2193,2878,10
1789464455.600171,2265,2877,10
1789464455.600457,2112,2877,10
1789464455.602562,2018,2876,10
1789464455.6051211,2180,2876,10
1789464455.606646,1981,2875,10
1789464455.6114612,1771,2875,10
1789464455.612041,2150,2879,10
1789464455.613709,2317,2878,10
1789464455.615814,2132,2877,10
1789464455.617158,1949,2874,10
1789464455.619266,2030,2877,10
1789464455.621315,2106,2877,10
1789464455.6234398,2091,2876,10
1789464455.624541,2160,2876,10
1789464455.627004,2062,2875,10
1789464455.628341,1995,2875,10
1789464455.630709,2036,2874,10
1789464455.632787,2095,2878,10
1789464455.635184,2033,2878,10
1789464455.636251,2103,2876,10
1789464455.638332,2188,2877,10
1789464455.640657,2145,2877,10
1789464455.643009,1972,2875,10
1789464455.644263,2052,2875,10
1789464455.646792,2205,2879,10
1789464455.6492732,2127,2878,10
1789464455.65059,1962,2875,10
1789464455.653155,1958,2874,10
1789464455.658596,1997,2874,10
1789464455.66,2169,2877,10
1789464455.660151,2156,2878,10
1789464455.6615,1929,2875,10
1789464455.663119,2021,2875,10
1789464455.665358,2154,2878,10
1789464455.667221,1997,2875,10
1789464455.6988401,2115,2877,10
1789464455.707993,2219,2878,10
1789464455.708333,2075,2878,10
1789464455.708374,1959,2875,10
1789464455.708791,2134,2879,10
1789464455.709056,2174,2878,10
1789464455.709313,2122,2879,10
1789464455.710283,1891,2876,10
1789464455.71039,1884,2875,10
1789464455.710507,2121,2878,10
1789464455.710602,2232,2877,10
1789464455.710668,2097,2877,10
1789464455.710731,2091,2877,10
1789464455.710794,2047,2875,10
1789464455.710885,2105,2875,10
1789464455.7109718,2087,2876,10
1789464455.711052,2001,2874,10
1789464455.711116,2030,2875,10
1789464455.7112162,2195,2877,10
1789464455.711304,1993,2877,10
1789464455.711392,2039,2875,10
1789464455.711457,2103,2877,10
1789464455.712518,2107,2877,10
1789464455.7154062,1875,2876,10
1789464455.7171571,2044,2876,10
1789464455.721272,2125,2878,10
1789464455.721358,2226,2878,10
1789464455.7244968,2160,2877,10
1789464455.724535,2012,2876,10
1789464455.7271638,1974,2874,10
1789464455.732196,2108,2876,10
1789464455.7327402,2106,2876,10
1789464455.7332191,2150,2876,10
1789464455.7352278,2077,2875,10
1789464455.7370071,2102,2877,10
1789464455.738577,2057,2876,10
1789464455.741329,2024,2877,10
1789464455.743484,1889,2874,10
1789464455.745733,2080,2875,10
1789464455.747048,2213,2879,10
1789464455.748168,2124,2877,10
1789464455.753566,2102,2877,10
1789464455.754528,1933,2874,10
1789464455.7550871,2099,2878,10
1789464455.756848,2164,2876,10
1789464455.7588968,2117,2877,10
1789464455.762401,2067,2876,10
1789464455.764513,2107,2878,10
1789464455.764669,2021,2876,10
1789464455.7670028,2023,2877,10
1789464455.768317,2088,2875,10
1789464455.7704809,2104,2877,10
1789464455.772795,2013,2875,10
1789464455.7753541,1918,2874,10
1789464455.7766669,2107,2877,10
1789464455.779231,2124,2877,10
1789464455.7805288,2158,2878,10
1789464455.783093,2119,2878,10
1789464455.784396,2097,2875,10
1789464455.786716,2098,2877,10
1789464455.78879,2076,2877,10
1789464455.791121,2123,2876,10
1789464455.7921789,2060,2877,10
1789464455.7944891,2014,2874,10
1789464455.796556,2019,2875,10
1789464455.799108,1937,2875,10
1789464455.8041532,2009,2876,10
1789464455.805438,2156,2878,10
1789464455.806087,2089,2878,10
1789464455.8075678,2022,2877,10
1789464455.8102899,2141,2877,10
1789464455.8108401,2138,2877,10
1789464455.8122408,2139,2878,10
1789464455.8157701,2067,2875,10
1789464455.818073,2088,2876,10
1789464455.819154,2125,2878,10
1789464455.8254158,2076,2876,10
1789464455.825909,2102,2876,10
1789464455.827254,2058,2877,10
1789464455.828959,2039,2876,10
1789464455.829241,2011,2875,10
1789464455.831397,2080,2876,10
1789464455.834917,2138,2878,10
1789464455.8351822,2062,2875,10
1789464455.8372989,2083,2876,10
1789464455.839596,2049,2876,10
1789464455.840925,2003,2878,10
1789464455.842239,1982,2874,10
1789464455.8443332,2097,2878,10
1789464455.8464189,2116,2879,10
1789464455.848989,2034,2875,10
1789464455.8502479,2022,2876,10
1789464455.852405,2056,2875,10
1789464455.854729,2119,2877,10
1789464455.857286,2173,2877,10
1789464455.8583832,1999,2877,10
1789464455.860734,1916,2874,10
1789464455.8633332,2105,2878,10
1789464455.864645,2230,2879,10
1789464455.867239,1915,2875,10
1789464455.8685162,2046,2875,10
1789464455.871125,2289,2877,10
1789464455.8770921,2237,2878,10
1789464455.878579,2092,2877,10
1789464455.8800619,2052,2876,10
1789464455.880244,2081,2874,10
1789464455.880372,2140,2878,10
1789464455.8836422,2099,2876,10
1789464455.885864,2044,2876,10
1789464455.887968,2005,2875,10
1789464455.890018,1957,2874,10
1789464455.8913019,1950,2874,10
1789464455.892353,2038,2877,10
1789464455.899026,2105,2875,10
1789464455.899137,2119,2876,10
1789464455.899634,2140,2877,10
1789464455.9014242,2101,2877,10
1789464455.903466,2096,2877,10
1789464455.905196,2154,2879,10
1789464455.907027,2138,2877,10
1789464455.909183,2047,2876,10
1789464455.911387,2036,2877,10
1789464455.9124532,2026,2874,10
1789464455.914975,2028,2875,10
1789464455.9172878,1955,2875,10
1789464455.918449,2091,2879,10
1789464455.9205859,2137,2877,10
1789464455.922828,2132,2876,10
1789464455.925387,2037,2876,10
1789464455.926684,2023,2877,10
1789464455.928986,2093,2877,10
1789464455.930304,2002,2875,10
1789464455.932628,1968,2875,10
1789464455.93469,2078,2875,10
1789464455.9370072,2156,2877,10
1789464455.938329,2127,2877,10
1789464455.940885,2144,2876,10
1789464455.946838,1980,2875,10
1789464455.946987,2076,2878,10
1789464455.947509,2267,2879,10
1789464455.9497962,2210,2878,10
1789464455.951641,2054,2877,10
1789464455.9535182,2029,2875,10
1789464455.9550269,2142,2877,10
1789464455.956953,2157,2878,10
1789464455.959293,2064,2878,10
1789464455.960591,2010,2874,10
1789464455.9629939,2089,2875,10
1789464455.966819,2124,2878,10
1789464455.967558,2116,2878,10
1789464455.96941,2047,2875,10
1789464455.971002,2114,2878,10
1789464455.973354,2127,2878,10
1789464455.974772,2040,2877,10
1789464455.9766662,1972,2874,10
1789464455.978816,1984,2875,10
1789464455.9813728,2011,2876,10
1789464455.98267,2062,2875,10
1789464455.984986,2161,2877,10
1789464455.9863071,2090,2876,10
1789464455.9888608,2043,2876,10
1789464455.9911811,2061,2877,10
1789464455.9935071,2141,2877,10
1789464455.994565,2185,2877,10
1789464455.9966779,2109,2876,10
1789464455.999244,2071,2876,10
1789464456.000297,2153,2877,10
1789464456.002847,2017,2874,10
1789464456.005163,2058,2877,10
1789464456.006266,2134,2876,10
1789464456.008817,2101,2876,10
1789464456.013896,1996,2875,10
1789464456.014333,2089,2875,10
1789464456.0147781,2159,2878,10
1789464456.0163991,2106,2878,10
1789464456.020115,1966,2874,10
1789464456.021548,2074,2878,10
1789464456.0236568,2159,2875,10
1789464456.02575,2096,2877,10
1789464456.027057,2074,2877,10
1789464456.028359,2113,2879,10
1789464456.030674,2100,2874,10
1789464456.0332422,2038,2876,10
1789464456.0343082,2028,2876,10
1789464456.036624,2128,2879,10
1789464456.039188,2121,2876,10
1789464456.040277,1980,2876,10
1789464456.042589,1943,2874,10
1789464456.044806,2060,2878,10
1789464456.047046,2158,2879,10
1789464456.049236,2076,2875,10
1789464456.0502982,2090,2878,10
1789464456.0527291,2074,2877,10
1789464456.055284,2100,2877,10
1789464456.056651,2048,2877,10
1789464456.060812,2123,2876,10
1789464456.061302,2082,2876,10
1789464456.063733,2041,2875,10
1789464456.065658,2022,2875,10
1789464456.067279,2029,2874,10
1789464456.0690079,2109,2878,10
1789464456.071224,2131,2877,10
1789464456.073271,2088,2876,10
1789464456.0745752,2009,2876,10
1789464456.076649,2051,2877,10
1789464456.078978,2091,2879,10
1789464456.080301,2140,2876,10
1789464456.082613,2080,2877,10
1789464456.084687,2030,2875,10
1789464456.08699,2163,2878,10
1789464456.088355,2149,2877,10
1789464456.090882,2082,2876,10
1789464456.0929542,2039,2876,10
1789464456.095264,2050,2875,10
1789464456.096318,2068,2875,10
1789464456.098867,2056,2876,10
1789464456.1011689,2038,2875,10
1789464456.1023092,2067,2877,10
1789464456.1077042,2064,2876,10
1789464456.1085608,2046,2877,10
1789464456.108701,2076,2875,10
1789464456.110537,2091,2877,10
1789464456.113597,2060,2876,10
1789464456.115805,2102,2876,10
1789464456.117959,2113,2879,10
1789464456.120019,2040,2875,10
1789464456.121321,2051,2877,10
1789464456.122613,2141,2876,10
1789464456.12514,2058,2877,10
1789464456.126457,2038,2877,10
1789464456.1290162,2084,2879,10
1789464456.1313238,2111,2878,10
1789464456.132619,2087,2876,10
1789464456.135167,2067,2876,10
1789464456.13748,2055,2877,10
1789464456.138538,2106,2877,10
1789464456.141097,2073,2875,10
1789464456.143162,2056,2876,10
1789464456.144305,2019,2874,10
1789464456.1466188,2009,2875,10
1789464456.14893,2083,2876,10
1789464456.154612,2082,2875,10
1789464456.155155,2068,2877,10
1789464456.155957,2112,2877,10
1789464456.157581,2125,2876,10
1789464456.159522,2079,2875,10
1789464456.161126,2033,2874,10
1789464456.162884,2082,2875,10
1789464456.1649559,2106,2875,10
1789464456.1667268,2082,2876,10
1789464456.169282,2064,2875,10
1789464456.170339,2082,2877,10
1789464456.1724029,2066,2875,10
1789464456.174601,2041,2875,10
1789464456.176919,2056,2877,10
1789464456.17924,2059,2875,10
1789464456.1805341,2097,2876,10
1789464456.1830819,2079,2876,10
1789464456.184374,2073,2875,10
1789464456.1864479,2078,2877,10
1789464456.188998,2116,2875,10
1789464456.191406,2093,2877,10
1789464456.192704,2048,2876,10
1789464456.195008,2051,2875,10
1789464456.19733,2094,2876,10
1789464456.202711,2090,2876,10
1789464456.2046962,2098,2879,10
1789464456.204986,2115,2877,10
1789464456.205076,2071,2875,10
1789464456.2084868,2029,2876,10
1789464456.2090082,2014,2874,10
1789464456.210451,2027,2875,10
1789464456.212503,2022,2876,10
1789464456.2146099,2077,2876,10
1789464456.2171679,2062,2875,10
1789464456.2183511,2044,2877,10
1789464456.220913,2111,2876,10
1789464456.223465,2124,2877,10
1789464456.22476,2108,2876,10
1789464456.22683,2087,2878,10
1789464456.229381,2078,2877,10
1789464456.2306712,2071,2876,10
1789464456.233217,2068,2877,10
1789464456.234506,2060,2876,10
1789464456.237053,2100,2877,10
1789464456.238341,2121,2875,10
1789464456.240648,2075,2876,10
1789464456.242944,2059,2878,10
1789464456.2475562,2087,2878,10
1789464456.248024,2099,2877,10
1789464456.250189,2099,2876,10
1789464456.251777,2088,2879,10
1789464456.253647,2055,2877,10
1789464456.255253,2072,2876,10
1789464456.257195,2060,2876,10
1789464456.259211,2086,2878,10
1789464456.26051,2071,2876,10
1789464456.262826,2081,2875,10
1789464456.264909,2088,2876,10
1789464456.2669828,2071,2876,10
1789464456.269307,2040,2875,10
1789464456.270603,2076,2876,10
1789464456.272705,2085,2876,10
1789464456.275098,2046,2877,10
1789464456.277479,2049,2876,10
1789464456.278592,2047,2875,10
1789464456.2806551,2078,2877,10
1789464456.283206,2046,2876,10
1789464456.284501,2015,2875,10
1789464456.2868118,2043,2875,10
1789464456.289613,2093,2876,10
1789464456.294503,2049,2876,10
1789464456.295049,2051,2876,10
1789464456.295813,2119,2877,10
1789464456.297274,2092,2878,10
1789464456.2992709,2076,2877,10
1789464456.300759,2078,2876,10
1789464456.3043242,2059,2876,10
1789464456.3045151,2109,2877,10
1789464456.3068218,2130,2876,10
1789464456.309145,2097,2876,10
1789464456.310595,2029,2876,10
1789464456.314759,2017,2875,10
1789464456.31597,2066,2876,10
1789464456.3177972,2136,2879,10
1789464456.320983,2087,2877,10
1789464456.321982,2154,2877,10
1789464456.323884,2155,2876,10
1789464456.326196,2085,2876,10
1789464456.3265579,2028,2876,10
1789464456.328544,2050,2875,10
1789464456.3308659,2074,2875,10
1789464456.3329659,2086,2876,10
1789464456.335042,2074,2875,10
1789464456.3373609,2074,2877,10
1789464456.3386722,2067,2876,10
1789464456.341233,2078,2876,10
1789464456.343524,2088,2877,10
1789464456.3457909,2048,2875,10
1789464456.347141,2023,2876,10
1789464456.348465,2058,2876,10
1789464456.35085,2052,2876,10
1789464456.353442,2047,2875,10
1789464456.3549922,2084,2876,10
1789464456.357358,2084,2876,10
1789464456.35843,2043,2876,10
1789464456.360663,2073,2877,10
1789464456.366832,2168,2877,10
1789464456.3700328,2181,2878,10
1789464456.370911,2115,2876,10
1789464456.371074,2079,2876,10
1789464456.372193,2117,2876,10
1789464456.374638,2046,2876,10
1789464456.3770728,1943,2873,10
1789464456.377345,2018,2874,10
1789464456.3795369,2055,2875,10
1789464456.380655,2029,2875,10
1789464456.382818,2028,2875,10
1789464456.3888159,2055,2875,10
1789464456.390769,2129,2877,10
1789464456.391077,2170,2876,10
1789464456.392777,2078,2876,10
1789464456.394134,2051,2877,10
1789464456.396915,2043,2875,10
1789464456.3970718,2130,2878,10
1789464456.3991868,2134,2877,10
1789464456.400959,2066,2874,10
1789464456.403307,2040,2874,10
1789464456.404392,2067,2876,10
1789464456.406624,2092,2877,10
1789464456.408823,2061,2875,10
1789464456.4109309,2082,2877,10
1789464456.41303,2096,2876,10
1789464456.41536,2092,2875,10
1789464456.416414,2042,2876,10
1789464456.418816,2107,2877,10
1789464456.421006,2102,2877,10
1789464456.4230888,2061,2876,10
1789464456.4244952,2053,2875,10
1789464456.426991,2050,2877,10
1789464456.429091,2066,2874,10
1789464456.4312692,2082,2876,10
1789464456.4355881,2148,2878,10
1789464456.436428,2096,2878,10
1789464456.438678,2038,2876,10
1789464456.438903,2085,2877,10
1789464456.442592,2081,2877,10
1789464456.444065,2050,2877,10
1789464456.445905,2049,2875,10
1789464456.44803,2068,2875,10
1789464456.449095,2090,2877,10
1789464456.450433,2046,2875,10
1789464456.452524,2041,2875,10
1789464456.455084,2061,2876,10
1789464456.4564312,2068,2876,10
1789464456.4589992,2072,2878,10
1789464456.46159,2045,2877,10
1789464456.4628842,2038,2875,10
1789464456.465204,2088,2879,10
1789464456.466502,2061,2876,10
1789464456.469049,2040,2876,10
1789464456.471256,2114,2878,10
1789464456.473362,2120,2877,10
1789464456.474656,2090,2876,10
1789464456.4767349,2076,2877,10
1789464456.4832408,2072,2877,10
1789464456.484066,2080,2875,10
1789464456.48454,2064,2876,10
1789464456.4862669,2046,2875,10
1789464456.4883468,2075,2878,10
1789464456.4888818,2125,2877,10
1789464456.49038,2120,2876,10
1789464456.4934988,2074,2877,10
1789464456.495213,2054,2878,10
1789464456.496518,2105,2878,10
1789464456.49883,2145,2878,10
1789464456.501251,2107,2878,10
1789464456.502549,2049,2875,10
1789464456.504865,2056,2877,10
1789464456.506937,2091,2877,10
1789464456.509186,2059,2877,10
1789464456.5112681,2042,2876,10
1789464456.512564,2069,2877,10
1789464456.515127,2090,2877,10
1789464456.516445,2078,2875,10
1789464456.518761,2046,2876,10
1789464456.520902,2117,2878,10
1789464456.5232131,2105,2878,10
1789464456.525287,2050,2875,10
1789464456.52994,2056,2876,10
1789464456.53035,2060,2876,10
1789464456.531499,2082,2875,10
1789464456.5330508,2082,2876,10
1789464456.5347478,2070,2876,10
1789464456.538152,2091,2878,10
1789464456.539999,2106,2877,10
1789464456.541743,2125,2876,10
1789464456.542942,2099,2876,10
1789464456.545495,2048,2876,10
1789464456.5467908,2059,2875,10
1789464456.54911,2085,2876,10
1789464456.551185,2062,2875,10
1789464456.5534961,2060,2878,10
1789464456.55455,2103,2876,10
1789464456.556854,2069,2875,10
1789464456.559405,2063,2876,10
1789464456.560698,2064,2877,10
1789464456.5630012,2068,2875,10
1789464456.565326,2074,2875,10
1789464456.5666199,2061,2875,10
1789464456.5691688,2072,2875,10
1789464456.570462,2063,2877,10
1789464456.5725281,2103,2876,10
1789464456.577673,2068,2875,10
1789464456.5784588,2052,2876,10
1789464456.5797482,2083,2877,10
1789464456.581633,2091,2876,10
1789464456.583457,2067,2876,10
1789464456.584957,2046,2876,10
1789464456.5866969,2084,2878,10
1789464456.5887601,2109,2875,10
1789464456.591323,2084,2876,10
1789464456.592619,2057,2876,10
1789464456.594944,2044,2877,10
1789464456.5974982,2086,2876,10
1789464456.598551,2108,2876,10
1789464456.601099,2113,2878,10
1789464456.603414,2076,2877,10
1789464456.604707,2105,2875,10
1789464456.6070132,2109,2876,10
1789464456.609335,2056,2876,10
1789464456.610442,2053,2877,10
1789464456.613,2050,2874,10
1789464456.615568,2093,2876,10
1789464456.616862,2081,2875,10
1789464456.6196768,2051,2875,10
1789464456.623625,2086,2877,10
1789464456.624085,2115,2876,10
1789464456.626265,2057,2876,10
1789464456.6278908,2032,2877,10
1789464456.62951,2070,2877,10
1789464456.6315541,2080,2876,10
1789464456.633255,2098,2877,10
1789464456.635343,2046,2876,10
1789464456.636647,2064,2878,10
1789464456.639201,2118,2878,10
1789464456.640487,2091,2875,10
1789464456.6429708,2046,2875,10
1789464456.645529,2069,2878,10
1789464456.6465778,2089,2874,10
1789464456.6486552,2083,2875,10
1789464456.6512158,2074,2876,10
1789464456.652512,2079,2878,10
1789464456.654824,2101,2876,10
1789464456.657127,2090,2876,10
1789464456.65842,2068,2876,10
1789464456.660971,2036,2875,10
1789464456.663496,2074,2875,10
1789464456.664789,2094,2876,10
1789464456.66726,2075,2876,10
1789464456.671343,2066,2874,10
1789464456.6714509,2070,2877,10
1789464456.673549,2098,2877,10
1789464456.6751602,2049,2876,10
1789464456.6784818,2050,2875,10
1789464456.67858,2046,2875,10
1789464456.681729,2074,2876,10
1789464456.683031,2069,2875,10
1789464456.6844459,2045,2876,10
1789464456.686996,2076,2876,10
1789464456.6927161,2090,2875,10
1789464456.6928902,2033,2876,10
1789464456.6936488,2045,2876,10
1789464456.696485,2055,2877,10
1789464456.696966,2068,2876,10
1789464456.701396,2087,2876,10
1789464456.701605,2049,2876,10
1789464456.703381,2078,2877,10
1789464456.704437,2103,2876,10
1789464456.7069912,2079,2877,10
1789464456.7095501,2046,2876,10
1789464456.710846,2047,2878,10
1789464456.713258,2083,2878,10
1789464456.714553,2087,2876,10
1789464456.717107,2070,2877,10
1789464456.718528,2047,2876,10
1789464456.720896,2099,2878,10
1789464456.723447,2079,2877,10
1789464456.7245061,2067,2876,10
1789464456.727057,2040,2875,10
1789464456.72847,2074,2877,10
1789464456.730622,2090,2875,10
1789464456.732935,2058,2876,10
1789464456.738719,2056,2876,10
1789464456.738813,2083,2878,10
1789464456.739264,2108,2877,10
1789464456.7412028,2080,2876,10
1789464456.743101,2058,2875,10
1789464456.7448902,2070,2876,10
1789464456.7478552,2107,2878,10
1789464456.749561,2106,2879,10
1789464456.750868,2037,2876,10
1789464456.752933,2049,2875,10
1789464456.754614,2089,2878,10
1789464456.758707,2087,2877,10
1789464456.759128,2060,2875,10
1789464456.76124,2041,2876,10
1789464456.7631192,2048,2874,10
1789464456.764871,2058,2876,10
1789464456.767732,2042,2875,10
1789464456.769769,2041,2875,10
1789464456.7710779,2090,2877,10
1789464456.7731469,2101,2877,10
1789464456.775768,2036,2875,10
1789464456.7770061,2000,2874,10
1789464456.7793221,2062,2878,10
1789464456.78163,2044,2875,10
1789464456.782675,2066,2878,10
1789464456.785221,2037,2875,10
1789464456.787288,2086,2877,10
1789464456.7885828,2087,2878,10
1789464456.790897,2063,2876,10
1789464456.793209,2065,2876,10
1789464456.7955241,2053,2877,10
1789464456.7968159,2071,2875,10
1789464456.798885,2069,2876,10
1789464456.803572,2072,2876,10
1789464456.8040352,2042,2874,10
1789464456.806114,2107,2876,10
1789464456.807861,2075,2875,10
1789464456.809664,2067,2876,10
1789464456.812499,2050,2876,10
1789464456.8126478,2043,2875,10
1789464456.815499,2083,2876,10
1789464456.8167932,2049,2876,10
1789464456.8191402,2052,2875,10
1789464456.8214421,2091,2876,10
1789464456.822734,2086,2875,10
1789464456.8250408,2045,2876,10
1789464456.827296,2005,2874,10
1789464456.829613,2019,2874,10
1789464456.83083,2076,2876,10
1789464456.83338,2107,2876,10
1789464456.834671,2075,2875,10
1789464456.8372202,2071,2876,10
1789464456.838562,2077,2875,10
1789464456.840875,2052,2875,10
1789464456.843423,2073,2878,10
1789464456.844744,2077,2877,10
1789464456.848421,2093,2878,10
1789464456.849615,2049,2876,10
1789464456.8510232,1991,2876,10
1789464456.8528829,1959,2875,10
1789464456.8558772,2094,2878,10
1789464456.857449,2092,2875,10
1789464456.859404,2013,2877,10
1789464456.860706,2001,2874,10
1789464456.8631968,2023,2876,10
1789464456.865263,2199,2878,10
1789464456.86735,2075,2876,10
1789464456.869434,2039,2875,10
1789464456.870628,2176,2878,10
1789464456.8731809,2180,2877,10
1789464456.8754811,2071,2877,10
1789464456.876773,1875,2874,10
1789464456.8793259,1803,2875,10
1789464456.8806221,2137,2876,10
1789464456.8829188,2283,2879,10
1789464456.885227,2039,2878,10
1789464456.887533,1999,2878,10
1789464456.8927412,2042,2877,10
1789464456.893583,2003,2874,10
1789464456.894,2088,2877,10
1789464456.89687,2182,2878,10
1789464456.897263,2197,2878,10
1789464456.9001448,2178,2878,10
1789464456.9017642,2109,2878,10
1789464456.903361,2040,2878,10
1789464456.9056761,1994,2874,10
1789464456.906975,2072,2878,10
1789464456.9093068,2056,2875,10
1789464456.910603,2041,2875,10
1789464456.912909,2049,2877,10
1789464456.915221,2092,2877,10
1789464456.917286,2100,2876,10
1789464456.918581,1972,2874,10
1789464456.920705,2017,2874,10
1789464456.923017,2196,2878,10
1789464456.9255638,2120,2878,10
1789464456.926671,2033,2875,10
1789464456.929217,2034,2875,10
1789464456.930569,2070,2878,10
1789464456.936268,2066,2877,10
1789464456.936353,1979,2874,10
1789464456.9386659,2002,2875,10
1789464456.938775,2101,2878,10
1789464456.941928,2074,2877,10
1789464456.945027,1999,2875,10
1789464456.945199,2025,2875,10
1789464456.946771,2096,2877,10
1789464456.949326,2011,2874,10
1789464456.950617,1999,2875,10
1789464456.9530509,2063,2877,10
1789464456.955523,2187,2877,10
1789464456.956819,2165,2878,10
1789464456.959122,2033,2876,10
1789464456.961189,1995,2875,10
1789464456.963501,1978,2875,10
1789464456.964555,2058,2875,10
1789464456.966666,2082,2877,10
1789464456.9689758,2057,2877,10
1789464456.971522,1971,2873,10
1789464456.972811,1955,2874,10
1789464456.975222,2015,2875,10
1789464456.979813,2172,2878,10
1789464456.980623,2137,2878,10
1789464456.981357,2140,2878,10
1789464456.982862,2082,2877,10
1789464456.985774,2115,2876,10
1789464456.987707,2183,2878,10
1789464456.989242,2146,2878,10
1789464456.9913652,2112,2877,10
1789464456.992665,2050,2878,10
1789464456.995218,2027,2873,10
1789464456.996521,1983,2875,10
1789464456.998831,2020,2874,10
1789464457.001153,1973,2875,10
1789464457.0037298,2047,2876,10
1789464457.005023,2085,2877,10
1789464457.00757,2091,2877,10
1789464457.008865,2046,2876,10
1789464457.0111759,1987,2875,10
1789464457.0125508,2043,2876,10
1789464457.015104,2091,2875,10
1789464457.017539,1963,2875,10
1789464457.01883,2014,2875,10
1789464457.02387,2213,2877,10
1789464457.024006,2035,2876,10
1789464457.026331,2061,2877,10
1789464457.028127,2034,2875,10
1789464457.029513,2106,2879,10
1789464457.031178,2221,2878,10
1789464457.0328262,2157,2876,10
1789464457.035372,2007,2875,10
1789464457.0377011,2007,2874,10
1789464457.038962,2122,2876,10
1789464457.041279,2108,2876,10
1789464457.042571,2021,2877,10
1789464457.044874,2039,2874,10
1789464457.0474272,2071,2874,10
1789464457.048717,2011,2876,10
1789464457.051018,2021,2875,10
1789464457.0530891,2110,2877,10
1789464457.055639,2062,2876,10
1789464457.056928,2051,2877,10
1789464457.0594618,2008,2876,10
1789464457.0605671,1934,2875,10
1789464457.062646,2084,2875,10
1789464457.068688,2097,2876,10
1789464457.069113,2102,2879,10
1789464457.0696409,2161,2877,10
1789464457.07126,2098,2875,10
1789464457.0731509,2098,2875,10
1789464457.0748858,2069,2875,10
1789464457.077753,2051,2875,10
1789464457.0797231,1993,2876,10
1789464457.08078,2089,2876,10
1789464457.0833302,2069,2875,10
1789464457.084602,1965,2875,10
1789464457.087003,2097,2876,10
1789464457.08931,2146,2876,10
1789464457.0906,2079,2876,10
1789464457.093158,2093,2876,10
1789464457.095475,2087,2874,10
1789464457.096564,2072,2876,10
1789464457.099114,1941,2876,10
1789464457.101422,1999,2874,10
1789464457.103737,2117,2877,10
1789464457.104914,2144,2877,10
1789464457.1072168,1943,2874,10
1789464457.1085901,1957,2874,10
1789464457.112963,2187,2878,10
1789464457.113729,1914,2876,10
1789464457.115407,1915,2876,10
1789464457.117253,2242,2878,10
1789464457.120267,2296,2877,10
1789464457.122078,2117,2876,10
1789464457.1236238,2080,2876,10
1789464457.124682,2125,2877,10
1789464457.126741,2166,2877,10
1789464457.129306,2147,2876,10
1789464457.131385,2038,2876,10
1789464457.132681,1968,2876,10
1789464457.135232,2077,2876,10
1789464457.136608,2021,2876,10
1789464457.1391628,1958,2876,10
1789464457.141442,2057,2876,10
1789464457.142581,2155,2877,10
1789464457.145133,2057,2875,10
1789464457.147504,1881,2876,10
1789464457.148561,1878,2877,10
1789464457.15086,2162,2878,10
1789464457.156969,2177,2878,10
1789464457.157381,2051,2876,10
1789464457.15747,2058,2877,10
1789464457.15886,2154,2876,10
1789464457.161477,2101,2877,10
1789464457.1633248,2128,2876,10
1789464457.1647549,2098,2875,10
1789464457.167508,2061,2875,10
1789464457.168799,2062,2874,10
1789464457.174529,2015,2875,10
1789464457.174614,1912,2876,10
1789464457.1746821,1961,2876,10
1789464457.177255,2193,2877,10
1789464457.1785579,2153,2878,10
1789464457.1811159,2082,2876,10
1789464457.182585,2117,2875,10
1789464457.18516,2119,2876,10
1789464457.186681,2004,2875,10
1789464457.189069,2021,2875,10
1789464457.190568,2048,2876,10
1789464457.193179,2010,2875,10
1789464457.19454,2059,2877,10
1789464457.197101,2128,2877,10
1789464457.204135,2130,2876,10
1789464457.2113101,2086,2876,10
1789464457.213601,2132,2877,10
1789464457.2136881,2080,2877,10
1789464457.213753,2012,2876,10
1789464457.213815,2038,2876,10
1789464457.213876,2024,2878,10
1789464457.213936,2086,2877,10
1789464457.215285,2047,2876,10
1789464457.217715,2175,2879,10
1789464457.21903,2106,2878,10
1789464457.2216,2113,2877,10
1789464457.2229068,2144,2877,10
1789464457.22547,2130,2876,10
1789464457.22677,2108,2876,10
1789464457.2293491,2073,2878,10
1789464457.230659,2027,2875,10
1789464457.233299,2016,2876,10
1789464457.2347252,2054,2876,10
1789464457.2374558,2115,2878,10
1789464457.238763,2110,2877,10
1789464457.241369,1960,2874,10
1789464457.242666,1988,2874,10
1789464457.24838,2076,2877,10
1789464457.2512891,2091,2878,10
1789464457.254753,2098,2876,10
1789464457.257343,2083,2875,10
1789464457.259394,2079,2879,10
1789464457.262101,2052,2878,10
1789464457.262194,2053,2877,10
1789464457.262263,2047,2876,10
1789464457.262335,2113,2877,10
1789464457.263933,2097,2878,10
1789464457.265332,2084,2875,10
1789464457.274935,2039,2875,10
1789464457.276366,2110,2879,10
1789464457.27734,2191,2876,10
1789464457.279022,2121,2877,10
1789464457.281079,2078,2877,10
1789464457.28134,2078,2877,10
1789464457.281875,2104,2877,10
1789464457.282252,2115,2877,10
1789464457.2845461,2088,2875,10
1789464457.284642,2067,2876,10
1789464457.2875252,2075,2877,10
1789464457.2889888,2031,2877,10
1789464457.2916732,2005,2875,10
1789464457.293036,2030,2876,10
1789464457.29564,2023,2874,10
1789464457.296938,2107,2878,10
1789464457.299586,2082,2878,10
1789464457.300954,2077,2878,10
1789464457.303636,2009,2875,10
1789464457.305207,2061,2877,10
1789464457.307904,2169,2878,10
1789464457.309257,2183,2877,10
1789464457.3106492,2101,2876,10
1789464457.313279,2036,2875,10
1789464457.314646,2087,2875,10
1789464457.317034,2097,2876,10
1789464457.32444,2095,2877,10
1789464457.327028,2105,2877,10
1789464457.329217,2140,2877,10
1789464457.330148,2040,2875,10
1789464457.3316119,1990,2874,10
1789464457.332745,2047,2875,10
1789464457.33673,2045,2876,10
1789464457.3369842,2102,2878,10
1789464457.337086,2059,2875,10
1789464457.337307,1959,2875,10
1789464457.339849,2120,2877,10
1789464457.341269,2104,2876,10
1789464457.342647,2022,2877,10
1789464457.350181,2048,2878,10
1789464457.355905,2113,2877,10
1789464457.3570838,2172,2879,10
1789464457.361024,2046,2875,10
1789464457.3614259,2093,2878,10
1789464457.36171,2169,2876,10
1789464457.362475,2139,2876,10
1789464457.364219,2021,2876,10
1789464457.3649049,2013,2873,10
1789464457.3649762,2044,2876,10
1789464457.36504,2004,2875,10
1789464457.367647,2029,2874,10
1789464457.3693728,2095,2878,10
1789464457.3707762,2105,2877,10
1789464457.373441,2106,2877,10
1789464457.374851,2102,2878,10
1789464457.377525,2023,2874,10
1789464457.3788831,2014,2876,10
1789464457.381558,2015,2875,10
1789464457.382913,2135,2879,10
1789464457.3857799,2068,2876,10
1789464457.38715,2131,2877,10
1789464457.389833,2096,2876,10
1789464457.391213,2101,2877,10
1789464457.393852,2154,2876,10
1789464457.395243,2117,2878,10
1789464457.396677,2104,2876,10
1789464457.399193,2022,2876,10
1789464457.406052,2073,2875,10
1789464457.407468,2118,2876,10
1789464457.407611,2141,2876,10
1789464457.411042,2043,2876,10
1789464457.411423,2003,2877,10
1789464457.415076,2062,2877,10
1789464457.416211,2061,2874,10
1789464457.421677,2147,2879,10
1789464457.422583,2137,2878,10
1789464457.425112,2054,2878,10
1789464457.425502,2055,2877,10
1789464457.4255722,2121,2876,10
1789464457.4256341,2103,2878,10
1789464457.427007,2093,2876,10
1789464457.429893,2150,2877,10
1789464457.4391198,2146,2878,10
1789464457.440879,2123,2878,10
1789464457.4414961,2075,2875,10
1789464457.4422069,2025,2874,10
1789464457.443306,1961,2874,10
1789464457.444381,2037,2877,10
1789464457.444984,2268,2878,10
1789464457.4451358,2249,2876,10
1789464457.447605,2243,2877,10
1789464457.450152,2178,2878,10
1789464457.452885,2190,2878,10
1789464457.452963,2160,2878,10
1789464457.455662,2177,2877,10
1789464457.457083,2069,2877,10
1789464457.4595351,2042,2876,10
1789464457.460886,2094,2877,10
1789464457.463518,2114,2877,10
1789464457.4655502,2087,2877,10
1789464457.466902,2042,2875,10
1789464457.469571,2116,2878,10
1789464457.470935,2246,2877,10
1789464457.4738271,2213,2878,10
1789464457.47522,2141,2878,10
1789464457.477893,2115,2878,10
1789464457.479278,2082,2878,10
1789464457.4807308,2035,2875,10
1789464457.4833338,2054,2876,10
1789464457.484722,2093,2876,10
1789464457.487246,2194,2878,10
1789464457.490004,2180,2876,10
1789464457.491429,2100,2876,10
1789464457.497525,1996,2873,10
1789464457.498197,2020,2875,10
1789464457.498801,1977,2875,10
1789464457.4995358,1958,2876,10
1789464457.504163,2089,2874,10
1789464457.504761,1997,2875,10
1789464457.506459,2120,2877,10
1789464457.5083048,2243,2876,10
1789464457.5103822,2175,2877,10
1789464457.513123,2125,2877,10
1789464457.5133681,2128,2878,10
1789464457.515472,2135,2876,10
1789464457.516792,2089,2876,10
1789464457.5189729,2075,2876,10
1789464457.5263228,2085,2878,10
1789464457.52691,2048,2876,10
1789464457.527504,2028,2875,10
1789464457.5292008,1979,2876,10
1789464457.529475,2053,2875,10
1789464457.531466,2079,2875,10
1789464457.533175,2142,2876,10
1789464457.5362802,2101,2876,10
1789464457.538594,2092,2878,10
1789464457.5387342,2106,2876,10
1789464457.541652,2073,2875,10
1789464457.5429802,2034,2876,10
1789464457.545556,2081,2877,10
1789464457.546865,2072,2875,10
1789464457.5489879,2044,2876,10
1789464457.551323,2044,2876,10
1789464457.553646,2116,2878,10
1789464457.554954,2150,2877,10
1789464457.5575192,2140,2876,10
1789464457.558688,2055,2876,10
1789464457.560999,2004,2874,10
1789464457.563536,2001,2874,10
1789464457.5646908,2128,2877,10
1789464457.5672529,2183,2878,10
1789464457.569566,2101,2877,10
1789464457.5708659,2085,2877,10
1789464457.57319,2090,2876,10
1789464457.575367,2082,2876,10
1789464457.577461,2015,2874,10
1789464457.57876,2035,2875,10
1789464457.5843651,2057,2876,10
1789464457.584864,2066,2876,10
1789464457.585719,2023,2874,10
1789464457.58802,2074,2876,10
1789464457.58952,2041,2877,10
1789464457.5914938,2084,2876,10
1789464457.594282,2104,2877,10
1789464457.596383,2123,2878,10
1789464457.598996,2104,2876,10
1789464457.599042,2127,2876,10
1789464457.601604,2095,2876,10
1789464457.6026711,2054,2873,10
1789464457.609241,1954,2874,10
1789464457.609777,2003,2876,10
1789464457.610349,2068,2877,10
1789464457.6121652,2162,2877,10
1789464457.6140301,2136,2878,10
1789464457.616982,2127,2878,10
1789464457.6186318,2078,2876,10
1789464457.618825,2033,2876,10
1789464457.621131,2114,2878,10
1789464457.623117,2115,2878,10
1789464457.6256902,2126,2876,10
1789464457.626765,2066,2876,10
1789464457.629348,2018,2874,10
1789464457.630667,2021,2876,10
1789464457.6329799,2106,2877,10
1789464457.635536,2104,2876,10
1789464457.63668,2037,2876,10
1789464457.639012,2051,2876,10
1789464457.6415732,2052,2877,10
1789464457.642702,1994,2876,10
1789464457.645191,1994,2874,10
1789464457.647757,2081,2877,10
1789464457.6490629,2115,2880,10
1789464457.651447,2111,2878,10
1789464457.65376,2127,2877,10
1789464457.655058,2166,2877,10
1789464457.657381,2121,2877,10
1789464457.659987,2037,2877,10
1789464457.664327,2015,2874,10
1789464457.6653,2076,2879,10
1789464457.666262,2032,2876,10
1789464457.668223,2058,2876,10
1789464457.67041,2123,2878,10
1789464457.672657,2158,2878,10
1789464457.672786,2100,2877,10
1789464457.676484,2062,2876,10
1789464457.67907,2076,2877,10
1789464457.679115,2082,2877,10
1789464457.6812449,2081,2875,10
1789464457.683569,2058,2875,10
1789464457.689545,2015,2875,10
1789464457.689682,2030,2875,10
1789464457.6901388,2080,2878,10
1789464457.69204,1940,2874,10
1789464457.693951,2025,2877,10
1789464457.695909,2127,2877,10
1789464457.6982589,2067,2876,10
1789464457.700356,2120,2877,10
1789464457.702398,2198,2878,10
1789464457.703705,2140,2877,10
1789464457.7049441,2151,2877,10
1789464457.707297,2130,2876,10
1789464457.709862,2081,2877,10
1789464457.711087,2039,2874,10
1789464457.713662,2013,2875,10
1789464457.714761,2041,2875,10
1789464457.716831,2035,2875,10
1789464457.719393,2032,2874,10
1789464457.72133,2030,2877,10
1789464457.723778,2102,2875,10
1789464457.7251258,2116,2876,10
1789464457.72761,2059,2877,10
1789464457.728966,2088,2878,10
1789464457.7313259,2058,2874,10
1789464457.733719,2043,2876,10
1789464457.735054,1968,2876,10
1789464457.737386,2073,2878,10
1789464457.738786,2125,2876,10
1789464457.74463,2103,2877,10
1789464457.745826,2081,2876,10
1789464457.747679,2080,2877,10
1789464457.747984,2073,2875,10
1789464457.74992,2051,2876,10
1789464457.751861,2085,2877,10
1789464457.754324,2149,2879,10
1789464457.7565818,2138,2876,10
1789464457.7592351,2023,2876,10
1789464457.759323,2003,2877,10
1789464457.761419,2084,2877,10
1789464457.76282,2134,2878,10
1789464457.769153,2182,2879,10
1789464457.7692428,2118,2878,10
1789464457.769791,2136,2878,10
1789464457.772052,2180,2877,10
1789464457.774817,2198,2878,10
1789464457.775774,2133,2876,10
1789464457.780548,2113,2877,10
1789464457.780709,2223,2877,10
1789464457.781016,2202,2879,10
1789464457.783618,2140,2878,10
1789464457.784838,2111,2877,10
1789464457.786932,2144,2878,10
1789464457.789275,2134,2878,10
1789464457.7913668,2071,2878,10
1789464457.7936919,2020,2876,10
1789464457.794996,2023,2875,10
1789464457.797319,2112,2878,10
1789464457.799646,2150,2877,10
1789464457.801078,2125,2879,10
1789464457.803659,2004,2874,10
1789464457.80573,2118,2877,10
1789464457.806804,2244,2878,10
1789464457.808888,2151,2876,10
1789464457.8112059,2154,2877,10
1789464457.8135412,2194,2879,10
1789464457.814848,2186,2878,10
1789464457.8174348,2126,2877,10
1789464457.818827,2122,2877,10
1789464457.823963,2165,2878,10
1789464457.824588,2144,2876,10
1789464457.8273642,2094,2878,10
1789464457.82759,2094,2877,10
1789464457.8303201,2034,2874,10
1789464457.8338718,2044,2875,10
1789464457.834151,2095,2875,10
1789464457.8388329,2058,2875,10
1789464457.838889,2130,2878,10
1789464457.8389308,2006,2876,10
1789464457.8412669,1902,2874,10
1789464457.848811,2107,2877,10
1789464457.84932,2243,2878,10
1789464457.850753,2222,2879,10
1789464457.851084,2123,2877,10
1789464457.853562,2081,2875,10
1789464457.854097,2074,2875,10
1789464457.855653,2120,2877,10
1789464457.857501,2142,2876,10
1789464457.859563,2095,2876,10
1789464457.86204,1997,2875,10
1789464457.863449,1973,2874,10
1789464457.8648052,2024,2876,10
1789464457.867465,2005,2876,10
1789464457.8692858,2038,2875,10
1789464457.87086,2210,2877,10
1789464457.873427,2250,2877,10
1789464457.875514,2126,2877,10
1789464457.877594,2063,2878,10
1789464457.8787572,2091,2877,10
1789464457.8808498,2087,2876,10
1789464457.8830478,2074,2876,10
1789464457.885658,2067,2877,10
1789464457.887041,2083,2877,10
1789464457.889639,2074,2877,10
1789464457.890923,2017,2875,10
1789464457.893138,1991,2874,10
1789464457.895752,2021,2874,10
1789464457.897089,2071,2875,10
1789464457.903512,2068,2875,10
1789464457.905615,2081,2875,10
1789464457.907639,2071,2878,10
1789464457.909824,2101,2877,10
1789464457.910094,2049,2875,10
1789464457.9127522,2025,2877,10
1789464457.9150999,2065,2877,10
1789464457.917403,2092,2878,10
1789464457.918112,2089,2875,10
1789464457.918365,2077,2876,10
1789464457.919749,2057,2875,10
1789464457.92088,2095,2877,10
1789464457.926987,2080,2876,10
1789464457.927628,2064,2877,10
1789464457.9306939,2047,2877,10
1789464457.931088,2080,2876,10
1789464457.9335191,2080,2876,10
1789464457.935033,2096,2876,10
1789464457.938402,2070,2875,10
1789464457.9406998,2109,2878,10
1789464457.941074,2094,2876,10
1789464457.9414,2035,2875,10
1789464457.9438038,2055,2875,10
1789464457.945164,2032,2874,10
1789464457.947577,2066,2875,10
1789464457.948812,2092,2876,10
1789464457.950928,2090,2879,10
1789464457.9530492,2098,2876,10
1789464457.9552991,2118,2876,10
1789464457.9579,2099,2876,10
1789464457.9592152,2069,2876,10
1789464457.9615738,2071,2878,10
1789464457.963881,2099,2877,10
1789464457.965039,2084,2876,10
1789464457.967568,2069,2876,10
1789464457.9699242,2051,2875,10
1789464457.9713259,2098,2878,10
1789464457.9727979,2130,2875,10
1789464457.975376,2070,2875,10
1789464457.977738,2071,2876,10
1789464457.979054,2073,2875,10
1789464457.9812522,2092,2876,10
1789464457.9828491,2114,2878,10
1789464457.9889128,2098,2877,10
1789464457.990092,2076,2877,10
1789464457.9922938,2093,2875,10
1789464457.99284,2084,2877,10
1789464457.9959722,2039,2876,10
1789464457.997636,2042,2874,10
1789464457.998296,2061,2876,10
1789464458.002943,2081,2876,10
1789464458.003593,2079,2878,10
1789464458.003722,2123,2876,10
1789464458.0063841,2146,2877,10
1789464458.007547,2122,2876,10
1789464458.008924,2062,2876,10
1789464458.019416,2106,2878,10
1789464458.021483,2142,2878,10
1789464458.0225542,2085,2876,10
1789464458.022778,2060,2876,10
1789464458.024749,2081,2877,10
1789464458.027245,2073,2877,10
1789464458.029645,2070,2876,10
1789464458.030165,2063,2876,10
1789464458.030411,2044,2876,10
1789464458.0306702,2075,2875,10
1789464458.031091,2090,2875,10
1789464458.0338612,2065,2876,10
1789464458.035257,2063,2875,10
1789464458.0374331,2109,2877,10
1789464458.0398579,2097,2876,10
1789464458.0409331,2083,2876,10
1789464458.04304,2054,2876,10
1789464458.045425,2053,2875,10
1789464458.047648,2107,2876,10
1789464458.048983,2109,2876,10
1789464458.051451,2048,2875,10
1789464458.052795,2071,2878,10
1789464458.0552168,2101,2876,10
1789464458.057755,2085,2876,10
1789464458.058885,2054,2876,10
1789464458.061512,2047,2875,10
1789464458.0628412,2086,2876,10
1789464458.065257,2104,2876,10
1789464458.0679739,2066,2875,10
1789464458.069371,2069,2878,10
1789464458.07179,2109,2876,10
1789464458.077607,2113,2876,10
1789464458.0781388,2075,2876,10
1789464458.079382,2029,2874,10
1789464458.082171,2086,2876,10
1789464458.084246,2087,2876,10
1789464458.084485,2079,2876,10
1789464458.085796,2058,2875,10
1789464458.0882502,2091,2877,10
1789464458.09302,2073,2875,10
1789464458.0934558,2031,2875,10
1789464458.09625,2052,2877,10
1789464458.0963619,2100,2878,10
1789464458.0975308,2113,2878,10
1789464458.0999281,2106,2878,10
1789464458.107054,2062,2875,10
1789464458.1080918,2065,2877,10
1789464458.109944,2110,2876,10
1789464458.112843,2090,2877,10
1789464458.1130571,2065,2876,10
1789464458.113628,2007,2874,10
1789464458.1148632,2059,2875,10
1789464458.115974,2053,2877,10
1789464458.1179771,2069,2877,10
1789464458.120445,2033,2875,10
1789464458.123036,2090,2877,10
1789464458.1230888,2115,2875,10
1789464458.1258519,2075,2877,10
1789464458.127306,2044,2876,10
1789464458.1297002,2055,2875,10
1789464458.1308532,2091,2876,10
1789464458.133395,2089,2876,10
1789464458.1359942,2074,2878,10
1789464458.137357,2104,2877,10
1789464458.139871,2119,2874,10
1789464458.1411269,2045,2875,10
1789464458.143859,2007,2874,10
1789464458.145293,2024,2875,10
1789464458.1475189,2065,2875,10
1789464458.1489432,2086,2877,10
1789464458.151368,2049,2875,10
1789464458.154021,2046,2876,10
1789464458.155392,2097,2876,10
1789464458.157902,2076,2877,10
1789464458.159101,2082,2877,10
1789464458.161251,2073,2878,10
1789464458.16766,2100,2876,10
1789464458.168821,2054,2876,10
1789464458.1699631,2058,2876,10
1789464458.170131,2058,2878,10
1789464458.1719182,2083,2876,10
1789464458.178968,2067,2875,10
1789464458.181503,2042,2876,10
1789464458.1819708,2086,2876,10
1789464458.182524,2088,2878,10
1789464458.182762,2088,2875,10
1789464458.1854239,2097,2876,10
1789464458.185834,2071,2876,10
1789464458.187186,2072,2877,10
1789464458.189993,2098,2876,10
1789464458.196167,2048,2876,10
1789464458.199081,2053,2876,10
1789464458.199486,2043,2875,10
1789464458.201685,2095,2876,10
1789464458.203855,2089,2876,10
1789464458.204549,2061,2875,10
1789464458.205735,2096,2876,10
1789464458.207841,2122,2876,10
1789464458.210282,2069,2876,10
1789464458.2110631,2063,2876,10
1789464458.213836,2061,2876,10
1789464458.214033,2084,2876,10
1789464458.215198,2080,2876,10
1789464458.217333,2060,2875,10
1789464458.219706,2031,2875,10
1789464458.22112,2094,2878,10
1789464458.223762,2076,2876,10
1789464458.224939,2043,2875,10
1789464458.227496,2045,2878,10
1789464458.228904,2065,2876,10
1789464458.231078,2086,2876,10
1789464458.2337558,2079,2876,10
1789464458.235169,2063,2877,10
1789464458.237591,2112,2877,10
1789464458.238976,2110,2876,10
1789464458.241554,2067,2876,10
1789464458.242904,2045,2876,10
1789464458.245396,2065,2875,10
1789464458.248003,2075,2875,10
1789464458.2493172,2076,2875,10
1789464458.251961,2056,2877,10
1789464458.259135,2082,2876,10
1789464458.259861,2109,2876,10
1789464458.262586,2062,2876,10
1789464458.2646558,2037,2876,10
1789464458.2656908,2057,2877,10
1789464458.2669802,2079,2876,10
1789464458.268105,2098,2876,10
1789464458.268279,2062,2876,10
1789464458.273277,2071,2877,10
1789464458.273719,2112,2876,10
1789464458.274094,2106,2876,10
1789464458.276821,2061,2876,10
1789464458.27698,2060,2877,10
1789464458.279466,2080,2874,10
1789464458.28784,2098,2876,10
1789464458.2885,2088,2876,10
1789464458.290282,2042,2875,10
1789464458.292809,2091,2877,10
1789464458.294028,2087,2877,10
1789464458.295417,2079,2877,10
1789464458.298912,2041,2875,10
1789464458.3012962,2057,2875,10
1789464458.304024,2087,2876,10
1789464458.304808,2064,2877,10
1789464458.304863,2057,2875,10
1789464458.304982,2077,2877,10
1789464458.305027,2081,2876,10
1789464458.3076758,2025,2876,10
1789464458.309044,2073,2875,10
1789464458.311528,2098,2877,10
1789464458.312929,2088,2878,10
1789464458.315307,2104,2879,10
1789464458.317926,2072,2876,10
1789464458.31935,2066,2874,10
1789464458.322171,2105,2877,10
1789464458.323565,2113,2877,10
1789464458.326123,2063,2876,10
1789464458.327276,2045,2876,10
1789464458.329652,2056,2874,10
1789464458.3309271,2096,2876,10
1789464458.333577,2079,2875,10
1789464458.33497,2066,2875,10
1789464458.3373802,2095,2877,10
1789464458.339989,2088,2875,10
1789464458.3413289,2071,2876,10
1789464458.34395,2053,2875,10
1789464458.35341,2065,2876,10
1789464458.3579142,2097,2877,10
1789464458.362261,2066,2875,10
1789464458.3650181,2065,2876,10
1789464458.3655648,2070,2877,10
1789464458.365994,2116,2877,10
1789464458.3661618,2092,2875,10
1789464458.368337,2051,2875,10
1789464458.369196,2054,2877,10
1789464458.369298,2086,2878,10
1789464458.369356,2083,2876,10
1789464458.369447,2083,2876,10
1789464458.3695629,2076,2878,10
1789464458.371979,2100,2878,10
1789464458.373475,2108,2876,10
1789464458.3787441,2072,2877,10
1789464458.380548,2037,2878,10
1789464458.382995,2057,2875,10
1789464458.3835242,2100,2875,10
1789464458.386078,2085,2875,10
1789464458.387578,2042,2875,10
1789464458.388188,2106,2877,10
1789464458.393205,2088,2877,10
1789464458.393619,2041,2875,10
1789464458.39401,2053,2876,10
1789464458.396814,2075,2877,10
1789464458.396945,2095,2878,10
1789464458.3993878,2095,2876,10
1789464458.4017322,2072,2876,10
1789464458.403826,2085,2878,10
1789464458.405159,2101,2876,10
1789464458.407733,2103,2876,10
1789464458.40904,2072,2876,10
1789464458.411455,2069,2877,10
1789464458.4140182,2065,2875,10
1789464458.415074,2065,2876,10
1789464458.4176462,2051,2876,10
1789464458.4199622,2056,2876,10
1789464458.421268,2092,2876,10
1789464458.423339,2064,2876,10
1789464458.425904,2061,2876,10
1789464458.427184,2083,2876,10
1789464458.42926,2097,2876,10
1789464458.4316008,2083,2877,10
1789464458.433685,2077,2875,10
1789464458.44085,2074,2875,10
1789464458.441047,2123,2878,10
1789464458.4425879,2121,2876,10
1789464458.44313,2054,2875,10
1789464458.4448462,2018,2875,10
1789464458.445183,2062,2877,10
1789464458.4473789,2081,2875,10
1789464458.450109,2094,2876,10
1789464458.4540002,2079,2876,10
1789464458.454221,2086,2878,10
1789464458.4569678,2089,2876,10
1789464458.457182,2045,2876,10
1789464458.459763,2026,2875,10
1789464458.460942,2070,2876,10
1789464458.467145,2105,2878,10
1789464458.4673421,2118,2878,10
1789464458.468332,2082,2878,10
1789464458.470502,2029,2876,10
1789464458.4729931,2047,2878,10
1789464458.473536,2095,2877,10
1789464458.4773061,2113,2877,10
1789464458.4775932,2098,2877,10
1789464458.47967,2078,2877,10
1789464458.482334,2061,2876,10
1789464458.483403,2056,2876,10
1789464458.4856079,2090,2877,10
1789464458.487948,2180,2879,10
1789464458.489015,2145,2878,10
1789464458.4910982,2082,2877,10
1789464458.493255,2071,2877,10
1789464458.4958222,2058,2875,10
1789464458.497149,2065,2875,10
1789464458.499685,2082,2876,10
1789464458.502003,2017,2874,10
1789464458.503314,2054,2877,10
1789464458.505645,2117,2875,10
1789464458.507961,2116,2876,10
1789464458.509017,2015,2876,10
1789464458.5113978,2003,2875,10
1789464458.513963,2068,2875,10
1789464458.5152771,2082,2876,10
1789464458.517836,2105,2878,10
1789464458.519138,2094,2876,10
1789464458.5259142,2020,2877,10
1789464458.5268521,1993,2875,10
1789464458.5273752,1983,2874,10
1789464458.5278761,2116,2878,10
1789464458.5293581,2137,2878,10
1789464458.532657,2124,2878,10
1789464458.5352929,2033,2875,10
1789464458.537212,2082,2878,10
1789464458.5373812,2202,2877,10
1789464458.539778,2160,2878,10
1789464458.5410821,2042,2877,10
1789464458.543447,1920,2874,10
1789464458.5481632,2139,2878,10
1789464458.548649,2106,2879,10
1789464458.551203,2000,2875,10
1789464458.551401,2083,2878,10
1789464458.5545862,2116,2878,10
1789464458.557129,2039,2877,10
1789464458.55734,2056,2877,10
1789464458.559188,1792,2874,10
1789464458.561688,1748,2875,10
1789464458.564016,2244,2878,10
1789464458.565343,2446,2879,10
1789464458.567457,2199,2878,10
1789464458.5698,2185,2877,10
1789464458.570963,2186,2876,10
1789464458.573288,2078,2876,10
1789464458.575437,2080,2875,10
1789464458.5779982,2164,2875,10
1789464458.579299,2105,2875,10
1789464458.5816278,1867,2875,10
1789464458.584092,1832,2875,10
1789464458.585393,1936,2874,10
1789464458.5877209,2140,2876,10
1789464458.589033,2081,2877,10
1789464458.591499,1770,2875,10
1789464458.593809,1934,2875,10
1789464458.595113,2339,2878,10
1789464458.6014998,2372,2878,10
1789464458.6024792,1989,2876,10
1789464458.603441,2174,2877,10
1789464458.6053572,2123,2877,10
1789464458.605647,2090,2876,10
1789464458.607837,2038,2874,10
1789464458.609239,2062,2876,10
1789464458.611615,2209,2878,10
1789464458.613492,2209,2877,10
1789464458.615517,1984,2878,10
1789464458.617843,1882,2874,10
1789464458.6189618,1913,2874,10
1789464458.6246731,2071,2878,10
1789464458.62599,2071,2875,10
1789464458.627821,2177,2877,10
1789464458.628007,2229,2877,10
1789464458.629786,2183,2877,10
1789464458.631638,2007,2876,10
1789464458.6338592,1908,2874,10
1789464458.635786,1987,2875,10
1789464458.6382139,2067,2874,10
1789464458.639533,2116,2877,10
1789464458.6418612,2230,2878,10
1789464458.643174,2150,2877,10
1789464458.645488,2012,2876,10
1789464458.647804,1944,2874,10
1789464458.649123,2039,2875,10
1789464458.651456,2097,2875,10
1789464458.653781,2064,2875,10
1789464458.655085,2073,2878,10
1789464458.657177,1720,2874,10
1789464458.659487,1917,2874,10
1789464458.661817,2195,2877,10
1789464458.663124,2171,2878,10
1789464458.665445,2031,2878,10
1789464458.6677601,2155,2877,10
1789464458.67007,2236,2878,10
1789464458.6713002,2234,2878,10
1789464458.677147,2217,2877,10
1789464458.6782029,2104,2877,10
1789464458.678314,2198,2877,10
1789464458.680533,2007,2874,10
1789464458.682345,1802,2874,10
1789464458.684282,1709,2874,10
1789464458.6865542,2053,2877,10
1789464458.688546,2110,2876,10
1789464458.690581,2218,2878,10
1789464458.6918888,2235,2877,10
1789464458.692962,2051,2877,10
1789464458.699166,1934,2873,10
1789464458.699591,2189,2879,10
1789464458.7001212,2364,2878,10
1789464458.7022212,2196,2878,10
1789464458.704364,1857,2874,10
1789464458.70591,1927,2874,10
1789464458.70815,2091,2877,10
1789464458.7100642,1955,2874,10
1789464458.712449,1978,2876,10
1789464458.713762,1833,2875,10
1789464458.715981,2096,2875,10
1789464458.717064,2305,2879,10
1789464458.719622,2343,2878,10
1789464458.722185,2287,2878,10
1789464458.723419,2234,2878,10
1789464458.725734,2099,2877,10
1789464458.727044,1876,2875,10
1789464458.7293599,2101,2876,10
1789464458.7316759,2127,2875,10
1789464458.733034,2113,2878,10
1789464458.735167,1938,2874,10
1789464458.737526,1964,2877,10
1789464458.739841,1817,2873,10
1789464458.7421498,1779,2873,10
1789464458.7432141,2068,2875,10
1789464458.745654,2095,2876,10
1789464458.747009,2096,2879,10
1789464458.752555,2098,2877,10
1789464458.752675,2115,2877,10
1789464458.755218,1907,2874,10
1789464458.7555041,1880,2876,10
1789464458.7590451,2145,2877,10
1789464458.7595918,2305,2878,10
1789464458.7617111,2316,2879,10
