timestamp,ch1,ch2,label
1789464357.062525,2106,2877,7_S
1789464357.064646,2091,2876,7_S
1789464357.066431,2078,2876,7_S
1789464357.068017,2060,2876,7_S
1789464357.071879,2069,2876,7_S
1789464357.072122,2105,2876,7_S
1789464357.073898,2078,2876,7_S
1789464357.076341,2046,2874,7_S
1789464357.0774322,2081,2876,7_S
1789464357.079989,2109,2877,7_S
1789464357.0822241,2090,2875,7_S
1789464357.0834,2044,2876,7_S
1789464357.0859149,2044,2876,7_S
1789464357.088224,2084,2876,7_S
1789464357.090533,2093,2876,7_S
1789464357.09164,2087,2877,7_S
1789464357.093941,2060,2877,7_S
1789464357.0962439,2105,2876,7_S
1789464357.097451,2096,2875,7_S
1789464357.0997481,2060,2876,7_S
1789464357.10203,2062,2876,7_S
1789464357.1059341,2085,2876,7_S
1789464357.106414,2096,2875,7_S
1789464357.108171,2069,2876,7_S
1789464357.10991,2047,2875,7_S
1789464357.112869,2092,2877,7_S
1789464357.114918,2099,2876,7_S
1789464357.116205,2087,2876,7_S
1789464357.117471,2022,2877,7_S
1789464357.11981,2045,2874,7_S
1789464357.122148,2093,2876,7_S
1789464357.1235049,2086,2876,7_S
1789464357.125746,2054,2875,7_S
1789464357.127847,2082,2877,7_S
1789464357.130154,2127,2875,7_S
1789464357.1324658,2110,2875,7_S
1789464357.1337569,2049,2876,7_S
1789464357.136061,2038,2875,7_S
1789464357.138286,2080,2875,7_S
1789464357.139578,2109,2876,7_S
1789464357.1445298,2060,2876,7_S
1789464357.14537,2059,2876,7_S
1789464357.145748,2095,2875,7_S
1789464357.148046,2099,2875,7_S
1789464357.149838,2059,2875,7_S
1789464357.153495,2051,2877,7_S
1789464357.153666,2100,2875,7_S
1789464357.15574,2131,2876,7_S
1789464357.157825,2086,2876,7_S
1789464357.160137,2051,2874,7_S
1789464357.1614249,2096,2876,7_S
1789464357.163882,2118,2876,7_S
1789464357.166177,2082,2875,7_S
1789464357.1682408,2057,2876,7_S
1789464357.169365,2055,2875,7_S
1789464357.171413,2086,2875,7_S
1789464357.1739662,2141,2878,7_S
1789464357.17655,2042,2875,7_S
1789464357.177602,2063,2876,7_S
1789464357.179903,2116,2875,7_S
1789464357.184673,2099,2875,7_S
1789464357.18508,2029,2876,7_S
1789464357.187058,2029,2874,7_S
1789464357.18842,2084,2875,7_S
1789464357.190521,2119,2876,7_S
1789464357.19242,2083,2875,7_S
1789464357.194165,2059,2875,7_S
1789464357.195461,2101,2876,7_S
1789464357.1980228,2112,2876,7_S
1789464357.200216,2037,2877,7_S
1789464357.2015061,2011,2873,7_S
1789464357.2038012,2068,2875,7_S
1789464357.20635,2100,2876,7_S
1789464357.207399,2115,2876,7_S
1789464357.209701,2078,2877,7_S
1789464357.212063,2098,2876,7_S
1789464357.2143722,2127,2877,7_S
1789464357.215661,2095,2875,7_S
1789464357.218001,2046,2876,7_S
1789464357.2225652,2072,2874,7_S
1789464357.223308,2085,2876,7_S
1789464357.22369,2078,2876,7_S
1789464357.226354,2056,2874,7_S
1789464357.227694,2065,2877,7_S
1789464357.231046,2095,2876,7_S
1789464357.232342,2090,2875,7_S
1789464357.233397,2052,2876,7_S
1789464357.2359612,2018,2875,7_S
1789464357.238515,2133,2878,7_S
1789464357.2395608,2126,2876,7_S
1789464357.241864,2059,2875,7_S
1789464357.244168,2028,2874,7_S
1789464357.245458,2078,2876,7_S
1789464357.247752,2103,2876,7_S
1789464357.250057,2048,2876,7_S
1789464357.251394,2017,2874,7_S
1789464357.2538729,2056,2875,7_S
1789464357.256406,2078,2876,7_S
1789464357.259881,2069,2875,7_S
1789464357.260268,2022,2875,7_S
1789464357.262123,2126,2876,7_S
1789464357.263571,2189,2876,7_S
1789464357.2662752,2133,2876,7_S
1789464357.26829,2054,2875,7_S
1789464357.269342,2043,2875,7_S
1789464357.271755,2087,2877,7_S
1789464357.27432,2091,2875,7_S
1789464357.275363,2060,2876,7_S
1789464357.27766,2053,2876,7_S
1789464357.279968,2109,2876,7_S
1789464357.2824588,2103,2876,7_S
1789464357.283498,2049,2875,7_S
1789464357.286046,2009,2874,7_S
1789464357.288537,2062,2875,7_S
1789464357.289588,2112,2876,7_S
1789464357.291894,2067,2876,7_S
1789464357.293288,2057,2874,7_S
1789464357.29756,2129,2876,7_S
1789464357.298541,2187,2876,7_S
1789464357.30016,2029,2875,7_S
1789464357.3016179,1955,2874,7_S
1789464357.304419,2030,2875,7_S
1789464357.306923,2109,2876,7_S
1789464357.308222,2042,2875,7_S
1789464357.3092659,1965,2875,7_S
1789464357.311579,2034,2876,7_S
1789464357.313746,2111,2875,7_S
1789464357.3160472,2119,2875,7_S
1789464357.318362,2066,2876,7_S
1789464357.319478,2075,2877,7_S
1789464357.321546,2071,2876,7_S
1789464357.3238652,2066,2876,7_S
1789464357.3263848,2019,2876,7_S
1789464357.3276742,1999,2875,7_S
1789464357.330016,2229,2878,7_S
1789464357.331247,2145,2875,7_S
1789464357.335876,2058,2875,7_S
1789464357.3362792,1996,2874,7_S
1789464357.338551,2048,2875,7_S
1789464357.3404381,2118,2876,7_S
1789464357.342861,2006,2876,7_S
1789464357.345312,1973,2875,7_S
1789464357.345535,2097,2876,7_S
1789464357.3483038,2141,2876,7_S
1789464357.3495371,2058,2876,7_S
1789464357.351878,2016,2877,7_S
1789464357.3541849,2042,2875,7_S
1789464357.3552582,2166,2876,7_S
1789464357.3575559,2046,2876,7_S
1789464357.359872,2039,2875,7_S
1789464357.361918,2150,2876,7_S
1789464357.36324,2079,2875,7_S
1789464357.365783,2069,2876,7_S
1789464357.368139,1942,2875,7_S
1789464357.369233,1854,2875,7_S
1789464357.371562,2086,2878,7_S
1789464357.373874,1995,2876,7_S
1789464357.378261,1736,2876,7_S
1789464357.379678,2200,2877,7_S
1789464357.380096,2707,2878,7_S
1789464357.382955,2305,2876,7_S
1789464357.385382,1791,2873,7_S
1789464357.386237,1948,2875,7_S
1789464357.388033,2377,2878,7_S
1789464357.38933,2329,2877,7_S
1789464357.391596,2158,2874,7_S
1789464357.394033,1865,2875,7_S
1789464357.395454,1847,2873,7_S
1789464357.398853,1765,2873,7_S
1789464357.400596,1662,2873,7_S
1789464357.4023108,2144,2876,7_S
1789464357.4035242,2454,2877,7_S
1789464357.407603,2362,2878,7_S
1789464357.407638,2022,2874,7_S
1789464357.4098501,1911,2875,7_S
1789464357.4121861,2241,2879,7_S
1789464357.4134772,2045,2875,7_S
1789464357.415786,1885,2874,7_S
1789464357.418345,2143,2877,7_S
1789464357.419637,2275,2877,7_S
1789464357.4220018,2058,2876,7_S
1789464357.423258,1108,2874,7_S
1789464357.4256241,1762,2874,7_S
1789464357.427935,2338,2877,7_S
1789464357.429249,2550,2879,7_S
1789464357.4315672,2285,2877,7_S
1789464357.436034,2009,2877,7_S
1789464357.436812,1696,2873,7_S
1789464357.4381921,1723,2875,7_S
1789464357.4396951,1984,2874,7_S
1789464357.4423108,2913,2879,7_S
1789464357.443444,3010,2878,7_S
1789464357.446174,2487,2878,7_S
1789464357.447496,2008,2876,7_S
1789464357.450054,2057,2878,7_S
1789464357.4513438,1944,2875,7_S
1789464357.453661,2127,2876,7_S
1789464357.4559731,2135,2876,7_S
1789464357.458087,1895,2875,7_S
1789464357.459264,1401,2874,7_S
1789464357.461569,1798,2874,7_S
1789464357.463684,2023,2876,7_S
1789464357.466238,2205,2876,7_S
1789464357.46753,2203,2877,7_S
1789464357.4699872,2262,2879,7_S
1789464357.471275,2267,2876,7_S
1789464357.4735832,2346,2879,7_S
1789464357.477922,2304,2877,7_S
1789464357.478035,2329,2878,7_S
1789464357.4800022,1925,2878,7_S
1789464357.4822779,1782,2875,7_S
1789464357.484512,1996,2876,7_S
1789464357.4868789,2345,2877,7_S
1789464357.4879491,2281,2877,7_S
1789464357.489247,1882,2874,7_S
1789464357.491596,1907,2875,7_S
1789464357.4936829,2086,2874,7_S
1789464357.495967,2045,2877,7_S
1789464357.497107,2129,2876,7_S
1789464357.499396,2348,2877,7_S
1789464357.501685,1896,2873,7_S
1789464357.5038779,1958,2875,7_S
1789464357.5059688,2188,2876,7_S
1789464357.5071099,2368,2878,7_S
1789464357.5094342,2071,2874,7_S
1789464357.511818,2153,2877,7_S
1789464357.516535,1834,2873,7_S
1789464357.517374,1744,2874,7_S
1789464357.5185862,1990,2873,7_S
1789464357.5203068,2449,2878,7_S
1789464357.5230231,2273,2877,7_S
1789464357.52435,2027,2875,7_S
1789464357.5260391,1500,2875,7_S
1789464357.527117,1634,2875,7_S
1789464357.529265,2507,2877,7_S
1789464357.531625,2201,2877,7_S
1789464357.534085,2197,2877,7_S
1789464357.5351481,2145,2877,7_S
1789464357.537556,2292,2878,7_S
1789464357.53988,1959,2876,7_S
1789464357.542179,1670,2874,7_S
1789464357.543236,1995,2876,7_S
1789464357.545501,2715,2878,7_S
1789464357.548099,2651,2878,7_S
1789464357.549161,2356,2877,7_S
1789464357.554969,2118,2876,7_S
1789464357.555849,2100,2876,7_S
1789464357.557097,2228,2875,7_S
1789464357.557205,2371,2876,7_S
1789464357.559838,2179,2876,7_S
1789464357.561506,1988,2875,7_S
1789464357.564668,1832,2874,7_S
1789464357.566001,1675,2874,7_S
1789464357.5671492,1777,2877,7_S
1789464357.569603,1781,2874,7_S
1789464357.5718908,2312,2877,7_S
1789464357.574325,2430,2878,7_S
1789464357.575382,2117,2876,7_S
1789464357.577467,1580,2875,7_S
1789464357.579883,1415,2875,7_S
1789464357.581972,2335,2877,7_S
1789464357.583114,2395,2877,7_S
1789464357.585185,2104,2877,7_S
1789464357.58726,1873,2875,7_S
1789464357.5895748,2028,2874,7_S
1789464357.593247,2620,2879,7_S
1789464357.593707,2626,2879,7_S
1789464357.5959392,2445,2877,7_S
1789464357.597287,2310,2876,7_S
1789464357.601412,2062,2876,7_S
1789464357.601526,1762,2874,7_S
1789464357.604118,1924,2874,7_S
1789464357.605412,1942,2876,7_S
1789464357.607967,1980,2874,7_S
1789464357.6092732,2014,2875,7_S
1789464357.6116428,2068,2875,7_S
1789464357.614142,2104,2876,7_S
1789464357.6155488,2019,2877,7_S
1789464357.617942,1864,2873,7_S
1789464357.620063,1430,2874,7_S
1789464357.6211572,1784,2874,7_S
1789464357.623369,2449,2877,7_S
1789464357.625927,2141,2877,7_S
1789464357.627167,2145,2877,7_S
1789464357.6326132,2140,2877,7_S
1789464357.633007,2124,2877,7_S
1789464357.633844,2014,2874,7_S
1789464357.635326,2246,2878,7_S
1789464357.640679,2096,2875,7_S
1789464357.640857,1508,2874,7_S
1789464357.642546,1870,2875,7_S
1789464357.643692,2456,2878,7_S
1789464357.645817,2410,2877,7_S
1789464357.648122,2072,2876,7_S
1789464357.649396,2082,2876,7_S
1789464357.6528928,2207,2877,7_S
1789464357.655173,1843,2875,7_S
1789464357.655342,2141,2876,7_S
1789464357.658248,2185,2878,7_S
1789464357.66065,2045,2877,7_S
1789464357.662455,1990,2876,7_S
1789464357.66351,2071,2875,7_S
1789464357.665568,2187,2877,7_S
1789464357.667864,2169,2878,7_S
1789464357.669157,2192,2876,7_S
1789464357.671211,2087,2876,7_S
1789464357.67376,2094,2875,7_S
1789464357.6758149,2026,2874,7_S
1789464357.6781309,2001,2877,7_S
1789464357.67936,1896,2877,7_S
1789464357.6815,1951,2876,7_S
1789464357.683947,1929,2874,7_S
1789464357.686273,2063,2875,7_S
1789464357.6873431,2211,2879,7_S
1789464357.691417,2200,2878,7_S
1789464357.692953,2099,2874,7_S
1789464357.6943429,2022,2875,7_S
1789464357.695884,2006,2877,7_S
1789464357.6985989,2013,2876,7_S
1789464357.7001832,2006,2876,7_S
1789464357.702098,2172,2877,7_S
1789464357.703399,2309,2878,7_S
1789464357.706306,2031,2875,7_S
1789464357.707596,1920,2877,7_S
1789464357.713119,2003,2875,7_S
1789464357.714703,2143,2876,7_S
1789464357.71486,2100,2876,7_S
1789464357.71624,2000,2876,7_S
1789464357.719327,1930,2874,7_S
1789464357.720957,2045,2875,7_S
1789464357.7229571,2159,2878,7_S
1789464357.724278,2086,2876,7_S
1789464357.7253408,2137,2878,7_S
1789464357.7276459,2106,2877,7_S
1789464357.7289999,2051,2878,7_S
1789464357.731224,2154,2875,7_S
1789464357.7337668,2047,2877,7_S
1789464357.735052,2041,2878,7_S
1789464357.737355,2131,2878,7_S
1789464357.739661,2136,2878,7_S
1789464357.7410161,2049,2875,7_S
1789464357.743229,2047,2875,7_S
1789464357.7455401,2093,2877,7_S
1789464357.748078,2117,2878,7_S
1789464357.749269,2102,2875,7_S
1789464357.754445,2039,2877,7_S
1789464357.7549179,2009,2875,7_S
1789464357.756386,2067,2875,7_S
1789464357.757955,2106,2875,7_S
1789464357.760588,2033,2875,7_S
1789464357.762034,2019,2874,7_S
1789464357.764024,2073,2877,7_S
1789464357.765227,2085,2876,7_S
1789464357.767782,2058,2875,7_S
1789464357.769042,1970,2874,7_S
1789464357.771488,2066,2875,7_S
1789464357.774029,2119,2876,7_S
1789464357.775075,2080,2876,7_S
1789464357.777199,2038,2874,7_S
1789464357.779521,2152,2877,7_S
1789464357.781829,2196,2877,7_S
1789464357.783118,2113,2875,7_S
1789464357.785663,2068,2876,7_S
1789464357.7870212,2145,2877,7_S
1789464357.789388,2098,2876,7_S
1789464357.793992,2069,2876,7_S
1789464357.79471,2035,2876,7_S
1789464357.796183,2082,2876,7_S
1789464357.7980149,2181,2876,7_S
1789464357.799527,2148,2875,7_S
1789464357.802409,2032,2877,7_S
1789464357.804477,2044,2874,7_S
1789464357.805542,2095,2875,7_S
1789464357.8076081,2106,2877,7_S
1789464357.8089979,2161,2878,7_S
1789464357.8110669,2145,2876,7_S
1789464357.813608,2071,2876,7_S
1789464357.8159602,2048,2877,7_S
1789464357.81702,1996,2876,7_S
1789464357.819318,1985,2874,7_S
1789464357.821614,2081,2877,7_S
1789464357.82393,2080,2876,7_S
1789464357.825036,2035,2876,7_S
1789464357.82758,2110,2877,7_S
1789464357.8301241,2147,2877,7_S
1789464357.831413,2086,2876,7_S
1789464357.8351412,2057,2876,7_S
1789464357.8357918,2041,2874,7_S
1789464357.837538,2105,2877,7_S
1789464357.839376,2111,2878,7_S
1789464357.8422358,2113,2876,7_S
1789464357.8442008,2048,2874,7_S
1789464357.845932,2094,2876,7_S
1789464357.847023,2117,2876,7_S
1789464357.8493319,2081,2877,7_S
1789464357.851886,2019,2876,7_S
1789464357.853056,2032,2874,7_S
1789464357.855359,2090,2875,7_S
1789464357.857667,2108,2875,7_S
1789464357.859968,2051,2876,7_S
1789464357.861253,2064,2877,7_S
1789464357.863564,2117,2876,7_S
1789464357.8661041,2089,2875,7_S
1789464357.867388,2043,2876,7_S
1789464357.869663,2079,2876,7_S
1789464357.871967,2097,2876,7_S
1789464357.873008,2118,2875,7_S
1789464357.877374,2087,2876,7_S
1789464357.877735,2069,2877,7_S
1789464357.8793979,2101,2875,7_S
1789464357.881332,2125,2876,7_S
1789464357.885531,2061,2876,7_S
1789464357.885717,2018,2873,7_S
1789464357.88768,2083,2875,7_S
1789464357.8899798,2101,2875,7_S
1789464357.891265,2089,2876,7_S
1789464357.893339,2043,2875,7_S
1789464357.8956401,2079,2877,7_S
1789464357.8970098,2131,2876,7_S
1789464357.899082,2076,2875,7_S
1789464357.901621,2025,2876,7_S
1789464357.904226,2063,2875,7_S
1789464357.905513,2125,2875,7_S
1789464357.907823,2101,2876,7_S
1789464357.910135,2069,2875,7_S
1789464357.9114199,2070,2877,7_S
1789464357.913963,2080,2876,7_S
1789464357.9181361,2102,2876,7_S
1789464357.918776,2048,2875,7_S
1789464357.9205592,2025,2875,7_S
1789464357.922133,2081,2877,7_S
1789464357.92333,2104,2875,7_S
1789464357.926549,2105,2878,7_S
1789464357.928375,2057,2877,7_S
1789464357.9294221,2099,2875,7_S
1789464357.9317389,2102,2876,7_S
1789464357.933006,2041,2875,7_S
1789464357.935317,2034,2875,7_S
1789464357.9378612,2027,2876,7_S
1789464357.939148,2083,2876,7_S
1789464357.941685,2074,2875,7_S
1789464357.943038,2070,2877,7_S
1789464357.945338,2109,2875,7_S
1789464357.947489,2118,2876,7_S
1789464357.949794,2083,2875,7_S
1789464357.951079,2048,2877,7_S
1789464357.9533818,2061,2874,7_S
1789464357.95896,2120,2875,7_S
1789464357.959389,2105,2875,7_S
1789464357.960098,2068,2875,7_S
1789464357.962999,2054,2876,7_S
1789464357.963368,2110,2876,7_S
1789464357.967565,2095,2876,7_S
1789464357.967772,2054,2875,7_S
1789464357.969283,2047,2874,7_S
1789464357.9716108,2100,2875,7_S
1789464357.973682,2114,2876,7_S
1789464357.9760551,2114,2878,7_S
1789464357.977345,2074,2876,7_S
1789464357.9795258,2121,2876,7_S
1789464357.982079,2116,2875,7_S
1789464357.983129,2061,2877,7_S
1789464357.98544,2054,2877,7_S
1789464357.987735,2069,2876,7_S
1789464357.9900448,2111,2876,7_S
1789464357.991329,2082,2875,7_S
1789464357.9936352,2016,2875,7_S
1789464357.996099,2072,2877,7_S
1789464357.999498,2117,2876,7_S
1789464357.999943,2080,2876,7_S
1789464358.001906,2020,2877,7_S
1789464358.0041301,2046,2875,7_S
1789464358.006805,2101,2876,7_S
1789464358.0084548,2098,2877,7_S
1789464358.010595,2071,2874,7_S
1789464358.0116532,2094,2877,7_S
1789464358.013959,2134,2876,7_S
1789464358.015009,2112,2875,7_S
1789464358.017226,2051,2875,7_S
1789464358.019528,2027,2874,7_S
1789464358.021824,2084,2876,7_S
1789464358.022918,2103,2876,7_S
1789464358.025463,2012,2875,7_S
1789464358.0280051,2033,2874,7_S
1789464358.02905,2061,2876,7_S
1789464358.031591,2129,2876,7_S
1789464358.032902,2052,2876,7_S
1789464358.0353558,2028,2874,7_S
1789464358.040354,2089,2875,7_S
1789464358.0407481,2152,2879,7_S
1789464358.0415318,2119,2876,7_S
1789464358.0439749,2034,2874,7_S
1789464358.045459,2088,2877,7_S
1789464358.047213,2112,2875,7_S
1789464358.049006,2056,2875,7_S
1789464358.051368,2017,2875,7_S
1789464358.0539289,2063,2875,7_S
1789464358.0552168,2107,2874,7_S
1789464358.057302,2143,2877,7_S
1789464358.059604,2036,2875,7_S
1789464358.061669,2035,2874,7_S
1789464358.062953,2097,2876,7_S
1789464358.065374,2108,2877,7_S
1789464358.067918,2044,2876,7_S
1789464358.069201,2045,2874,7_S
1789464358.0717409,2092,2876,7_S
1789464358.073025,2096,2875,7_S
1789464358.0755641,2060,2876,7_S
1789464358.076886,2047,2875,7_S
1789464358.08312,2155,2877,7_S
1789464358.083542,2140,2876,7_S
1789464358.084021,2099,2877,7_S
1789464358.086635,2053,2876,7_S
1789464358.088174,2087,2875,7_S
1789464358.090979,2154,2880,7_S
1789464358.091105,2111,2876,7_S
1789464358.0937018,2049,2875,7_S
1789464358.09499,2107,2877,7_S
1789464358.097355,2179,2875,7_S
1789464358.099661,2113,2876,7_S
1789464358.101967,2058,2876,7_S
1789464358.10301,2076,2876,7_S
1789464358.105312,2126,2877,7_S
1789464358.10785,2139,2879,7_S
1789464358.1089,2068,2874,7_S
1789464358.111441,2098,2878,7_S
1789464358.1139798,2150,2877,7_S
1789464358.115262,2118,2875,7_S
1789464358.11774,2064,2877,7_S
1789464358.12006,2089,2878,7_S
1789464358.1242251,2134,2878,7_S
1789464358.124894,2125,2874,7_S
1789464358.125269,2082,2876,7_S
1789464358.128208,2088,2877,7_S
1789464358.130808,2168,2876,7_S
1789464358.130958,2147,2876,7_S
1789464358.132905,2057,2876,7_S
1789464358.135455,2019,2874,7_S
1789464358.137758,2078,2875,7_S
1789464358.139057,2147,2877,7_S
1789464358.141611,2129,2877,7_S
1789464358.143741,2066,2875,7_S
1789464358.1448672,2108,2877,7_S
1789464358.147177,2131,2877,7_S
1789464358.149467,2141,2876,7_S
1789464358.151999,2095,2876,7_S
1789464358.153048,2056,2874,7_S
1789464358.155354,2119,2875,7_S
1789464358.157896,2137,2875,7_S
1789464358.159181,2105,2878,7_S
1789464358.1642828,2106,2877,7_S
1789464358.164741,2147,2875,7_S
1789464358.1651368,2140,2875,7_S
1789464358.168749,2044,2877,7_S
1789464358.1701849,2060,2878,7_S
1789464358.173429,2111,2875,7_S
1789464358.1736379,2137,2876,7_S
1789464358.1752708,2117,2879,7_S
1789464358.177792,2072,2876,7_S
1789464358.178894,2098,2877,7_S
1789464358.181448,2115,2876,7_S
1789464358.184003,2083,2876,7_S
1789464358.185208,2069,2877,7_S
1789464358.187505,2127,2878,7_S
1789464358.188878,2174,2878,7_S
1789464358.191173,2169,2877,7_S
1789464358.193471,2094,2877,7_S
1789464358.194864,2102,2876,7_S
1789464358.197121,2129,2876,7_S
1789464358.199418,2063,2876,7_S
1789464358.2017128,2051,2876,7_S
1789464358.2065852,2060,2875,7_S
1789464358.207038,2100,2874,7_S
1789464358.207817,2045,2875,7_S
1789464358.209397,2058,2875,7_S
1789464358.21217,2074,2877,7_S
1789464358.215832,2164,2876,7_S
1789464358.2159739,2130,2876,7_S
1789464358.2178738,2059,2877,7_S
1789464358.2189262,2029,2875,7_S
1789464358.2214751,2079,2876,7_S
1789464358.22388,2085,2875,7_S
1789464358.225177,2085,2875,7_S
1789464358.2275882,2041,2874,7_S
1789464358.2296598,2114,2876,7_S
1789464358.231968,2130,2875,7_S
1789464358.233254,2097,2876,7_S
1789464358.2357938,2051,2876,7_S
1789464358.236834,2085,2875,7_S
1789464358.239001,2103,2876,7_S
1789464358.241547,2089,2876,7_S
1789464358.24284,2061,2875,7_S
1789464358.248148,2108,2877,7_S
1789464358.248575,2099,2875,7_S
1789464358.250658,2098,2875,7_S
1789464358.251828,2019,2876,7_S
1789464358.253334,2058,2875,7_S
1789464358.255262,2106,2876,7_S
1789464358.256917,2099,2876,7_S
1789464358.259666,2043,2874,7_S
1789464358.2607942,2041,2874,7_S
1789464358.263353,2126,2878,7_S
1789464358.265669,2087,2877,7_S
1789464358.266963,2039,2876,7_S
1789464358.2695098,2025,2874,7_S
1789464358.2707682,2070,2876,7_S
1789464358.273319,2099,2875,7_S
1789464358.275628,2083,2876,7_S
1789464358.276737,2039,2875,7_S
1789464358.279281,2101,2878,7_S
1789464358.2813928,2093,2876,7_S
1789464358.283703,2057,2875,7_S
1789464358.2878752,2036,2876,7_S
1789464358.288266,2059,2875,7_S
1789464358.290272,2101,2875,7_S
1789464358.291726,2079,2876,7_S
1789464358.29329,2035,2875,7_S
1789464358.2959518,2094,2876,7_S
1789464358.297824,2112,2875,7_S
1789464358.299121,2072,2877,7_S
1789464358.301673,2010,2876,7_S
1789464358.302732,2030,2875,7_S
1789464358.305291,2090,2875,7_S
1789464358.3078349,2096,2876,7_S
1789464358.309126,2052,2876,7_S
1789464358.31137,2049,2876,7_S
1789464358.312787,2131,2875,7_S
1789464358.3150961,2126,2875,7_S
1789464358.317151,2047,2875,7_S
1789464358.3194501,2047,2874,7_S
1789464358.3217459,2072,2876,7_S
1789464358.32303,2086,2876,7_S
1789464358.327998,2108,2875,7_S
1789464358.3287418,2062,2877,7_S
1789464358.329184,2102,2876,7_S
1789464358.3315809,2088,2875,7_S
1789464358.334632,2063,2876,7_S
1789464358.336277,2028,2877,7_S
1789464358.3382232,2070,2875,7_S
1789464358.339345,2070,2876,7_S
1789464358.341506,2084,2875,7_S
1789464358.3435872,2029,2875,7_S
1789464358.345897,2069,2876,7_S
1789464358.346949,2110,2876,7_S
1789464358.349252,2042,2876,7_S
1789464358.3515441,2015,2876,7_S
1789464358.3538518,2024,2874,7_S
1789464358.3551402,2091,2875,7_S
1789464358.357683,2087,2878,7_S
1789464358.35878,2051,2876,7_S
1789464358.361084,2030,2874,7_S
1789464358.3634949,2091,2877,7_S
1789464358.367894,2073,2876,7_S
1789464358.368271,2030,2875,7_S
1789464358.370481,2046,2873,7_S
1789464358.371844,2089,2875,7_S
1789464358.374479,2114,2876,7_S
1789464358.376423,2070,2874,7_S
1789464358.378232,2040,2875,7_S
1789464358.3795211,2102,2876,7_S
1789464358.381571,2132,2875,7_S
1789464358.382855,2074,2876,7_S
1789464358.385157,2034,2876,7_S
1789464358.3877,2074,2875,7_S
1789464358.388984,2101,2876,7_S
1789464358.3912902,2089,2876,7_S
1789464358.393591,2065,2875,7_S
1789464358.394874,2092,2877,7_S
1789464358.397176,2130,2876,7_S
1789464358.3997161,2080,2877,7_S
1789464358.4010031,2039,2876,7_S
1789464358.40346,2044,2875,7_S
1789464358.4057071,2098,2875,7_S
1789464358.408032,2096,2877,7_S
1789464358.410037,2049,2876,7_S
1789464358.41209,2071,2877,7_S
1789464358.414463,2119,2876,7_S
1789464358.4162838,2101,2876,7_S
1789464358.418071,2053,2875,7_S
1789464358.419368,2026,2875,7_S
1789464358.421841,2089,2876,7_S
1789464358.42315,2107,2876,7_S
1789464358.425466,2083,2877,7_S
1789464358.427773,2030,2874,7_S
1789464358.429056,2111,2876,7_S
1789464358.431347,2127,2875,7_S
1789464358.4336529,2058,2875,7_S
1789464358.434773,2010,2874,7_S
1789464358.43732,2052,2875,7_S
1789464358.439619,2108,2875,7_S
1789464358.440904,2102,2875,7_S
1789464358.44321,2036,2875,7_S
1789464358.4486458,2069,2876,7_S
1789464358.448998,2111,2875,7_S
1789464358.450057,2088,2876,7_S
1789464358.4521742,2031,2876,7_S
1789464358.45399,2023,2875,7_S
1789464358.455657,2101,2876,7_S
1789464358.4572248,2103,2876,7_S
1789464358.4598029,2114,2878,7_S
1789464358.461091,2099,2876,7_S
1789464358.4633112,2109,2876,7_S
1789464358.465858,2060,2875,7_S
1789464358.467145,2013,2877,7_S
1789464358.46945,2019,2875,7_S
1789464358.470766,2073,2874,7_S
1789464358.4728372,2063,2875,7_S
1789464358.475378,2045,2876,7_S
1789464358.4779232,2026,2875,7_S
1789464358.4789782,2079,2875,7_S
1789464358.48128,2076,2877,7_S
1789464358.483824,2070,2875,7_S
1789464358.484874,2022,2873,7_S
1789464358.488748,2045,2876,7_S
1789464358.489142,2101,2876,7_S
1789464358.491189,2088,2876,7_S
1789464358.492824,2047,2875,7_S
1789464358.497118,2064,2877,7_S
1789464358.497302,2110,2876,7_S
1789464358.4993331,2097,2876,7_S
1789464358.501635,2035,2877,7_S
1789464358.502696,1996,2874,7_S
1789464358.505055,2092,2876,7_S
1789464358.5076191,2120,2876,7_S
1789464358.508677,2064,2875,7_S
1789464358.510782,2036,2876,7_S
1789464358.513091,2123,2875,7_S
1789464358.51563,2023,2877,7_S
1789464358.516783,1951,2873,7_S
1789464358.519325,2028,2876,7_S
1789464358.5206652,2100,2876,7_S
1789464358.5229702,2154,2880,7_S
1789464358.525514,2148,2878,7_S
1789464358.526665,1993,2875,7_S
1789464358.531168,2102,2876,7_S
1789464358.53189,2257,2877,7_S
1789464358.5335739,2215,2877,7_S
1789464358.535041,2079,2877,7_S
1789464358.537948,2033,2876,7_S
1789464358.539828,2092,2876,7_S
1789464358.541792,2047,2876,7_S
1789464358.543089,1994,2874,7_S
1789464358.545511,1993,2874,7_S
1789464358.546619,2034,2877,7_S
1789464358.548932,1953,2872,7_S
1789464358.551241,1996,2874,7_S
1789464358.552616,2127,2877,7_S
1789464358.555157,2142,2877,7_S
1789464358.557465,2008,2875,7_S
1789464358.558762,2082,2876,7_S
1789464358.561308,2091,2877,7_S
1789464358.563615,2165,2877,7_S
1789464358.564903,2179,2877,7_S
1789464358.567203,2081,2876,7_S
1789464358.569707,2037,2876,7_S
1789464358.573625,1945,2875,7_S
1789464358.573777,1921,2876,7_S
1789464358.57523,2147,2875,7_S
1789464358.5767229,2184,2878,7_S
1789464358.5794728,1976,2876,7_S
1789464358.581156,2137,2876,7_S
1789464358.5830731,2198,2877,7_S
1789464358.5852191,2277,2877,7_S
1789464358.587451,2302,2878,7_S
1789464358.5887449,2174,2877,7_S
1789464358.591288,2169,2874,7_S
1789464358.5926201,2107,2875,7_S
1789464358.594917,2168,2877,7_S
1789464358.597228,2136,2877,7_S
1789464358.5995991,1888,2873,7_S
1789464358.6008892,1782,2874,7_S
1789464358.602968,1933,2874,7_S
1789464358.6055071,2241,2877,7_S
1789464358.606791,2184,2878,7_S
1789464358.60957,2097,2877,7_S
1789464358.613439,1993,2875,7_S
1789464358.613872,1700,2875,7_S
1789464358.615472,2101,2876,7_S
1789464358.617158,2290,2876,7_S
1789464358.619782,2082,2876,7_S
1789464358.621166,1689,2874,7_S
1789464358.623264,2002,2875,7_S
1789464358.625578,2307,2878,7_S
1789464358.626661,2137,2877,7_S
1789464358.629011,1811,2874,7_S
1789464358.631558,2177,2876,7_S
1789464358.632642,2357,2878,7_S
1789464358.634757,2309,2878,7_S
1789464358.6372962,2012,2877,7_S
1789464358.6386602,2049,2875,7_S
1789464358.641205,2206,2878,7_S
1789464358.6437519,2232,2878,7_S
1789464358.645035,1775,2874,7_S
1789464358.647579,1848,2875,7_S
1789464358.648864,2109,2877,7_S
1789464358.653567,2084,2877,7_S
1789464358.6537018,1793,2874,7_S
1789464358.6559098,2330,2878,7_S
1789464358.6578171,2368,2876,7_S
1789464358.6593258,2187,2878,7_S
1789464358.661095,2034,2875,7_S
1789464358.663999,1223,2874,7_S
1789464358.6652942,1827,2874,7_S
1789464358.666643,2843,2878,7_S
1789464358.66919,2405,2878,7_S
1789464358.6714728,1754,2876,7_S
1789464358.6727622,1653,2874,7_S
1789464358.6753001,2018,2875,7_S
1789464358.677484,2245,2876,7_S
1789464358.6798131,2504,2879,7_S
1789464358.6810958,2329,2877,7_S
1789464358.683168,2253,2878,7_S
1789464358.685466,1854,2874,7_S
1789464358.68675,1066,2873,7_S
1789464358.688859,1675,2875,7_S
1789464358.690915,2368,2878,7_S
1789464358.694709,2489,2878,7_S
1789464358.694825,2483,2878,7_S
1789464358.696895,2340,2877,7_S
1789464358.699965,1923,2873,7_S
1789464358.701348,2062,2875,7_S
1789464358.703052,2315,2878,7_S
1789464358.70563,2337,2877,7_S
1789464358.70668,1977,2874,7_S
1789464358.708989,1850,2874,7_S
1789464358.711308,2024,2876,7_S
1789464358.713623,2135,2876,7_S
1789464358.714908,1977,2876,7_S
1789464358.7172081,2320,2877,7_S
1789464358.71975,2202,2877,7_S
1789464358.721034,1555,2875,7_S
1789464358.723341,1957,2874,7_S
1789464358.724624,2250,2878,7_S
1789464358.7271638,2130,2877,7_S
1789464358.729331,1312,2874,7_S
1789464358.7306209,1159,2874,7_S
1789464358.734644,2317,2878,7_S
1789464358.735401,3002,2879,7_S
1789464358.736898,2617,2878,7_S
1789464358.7397811,2019,2877,7_S
1789464358.741581,1568,2875,7_S
1789464358.743327,1481,2876,7_S
1789464358.74542,2362,2877,7_S
1789464358.7465248,2924,2878,7_S
1789464358.749076,2537,2877,7_S
1789464358.7505019,2249,2876,7_S
1789464358.7528121,2155,2877,7_S
1789464358.755254,2016,2875,7_S
1789464358.7565382,2316,2876,7_S
1789464358.7588449,2277,2876,7_S
1789464358.761198,2272,2875,7_S
1789464358.762531,2174,2876,7_S
1789464358.765075,1803,2875,7_S
1789464358.767555,1446,2872,7_S
1789464358.768597,1777,2874,7_S
1789464358.771137,2123,2877,7_S
1789464358.772667,2377,2877,7_S
1789464358.7762089,2453,2879,7_S
1789464358.7780101,2142,2875,7_S
1789464358.7798982,1922,2876,7_S
1789464358.7822,2002,2876,7_S
1789464358.783869,2205,2877,7_S
1789464358.7859058,2095,2878,7_S
1789464358.786963,1868,2874,7_S
1789464358.789265,2002,2874,7_S
1789464358.790556,1836,2874,7_S
1789464358.79299,1691,2875,7_S
1789464358.795508,2289,2878,7_S
1789464358.796791,2585,2878,7_S
1789464358.7993338,2258,2876,7_S
1789464358.800564,1921,2877,7_S
1789464358.803112,2008,2877,7_S
1789464358.805687,2262,2877,7_S
1789464358.8069708,2267,2879,7_S
1789464358.80951,2215,2876,7_S
1789464358.810574,2122,2875,7_S
1789464358.8160179,2085,2877,7_S
1789464358.8171022,1932,2874,7_S
1789464358.8184152,1833,2874,7_S
1789464358.818607,1848,2874,7_S
1789464358.8218281,1977,2874,7_S
1789464358.823369,2086,2874,7_S
1789464358.8252459,2188,2878,7_S
1789464358.8270562,2162,2877,7_S
1789464358.829132,2181,2877,7_S
1789464358.83144,1781,2875,7_S
1789464358.832732,1498,2874,7_S
1789464358.835278,2332,2878,7_S
1789464358.8375769,2560,2879,7_S
1789464358.8388638,2091,2877,7_S
1789464358.841303,2002,2875,7_S
1789464358.8425899,2161,2878,7_S
1789464358.844887,2053,2874,7_S
1789464358.8471959,2127,2873,7_S
1789464358.8492548,2215,2877,7_S
1789464358.851548,2161,2877,7_S
1789464358.852831,2005,2876,7_S
1789464358.857512,2044,2877,7_S
1789464358.85763,1992,2874,7_S
1789464358.859888,2032,2874,7_S
1789464358.861433,2194,2877,7_S
1789464358.8640609,2162,2877,7_S
1789464358.865775,2233,2877,7_S
1789464358.86723,2075,2878,7_S
1789464358.868522,1870,2874,7_S
1789464358.870987,1985,2875,7_S
1789464358.873292,1967,2875,7_S
1789464358.874582,1905,2874,7_S
1789464358.8766909,1979,2875,7_S
1789464358.879,2133,2877,7_S
1789464358.8813171,2201,2877,7_S
1789464358.883662,2061,2876,7_S
1789464358.884717,2016,2876,7_S
1789464358.886813,2152,2877,7_S
1789464358.8893518,2070,2875,7_S
1789464358.8906372,2139,2879,7_S
1789464358.892748,2164,2877,7_S
1789464358.8948119,2176,2877,7_S
1789464358.898814,2180,2877,7_S
1789464358.8991392,2022,2876,7_S
1789464358.901109,1974,2874,7_S
1789464358.9026382,1906,2875,7_S
1789464358.905598,2011,2875,7_S
1789464358.907486,2093,2875,7_S
1789464358.909257,2038,2875,7_S
1789464358.910544,2102,2877,7_S
1789464358.9128478,2084,2876,7_S
1789464358.915158,2073,2876,7_S
1789464358.917471,2035,2877,7_S
1789464358.9185421,2055,2875,7_S
1789464358.920976,2106,2875,7_S
1789464358.9232728,2147,2877,7_S
1789464358.924563,1989,2875,7_S
1789464358.926661,1997,2874,7_S
1789464358.928973,2111,2877,7_S
1789464358.931513,2136,2875,7_S
1789464358.9326642,2071,2875,7_S
1789464358.9352052,2076,2878,7_S
1789464358.93934,2072,2876,7_S
1789464358.939681,2182,2878,7_S
1789464358.9411619,2066,2875,7_S
1789464358.942954,1944,2876,7_S
1789464358.945668,2064,2878,7_S
1789464358.947354,2156,2878,7_S
1789464358.9490209,2089,2877,7_S
1789464358.951338,2010,2878,7_S
1789464358.9536462,1988,2874,7_S
1789464358.954697,2103,2875,7_S
1789464358.957241,2068,2876,7_S
1789464358.958526,2040,2875,7_S
1789464358.960833,2050,2877,7_S
1789464358.962904,2038,2876,7_S
1789464358.9652128,2101,2876,7_S
1789464358.966496,2033,2876,7_S
1789464358.968802,1994,2874,7_S
1789464358.97134,2075,2875,7_S
1789464358.9726238,2150,2879,7_S
1789464358.974987,2156,2878,7_S
1789464358.980255,2086,2877,7_S
1789464358.9806988,2126,2876,7_S
1789464358.981484,2145,2876,7_S
1789464358.98295,2124,2877,7_S
1789464358.9858408,2065,2877,7_S
1789464358.98847,2041,2876,7_S
1789464358.98863,2090,2876,7_S
1789464358.9912581,2081,2875,7_S
1789464358.9925592,2038,2875,7_S
1789464358.995112,2027,2877,7_S
1789464358.997474,2063,2876,7_S
1789464358.99876,2111,2876,7_S
1789464359.0008261,2106,2877,7_S
1789464359.003135,2116,2878,7_S
1789464359.005444,2107,2878,7_S
1789464359.006489,2091,2875,7_S
1789464359.009026,2074,2877,7_S
1789464359.011329,2054,2875,7_S
1789464359.012613,2085,2877,7_S
1789464359.014913,2158,2876,7_S
1789464359.017452,2083,2876,7_S
1789464359.021078,2003,2874,7_S
1789464359.021736,2031,2875,7_S
1789464359.0235462,2080,2876,7_S
1789464359.024961,2083,2876,7_S
1789464359.026691,2059,2875,7_S
1789464359.029386,2078,2876,7_S
1789464359.03133,2133,2875,7_S
1789464359.03264,2072,2876,7_S
1789464359.034956,2033,2877,7_S
1789464359.0372689,2053,2875,7_S
1789464359.0385568,2092,2876,7_S
1789464359.040859,2103,2876,7_S
1789464359.043357,2045,2875,7_S
1789464359.044651,2068,2877,7_S
1789464359.0472,2130,2877,7_S
1789464359.048403,2112,2876,7_S
1789464359.050952,2068,2875,7_S
1789464359.053493,2046,2875,7_S
1789464359.0546718,2076,2876,7_S
1789464359.056971,2105,2877,7_S
1789464359.062124,2061,2876,7_S
1789464359.062829,2038,2874,7_S
1789464359.063243,2107,2877,7_S
1789464359.064706,2104,2875,7_S
1789464359.067681,2060,2874,7_S
1789464359.069,2025,2876,7_S
1789464359.0710871,2079,2875,7_S
1789464359.072695,2109,2875,7_S
1789464359.075017,2088,2875,7_S
1789464359.0770948,2049,2874,7_S
1789464359.0783858,2065,2876,7_S
1789464359.080935,2106,2876,7_S
1789464359.083452,2086,2876,7_S
1789464359.0846589,2047,2875,7_S
1789464359.0872,2029,2875,7_S
1789464359.089259,2084,2876,7_S
1789464359.0905442,2091,2877,7_S
1789464359.092989,2060,2876,7_S
1789464359.0953002,2060,2878,7_S
1789464359.096586,2104,2876,7_S
1789464359.098887,2117,2875,7_S
1789464359.10463,2055,2877,7_S
1789464359.1047418,2019,2874,7_S
1789464359.1054668,2055,2876,7_S
1789464359.1070771,2081,2876,7_S
1789464359.1100721,2086,2876,7_S
1789464359.111628,2072,2876,7_S
1789464359.113378,2129,2876,7_S
1789464359.115343,2108,2876,7_S
1789464359.116632,2070,2876,7_S
1789464359.118936,2060,2877,7_S
1789464359.121048,2081,2875,7_S
1789464359.1232471,2121,2876,7_S
1789464359.1255412,2111,2876,7_S
1789464359.1267579,2058,2875,7_S
1789464359.129123,2097,2876,7_S
1789464359.1313012,2134,2876,7_S
1789464359.132391,2098,2876,7_S
1789464359.1345658,2044,2877,7_S
1789464359.1368551,2050,2874,7_S
1789464359.1392,2095,2876,7_S
1789464359.143911,2117,2876,7_S
1789464359.144306,2082,2875,7_S
1789464359.144659,2055,2876,7_S
1789464359.147756,2142,2875,7_S
1789464359.1507149,2115,2876,7_S
1789464359.1524239,2037,2876,7_S
1789464359.15254,2020,2873,7_S
1789464359.155253,2090,2876,7_S
1789464359.156574,2104,2876,7_S
1789464359.158868,2086,2876,7_S
1789464359.1609468,2042,2875,7_S
1789464359.1630359,2094,2877,7_S
1789464359.165249,2120,2875,7_S
1789464359.166294,2074,2875,7_S
1789464359.168546,2046,2876,7_S
1789464359.1710038,2101,2878,7_S
1789464359.1735702,2112,2876,7_S
1789464359.174628,2102,2875,7_S
1789464359.176843,2070,2875,7_S
1789464359.178991,2087,2877,7_S
1789464359.183745,2117,2876,7_S
1789464359.184208,2085,2876,7_S
1789464359.1846201,2036,2876,7_S
1789464359.187304,2039,2873,7_S
1789464359.1886091,2098,2875,7_S
1789464359.191725,2107,2876,7_S
1789464359.19359,2082,2875,7_S
1789464359.194889,2063,2877,7_S
1789464359.197212,2121,2875,7_S
1789464359.1985018,2095,2875,7_S
1789464359.200808,2053,2874,7_S
1789464359.2031062,2023,2875,7_S
1789464359.204393,2087,2876,7_S
1789464359.206933,2115,2875,7_S
1789464359.208365,2073,2876,7_S
1789464359.210449,2060,2874,7_S
1789464359.212991,2078,2876,7_S
1789464359.215296,2115,2876,7_S
1789464359.2163358,2085,2876,7_S
1789464359.2186282,2045,2876,7_S
1789464359.223469,2059,2876,7_S
1789464359.224276,2096,2876,7_S
1789464359.2247381,2096,2875,7_S
1789464359.22779,2045,2876,7_S
1789464359.229339,2074,2877,7_S
1789464359.231301,2117,2875,7_S
1789464359.233116,2074,2877,7_S
1789464359.2350578,2035,2876,7_S
1789464359.237364,2006,2875,7_S
1789464359.2386692,2063,2876,7_S
1789464359.241004,2096,2876,7_S
1789464359.243304,2059,2876,7_S
1789464359.24459,2073,2878,7_S
1789464359.2471309,2113,2875,7_S
1789464359.248342,2098,2876,7_S
1789464359.250408,2035,2875,7_S
1789464359.252713,2019,2874,7_S
1789464359.2550132,2066,2876,7_S
1789464359.256298,2094,2875,7_S
1789464359.258541,2071,2875,7_S
1789464359.260709,2028,2875,7_S
1789464359.264697,2088,2877,7_S
1789464359.2651289,2103,2875,7_S
1789464359.267105,2054,2875,7_S
1789464359.2687318,2026,2876,7_S
1789464359.273121,2062,2874,7_S
1789464359.273268,2081,2875,7_S
1789464359.274953,2114,2876,7_S
1789464359.277094,2031,2874,7_S
1789464359.2783842,2040,2876,7_S
1789464359.280693,2095,2877,7_S
1789464359.283239,2085,2876,7_S
1789464359.284526,2014,2875,7_S
1789464359.2868218,2036,2875,7_S
1789464359.289363,2095,2876,7_S
1789464359.290508,2113,2877,7_S
1789464359.2929978,2097,2876,7_S
1789464359.294297,2079,2876,7_S
1789464359.296658,2133,2876,7_S
1789464359.298986,2118,2875,7_S
1789464359.303692,2088,2875,7_S
1789464359.304943,2047,2876,7_S
1789464359.3052878,2084,2877,7_S
1789464359.3076758,2122,2876,7_S
1789464359.310276,2082,2876,7_S
1789464359.310407,2053,2874,7_S
1789464359.313725,2100,2876,7_S
1789464359.31493,2088,2876,7_S
1789464359.316231,2045,2875,7_S
1789464359.3185222,2023,2876,7_S
1789464359.320651,2035,2876,7_S
1789464359.322836,2090,2876,7_S
1789464359.3249888,2097,2876,7_S
1789464359.327187,2041,2876,7_S
1789464359.3282628,2080,2877,7_S
1789464359.330674,2105,2875,7_S
1789464359.333239,2092,2877,7_S
1789464359.334293,2041,2876,7_S
1789464359.3364182,2057,2874,7_S
1789464359.3422878,2084,2876,7_S
1789464359.342408,2102,2876,7_S
1789464359.343426,2110,2879,7_S
1789464359.344692,2045,2877,7_S
1789464359.346841,2109,2876,7_S
1789464359.348941,2103,2877,7_S
1789464359.350752,2074,2875,7_S
1789464359.3533802,2038,2875,7_S
1789464359.3544261,2093,2876,7_S
1789464359.3566332,2094,2875,7_S
1789464359.3589609,2071,2875,7_S
1789464359.3610392,2047,2874,7_S
1789464359.363178,2080,2877,7_S
1789464359.3643441,2106,2876,7_S
1789464359.366433,2079,2875,7_S
1789464359.368528,2025,2877,7_S
1789464359.370608,2067,2875,7_S
1789464359.3727648,2101,2875,7_S
1789464359.3751318,2083,2876,7_S
1789464359.376172,2075,2875,7_S
1789464359.381578,2093,2877,7_S
1789464359.382029,2118,2875,7_S
1789464359.383965,2094,2876,7_S
1789464359.3861701,2039,2875,7_S
1789464359.386826,2022,2875,7_S
1789464359.3902469,2099,2876,7_S
1789464359.390378,2078,2876,7_S
1789464359.392899,2047,2876,7_S
1789464359.39503,2040,2875,7_S
1789464359.397148,2110,2877,7_S
1789464359.3982332,2106,2876,7_S
1789464359.400296,2057,2876,7_S
1789464359.402621,2010,2873,7_S
1789464359.4048629,2072,2875,7_S
1789464359.407073,2099,2876,7_S
1789464359.410007,2100,2876,7_S
1789464359.4113312,2040,2875,7_S
1789464359.412394,2055,2876,7_S
1789464359.414722,2067,2875,7_S
1789464359.4170299,2053,2876,7_S
1789464359.4183621,1987,2874,7_S
1789464359.422079,2009,2875,7_S
1789464359.423009,2071,2876,7_S
1789464359.4252858,2083,2876,7_S
1789464359.427087,2060,2875,7_S
1789464359.428604,2042,2877,7_S
1789464359.431631,2085,2877,7_S
1789464359.433488,2082,2875,7_S
1789464359.434795,2038,2876,7_S
1789464359.436138,2026,2875,7_S
1789464359.438455,2088,2876,7_S
1789464359.440547,2089,2875,7_S
1789464359.4428558,2063,2876,7_S
1789464359.44492,2036,2874,7_S
1789464359.446992,2116,2876,7_S
1789464359.4481559,2107,2876,7_S
1789464359.450706,2053,2875,7_S
1789464359.453256,2049,2876,7_S
1789464359.45454,2100,2876,7_S
1789464359.457082,2070,2876,7_S
1789464359.458194,2075,2876,7_S
1789464359.4602518,2041,2875,7_S
1789464359.464961,2085,2876,7_S
1789464359.465837,2113,2876,7_S
1789464359.467285,2093,2876,7_S
1789464359.468661,2023,2876,7_S
1789464359.471624,2044,2874,7_S
1789464359.4735858,2097,2876,7_S
1789464359.475403,2087,2876,7_S
1789464359.476691,2050,2875,7_S
1789464359.4790132,2064,2878,7_S
1789464359.4803069,2093,2877,7_S
1789464359.482811,2066,2875,7_S
1789464359.484155,2044,2876,7_S
1789464359.4864588,2025,2874,7_S
1789464359.488516,2076,2876,7_S
1789464359.4910579,2112,2876,7_S
1789464359.492342,2095,2874,7_S
1789464359.4946492,2057,2876,7_S
1789464359.497188,2100,2875,7_S
1789464359.498231,2088,2876,7_S
1789464359.500473,2044,2875,7_S
1789464359.503026,2026,2875,7_S
1789464359.507206,2092,2876,7_S
1789464359.507589,2102,2876,7_S
1789464359.509481,2077,2876,7_S
1789464359.5112162,2039,2875,7_S
1789464359.512831,2093,2877,7_S
1789464359.515866,2114,2876,7_S
1789464359.51752,2079,2875,7_S
1789464359.518645,2041,2876,7_S
1789464359.5209548,2035,2875,7_S
1789464359.523283,2091,2877,7_S
1789464359.5245702,2096,2875,7_S
1789464359.5266418,2074,2875,7_S
1789464359.528699,2063,2876,7_S
1789464359.53076,2130,2875,7_S
1789464359.53281,2090,2876,7_S
1789464359.534917,2051,2875,7_S
1789464359.536169,2031,2875,7_S
1789464359.538479,2095,2876,7_S
1789464359.54079,2110,2876,7_S
1789464359.5429919,2066,2876,7_S
1789464359.54412,2045,2876,7_S
1789464359.547868,2104,2876,7_S
1789464359.5500019,2099,2875,7_S
1789464359.550154,2059,2876,7_S
1789464359.552895,2029,2874,7_S
1789464359.554531,2084,2876,7_S
1789464359.557881,2108,2876,7_S
1789464359.559173,2092,2876,7_S
1789464359.560458,2047,2874,7_S
1789464359.56278,2087,2878,7_S
1789464359.5650828,2109,2876,7_S
1789464359.566368,2094,2875,7_S
1789464359.5689092,2038,2877,7_S
1789464359.5712159,2039,2875,7_S
1789464359.572501,2093,2876,7_S
1789464359.574806,2108,2876,7_S
1789464359.577178,2058,2874,7_S
1789464359.578461,2084,2876,7_S
1789464359.580999,2117,2875,7_S
1789464359.582178,2100,2875,7_S
1789464359.5846982,2045,2876,7_S
1789464359.588228,2031,2874,7_S
1789464359.589198,2084,2877,7_S
1789464359.5906649,2092,2875,7_S
1789464359.5924401,2074,2877,7_S
1789464359.596432,2069,2877,7_S
1789464359.596683,2115,2876,7_S
1789464359.599243,2113,2876,7_S
1789464359.60053,2066,2874,7_S
1789464359.6028428,2029,2874,7_S
1789464359.604148,2056,2876,7_S
1789464359.606693,2085,2876,7_S
1789464359.6092339,2074,2875,7_S
1789464359.610394,2034,2875,7_S
1789464359.6129348,2092,2877,7_S
1789464359.614224,2098,2876,7_S
1789464359.6162822,2073,2875,7_S
1789464359.6185741,2023,2876,7_S
1789464359.620872,2035,2875,7_S
1789464359.622155,2095,2876,7_S
1789464359.62422,2123,2876,7_S
1789464359.628203,2038,2875,7_S
1789464359.628976,2067,2876,7_S
1789464359.630657,2120,2876,7_S
1789464359.632195,2095,2876,7_S
1789464359.6352232,2051,2876,7_S
1789464359.6372402,2033,2874,7_S
1789464359.638839,2096,2876,7_S
1789464359.640973,2120,2876,7_S
1789464359.642277,2060,2874,7_S
1789464359.644593,2046,2874,7_S
1789464359.647142,2122,2876,7_S
1789464359.64819,2116,2875,7_S
1789464359.65073,2073,2876,7_S
1789464359.6530392,2036,2876,7_S
1789464359.6543229,2069,2875,7_S
1789464359.6568651,2098,2876,7_S
1789464359.658006,2067,2876,7_S
1789464359.66031,2048,2875,7_S
1789464359.6628559,2106,2876,7_S
1789464359.664031,2093,2876,7_S
1789464359.669006,2087,2875,7_S
1789464359.669766,2065,2877,7_S
1789464359.672371,2080,2877,7_S
1789464359.672843,2105,2875,7_S
1789464359.674421,2102,2875,7_S
1789464359.677026,2075,2876,7_S
1789464359.678827,2075,2878,7_S
1789464359.680127,2113,2876,7_S
1789464359.682442,2084,2877,7_S
1789464359.684757,2062,2875,7_S
1789464359.686046,2059,2878,7_S
1789464359.6885881,2113,2879,7_S
1789464359.691073,2117,2876,7_S
1789464359.6921291,2109,2876,7_S
1789464359.6944299,2079,2878,7_S
1789464359.6965382,2117,2876,7_S
1789464359.6988358,2110,2875,7_S
1789464359.701175,2069,2876,7_S
1789464359.702466,2048,2875,7_S
1789464359.708318,2068,2875,7_S
1789464359.70884,2117,2876,7_S
1789464359.709614,2108,2875,7_S
1789464359.7113621,2049,2875,7_S
1789464359.712903,2087,2877,7_S
1789464359.7145689,2098,2876,7_S
1789464359.717392,2076,2875,7_S
1789464359.71933,2014,2877,7_S
1789464359.720381,2024,2873,7_S
1789464359.722677,2093,2876,7_S
1789464359.724045,2114,2876,7_S
1789464359.726357,2070,2876,7_S
1789464359.7289019,2079,2877,7_S
1789464359.730191,2119,2876,7_S
1789464359.732646,2091,2876,7_S
1789464359.734014,2027,2875,7_S
1789464359.7365582,2024,2874,7_S
1789464359.738861,2083,2875,7_S
1789464359.740031,2088,2876,7_S
1789464359.742104,2077,2876,7_S
1789464359.74421,2039,2874,7_S
1789464359.749305,2124,2876,7_S
1789464359.7497432,2130,2876,7_S
1789464359.7515972,2099,2875,7_S
1789464359.7533429,2032,2876,7_S
1789464359.755214,2065,2875,7_S
1789464359.756592,2086,2875,7_S
1789464359.759538,2080,2875,7_S
1789464359.7605839,2049,2876,7_S
1789464359.762969,2048,2877,7_S
1789464359.764257,2078,2876,7_S
1789464359.766807,2074,2876,7_S
1789464359.7680929,2070,2875,7_S
1789464359.770399,2046,2875,7_S
1789464359.772938,2079,2876,7_S
1789464359.7742221,2107,2875,7_S
1789464359.776285,2060,2875,7_S
1789464359.778736,2056,2877,7_S
1789464359.780858,2116,2875,7_S
1789464359.782146,2101,2875,7_S
1789464359.784694,2037,2876,7_S
1789464359.789757,2019,2874,7_S
1789464359.789846,2081,2875,7_S
1789464359.792015,2055,2876,7_S
1789464359.79217,2061,2876,7_S
1789464359.7951412,2052,2875,7_S
1789464359.796761,2128,2878,7_S
1789464359.798211,2097,2876,7_S
1789464359.800761,2045,2876,7_S
1789464359.802047,2034,2877,7_S
1789464359.804141,2070,2875,7_S
1789464359.806588,2106,2876,7_S
1789464359.8089,2033,2877,7_S
1789464359.809983,2031,2875,7_S
1789464359.812292,2095,2876,7_S
1789464359.8145962,2084,2877,7_S
1789464359.815991,2049,2876,7_S
1789464359.818532,2014,2874,7_S
1789464359.8210711,2063,2875,7_S
1789464359.8223581,2151,2879,7_S
1789464359.824783,2144,2879,7_S
1789464359.826072,2089,2875,7_S
1789464359.830195,2079,2877,7_S
1789464359.8312461,2154,2877,7_S
1789464359.832735,2114,2877,7_S
1789464359.834317,2045,2876,7_S
1789464359.837256,1943,2874,7_S
1789464359.838659,2005,2876,7_S
1789464359.840299,2063,2876,7_S
1789464359.842606,2087,2876,7_S
1789464359.8449101,2008,2875,7_S
1789464359.846213,2013,2877,7_S
1789464359.848761,2149,2876,7_S
1789464359.850871,2191,2875,7_S
1789464359.851913,2230,2877,7_S
1789464359.854207,2111,2878,7_S
1789464359.856353,2121,2876,7_S
1789464359.858665,2129,2876,7_S
1789464359.85995,2025,2876,7_S
1789464359.862006,1823,2875,7_S
1789464359.8643122,1921,2874,7_S
1789464359.866704,1939,2873,7_S
1789464359.8697631,1843,2874,7_S
1789464359.871118,2183,2877,7_S
1789464359.872385,2443,2878,7_S
1789464359.876432,2352,2879,7_S
1789464359.876571,1753,2875,7_S
1789464359.8781161,1859,2876,7_S
1789464359.88082,2319,2878,7_S
1789464359.881873,2281,2876,7_S
1789464359.884415,2103,2877,7_S
1789464359.88696,1995,2876,7_S
1789464359.888004,1946,2874,7_S
1789464359.890545,1604,2876,7_S
1789464359.892853,2009,2875,7_S
1789464359.8941388,2348,2877,7_S
1789464359.896681,2325,2879,7_S
1789464359.897965,2280,2877,7_S
1789464359.900417,1893,2874,7_S
1789464359.90271,1508,2874,7_S
1789464359.9050071,2022,2875,7_S
1789464359.906166,2607,2879,7_S
1789464359.909972,2347,2877,7_S
1789464359.9107652,1892,2874,7_S
1789464359.912562,2079,2876,7_S
1789464359.913984,2442,2878,7_S
1789464359.916777,2173,2878,7_S
1789464359.9180832,1822,2874,7_S
1789464359.920664,2095,2875,7_S
1789464359.921962,2197,2878,7_S
1789464359.9242759,1965,2874,7_S
1789464359.9265752,1889,2875,7_S
1789464359.9278631,2050,2877,7_S
1789464359.930156,2088,2877,7_S
1789464359.932696,1834,2874,7_S
1789464359.935008,1519,2875,7_S
1789464359.936161,1549,2875,7_S
1789464359.938713,2107,2875,7_S
1789464359.94,2548,2879,7_S
1789464359.942296,2576,2878,7_S
1789464359.944845,1194,2875,7_S
1789464359.9491682,2058,2874,7_S
1789464359.949537,2330,2878,7_S
1789464359.951423,2713,2879,7_S
1789464359.9529018,2878,2879,7_S
1789464359.955564,2421,2877,7_S
1789464359.957061,2034,2878,7_S
1789464359.958526,1959,2876,7_S
1789464359.959899,1848,2875,7_S
1789464359.962218,2196,2876,7_S
1789464359.964777,2450,2878,7_S
1789464359.9658759,2335,2878,7_S
1789464359.967938,2027,2876,7_S
1789464359.970241,1973,2877,7_S
1789464359.9725492,1954,2875,7_S
1789464359.974916,1927,2875,7_S
1789464359.9760032,1680,2875,7_S
1789464359.978313,2038,2874,7_S
1789464359.980413,2342,2876,7_S
1789464359.982964,2100,2876,7_S
1789464359.9876559,1805,2876,7_S
1789464359.9877892,1933,2876,7_S
1789464359.987881,2158,2877,7_S
1789464359.991735,1810,2875,7_S
1789464359.992712,2120,2877,7_S
1789464360.017793,2616,2879,7_S
1789464360.0243359,2621,2878,7_S
1789464360.02444,1947,2876,7_S
1789464360.024508,1885,2877,7_S
1789464360.0245702,2257,2877,7_S
1789464360.024631,2360,2877,7_S
1789464360.024692,2038,2875,7_S
1789464360.027835,1993,2875,7_S
1789464360.0281322,2089,2876,7_S
1789464360.02818,2216,2879,7_S
1789464360.0282109,2084,2876,7_S
1789464360.028239,1758,2872,7_S
1789464360.028268,1753,2874,7_S
1789464360.028296,1938,2875,7_S
1789464360.028362,2154,2875,7_S
1789464360.028453,2407,2879,7_S
1789464360.028518,2294,2877,7_S
1789464360.0285802,1722,2874,7_S
1789464360.0422652,1859,2874,7_S
1789464360.042892,2046,2877,7_S
1789464360.044157,2212,2877,7_S
1789464360.0442939,2441,2877,7_S
1789464360.0444102,2310,2878,7_S
1789464360.0460532,2031,2874,7_S
1789464360.046195,2071,2874,7_S
1789464360.0463622,2168,2877,7_S
1789464360.046498,2139,2877,7_S
1789464360.048207,2137,2877,7_S
1789464360.0505228,1808,2873,7_S
1789464360.054562,1301,2874,7_S
1789464360.054654,2217,2877,7_S
1789464360.0562718,2588,2879,7_S
1789464360.058347,2158,2877,7_S
1789464360.060561,1941,2876,7_S
1789464360.062016,1978,2875,7_S
1789464360.064624,2201,2878,7_S
1789464360.0667012,2174,2878,7_S
1789464360.068005,2164,2877,7_S
1789464360.0703192,2281,2877,7_S
1789464360.07262,2132,2877,7_S
1789464360.073909,1949,2875,7_S
1789464360.0762072,1826,2874,7_S
1789464360.078752,2038,2876,7_S
1789464360.0798001,2062,2875,7_S
1789464360.081889,1874,2875,7_S
1789464360.0842052,2047,2875,7_S
1789464360.086514,1997,2877,7_S
1789464360.087801,2049,2876,7_S
1789464360.093605,1994,2876,7_S
1789464360.094096,1898,2875,7_S
1789464360.0948968,1774,2876,7_S
1789464360.097384,2062,2876,7_S
1789464360.099093,2623,2879,7_S
1789464360.100663,2526,2878,7_S
1789464360.1024399,2122,2877,7_S
1789464360.1044989,1942,2873,7_S
1789464360.105797,1593,2875,7_S
1789464360.108344,1942,2876,7_S
1789464360.110894,2408,2879,7_S
1789464360.111941,2439,2879,7_S
1789464360.114243,2153,2878,7_S
1789464360.116412,2000,2876,7_S
1789464360.117772,1981,2877,7_S
1789464360.120081,2018,2874,7_S
1789464360.122138,2097,2875,7_S
1789464360.124686,1991,2876,7_S
1789464360.125976,2081,2875,7_S
1789464360.128269,2048,2877,7_S
1789464360.1335082,1976,2876,7_S
1789464360.133989,2040,2875,7_S
1789464360.1343942,2127,2876,7_S
1789464360.1361191,2172,2877,7_S
1789464360.139325,2065,2875,7_S
1789464360.14084,2090,2875,7_S
1789464360.142669,2075,2877,7_S
1789464360.144327,1803,2875,7_S
1789464360.146654,1920,2873,7_S
1789464360.1478012,2310,2877,7_S
1789464360.150369,2091,2876,7_S
1789464360.152674,2060,2876,7_S
1789464360.153744,2104,2876,7_S
1789464360.155853,2132,2875,7_S
1789464360.158153,2047,2876,7_S
1789464360.160703,2171,2876,7_S
1789464360.161815,2074,2875,7_S
1789464360.16436,2251,2877,7_S
1789464360.1669078,2100,2877,7_S
1789464360.168193,2009,2875,7_S
1789464360.170731,1953,2874,7_S
1789464360.17502,2034,2875,7_S
1789464360.175488,2131,2876,7_S
1789464360.177325,2127,2876,7_S
1789464360.179116,2209,2877,7_S
1789464360.183264,2199,2876,7_S
1789464360.183388,2028,2874,7_S
1789464360.184841,1980,2875,7_S
1789464360.1861382,2033,2877,7_S
1789464360.188664,2015,2875,7_S
1789464360.189868,2115,2876,7_S
1789464360.19218,2118,2875,7_S
1789464360.194426,2104,2875,7_S
1789464360.195769,2191,2876,7_S
1789464360.198137,2159,2876,7_S
1789464360.200448,1962,2876,7_S
1789464360.2025092,1959,2874,7_S
1789464360.204803,2086,2874,7_S
1789464360.2058449,2081,2877,7_S
1789464360.20815,2108,2877,7_S
1789464360.210216,2145,2878,7_S
1789464360.212766,2013,2876,7_S
1789464360.216727,2033,2876,7_S
1789464360.217891,2080,2876,7_S
1789464360.218324,2047,2878,7_S
1789464360.220624,2010,2875,7_S
1789464360.2222779,2163,2878,7_S
1789464360.2259939,2089,2876,7_S
1789464360.226218,2074,2875,7_S
1789464360.22848,2129,2878,7_S
1789464360.2297778,2062,2876,7_S
1789464360.231877,2066,2876,7_S
1789464360.234424,2032,2876,7_S
1789464360.2357519,1986,2874,7_S
1789464360.237866,2069,2875,7_S
1789464360.240171,2087,2876,7_S
1789464360.242476,2095,2875,7_S
1789464360.244799,2138,2877,7_S
1789464360.2460868,2106,2876,7_S
1789464360.248396,2056,2876,7_S
1789464360.25045,2062,2876,7_S
1789464360.252912,2051,2877,7_S
1789464360.254207,2058,2875,7_S
1789464360.259538,2099,2877,7_S
1789464360.261984,2110,2876,7_S
1789464360.262174,2078,2877,7_S
1789464360.262264,2039,2877,7_S
1789464360.263785,2041,2876,7_S
1789464360.267338,2011,2875,7_S
1789464360.271211,2023,2875,7_S
1789464360.271573,2009,2876,7_S
1789464360.272801,2050,2876,7_S
1789464360.2740312,2084,2876,7_S
1789464360.2762141,2099,2879,7_S
1789464360.278369,2100,2876,7_S
1789464360.280703,2139,2875,7_S
1789464360.281857,2154,2876,7_S
1789464360.284182,2126,2876,7_S
1789464360.286444,2096,2878,7_S
1789464360.287756,2130,2876,7_S
1789464360.290105,2122,2875,7_S
1789464360.2923,2072,2875,7_S
1789464360.2944808,2033,2875,7_S
1789464360.2956648,2064,2877,7_S
1789464360.302258,2114,2875,7_S
1789464360.305923,2089,2876,7_S
1789464360.308061,2015,2873,7_S
1789464360.3113742,2041,2874,7_S
1789464360.311742,2066,2876,7_S
1789464360.312078,2037,2875,7_S
1789464360.312275,2067,2876,7_S
1789464360.312598,2066,2876,7_S
1789464360.314322,2113,2875,7_S
1789464360.316521,2114,2876,7_S
1789464360.3176372,2068,2876,7_S
1789464360.320269,2053,2875,7_S
1789464360.3216362,2099,2875,7_S
1789464360.3238919,2093,2876,7_S
1789464360.32613,2066,2875,7_S
1789464360.328535,2034,2873,7_S
1789464360.329752,2056,2876,7_S
1789464360.332256,2065,2876,7_S
1789464360.333627,2065,2876,7_S
1789464360.3361301,2045,2876,7_S
1789464360.338635,2095,2875,7_S
1789464360.339966,2092,2876,7_S
1789464360.344575,2099,2876,7_S
1789464360.3450298,2076,2875,7_S
1789464360.346517,2090,2877,7_S
1789464360.3484318,2100,2875,7_S
1789464360.350932,2093,2876,7_S
1789464360.352596,2045,2876,7_S
1789464360.3545668,2031,2874,7_S
1789464360.3556721,2116,2876,7_S
1789464360.357739,2094,2876,7_S
1789464360.3602629,2067,2875,7_S
1789464360.362324,2085,2877,7_S
1789464360.3636138,2122,2875,7_S
1789464360.365914,2106,2876,7_S
1789464360.3679879,2048,2876,7_S
1789464360.370295,2038,2876,7_S
1789464360.3725922,2112,2876,7_S
1789464360.373648,2089,2875,7_S
1789464360.375958,2084,2876,7_S
1789464360.378273,2058,2874,7_S
1789464360.383751,2111,2877,7_S
1789464360.384494,2111,2876,7_S
1789464360.384638,2075,2875,7_S
1789464360.386678,2022,2874,7_S
1789464360.388879,2035,2875,7_S
1789464360.390074,2137,2875,7_S
1789464360.393004,2110,2875,7_S
1789464360.394764,2025,2875,7_S
1789464360.3958411,2080,2877,7_S
1789464360.397911,2132,2877,7_S
1789464360.400301,2063,2876,7_S
1789464360.401654,2032,2876,7_S
1789464360.404201,2049,2875,7_S
1789464360.406507,2093,2875,7_S
1789464360.4077928,2075,2876,7_S
1789464360.410333,2054,2877,7_S
1789464360.412398,2061,2876,7_S
1789464360.413683,2104,2876,7_S
1789464360.416224,2091,2875,7_S
1789464360.418518,2045,2876,7_S
1789464360.4198022,2024,2875,7_S
1789464360.422343,2083,2876,7_S
1789464360.42612,2113,2877,7_S
1789464360.426595,2102,2875,7_S
1789464360.428564,2067,2877,7_S
1789464360.430357,2104,2876,7_S
1789464360.432034,2142,2875,7_S
1789464360.434944,2069,2876,7_S
1789464360.4369879,2034,2877,7_S
1789464360.438282,2056,2875,7_S
1789464360.439651,2093,2876,7_S
1789464360.442218,2070,2875,7_S
1789464360.444778,2032,2875,7_S
1789464360.4460669,2073,2876,7_S
1789464360.448582,2108,2876,7_S
1789464360.449642,2102,2875,7_S
1789464360.451712,2030,2876,7_S
1789464360.454009,2053,2874,7_S
1789464360.456116,2099,2876,7_S
1789464360.458434,2124,2876,7_S
1789464360.4596548,2098,2875,7_S
1789464360.462195,2068,2877,7_S
1789464360.4675682,2134,2875,7_S
1789464360.4679139,2106,2876,7_S
1789464360.468721,2064,2875,7_S
1789464360.470381,2014,2874,7_S
1789464360.472398,2078,2876,7_S
1789464360.474901,2117,2876,7_S
1789464360.47694,2070,2876,7_S
1789464360.478325,2060,2878,7_S
1789464360.479658,2099,2875,7_S
1789464360.481964,2111,2875,7_S
1789464360.484253,2068,2875,7_S
1789464360.4865642,2046,2877,7_S
1789464360.4876091,2082,2874,7_S
1789464360.489676,2108,2875,7_S
1789464360.491971,2095,2876,7_S
1789464360.4942698,2066,2875,7_S
1789464360.49664,2093,2876,7_S
1789464360.497697,2126,2876,7_S
1789464360.500007,2092,2876,7_S
1789464360.5023098,2038,2877,7_S
1789464360.508248,2047,2875,7_S
1789464360.508652,2104,2876,7_S
1789464360.509095,2092,2876,7_S
1789464360.510371,2072,2875,7_S
1789464360.512065,2072,2877,7_S
1789464360.514957,2092,2875,7_S
1789464360.516896,2109,2876,7_S
1789464360.518826,2071,2876,7_S
1789464360.5201201,2047,2877,7_S
1789464360.522538,2095,2875,7_S
1789464360.5238242,2126,2876,7_S
1789464360.52589,2111,2876,7_S
1789464360.52843,2039,2874,7_S
1789464360.529715,2095,2876,7_S
1789464360.532023,2094,2876,7_S
1789464360.53432,2069,2876,7_S
1789464360.535604,2032,2877,7_S
1789464360.538144,2058,2875,7_S
1789464360.53951,2123,2876,7_S
1789464360.541814,2105,2876,7_S
1789464360.544364,2062,2875,7_S
1789464360.5455182,2087,2878,7_S
1789464360.550431,2142,2875,7_S
1789464360.550549,2104,2876,7_S
1789464360.552825,2027,2875,7_S
1789464360.554538,2027,2875,7_S
1789464360.556043,2079,2876,7_S
1789464360.558936,2090,2876,7_S
1789464360.560875,2060,2876,7_S
1789464360.561929,2060,2878,7_S
1789464360.564307,2103,2876,7_S
1789464360.566615,2092,2875,7_S
1789464360.567667,2050,2876,7_S
1789464360.5697331,2042,2873,7_S
1789464360.5720441,2061,2875,7_S
1789464360.574591,2091,2876,7_S
1789464360.5757818,2095,2876,7_S
1789464360.5780768,2049,2875,7_S
1789464360.580617,2107,2875,7_S
1789464360.581904,2100,2876,7_S
1789464360.584447,2035,2876,7_S
1789464360.58573,2018,2873,7_S
1789464360.590698,2052,2876,7_S
1789464360.5911438,2095,2876,7_S
1789464360.5929222,2081,2876,7_S
1789464360.5947058,2046,2875,7_S
1789464360.595993,2062,2877,7_S
1789464360.598652,2101,2876,7_S
1789464360.6005518,2098,2877,7_S
1789464360.6016052,2059,2877,7_S
1789464360.6038148,2030,2875,7_S
1789464360.606136,2096,2877,7_S
1789464360.6086988,2104,2875,7_S
1789464360.609816,2062,2875,7_S
1789464360.6123562,2056,2876,7_S
1789464360.613545,2096,2875,7_S
1789464360.6160908,2099,2875,7_S
1789464360.618376,2029,2876,7_S
1789464360.6207612,2041,2874,7_S
1789464360.621805,2090,2876,7_S
1789464360.6241002,2115,2875,7_S
1789464360.6263301,2088,2876,7_S
1789464360.630118,2055,2873,7_S
1789464360.6305122,2090,2876,7_S
1789464360.63246,2108,2876,7_S
1789464360.633858,2069,2875,7_S
1789464360.636543,2043,2875,7_S
1789464360.638444,2073,2875,7_S
1789464360.640251,2112,2875,7_S
1789464360.641543,2092,2876,7_S
1789464360.64381,2076,2876,7_S
1789464360.646136,2093,2876,7_S
1789464360.6482859,2117,2875,7_S
1789464360.650343,2115,2876,7_S
1789464360.651628,2070,2875,7_S
1789464360.653941,2026,2874,7_S
1789464360.656238,2097,2876,7_S
1789464360.65756,2088,2876,7_S
1789464360.65987,2087,2875,7_S
1789464360.662285,2041,2875,7_S
1789464360.664345,2099,2875,7_S
1789464360.665628,2111,2876,7_S
1789464360.6681511,2030,2875,7_S
1789464360.671951,2015,2874,7_S
1789464360.6724448,2066,2874,7_S
1789464360.6740322,2076,2877,7_S
1789464360.676567,2076,2876,7_S
1789464360.6781812,2049,2874,7_S
1789464360.679807,2102,2876,7_S
1789464360.682474,2112,2876,7_S
1789464360.6835241,2076,2876,7_S
1789464360.6859121,2031,2876,7_S
1789464360.688373,2057,2875,7_S
1789464360.689663,2106,2875,7_S
1789464360.691724,2104,2876,7_S
1789464360.694239,2082,2876,7_S
1789464360.6965299,2076,2876,7_S
1789464360.697814,2103,2877,7_S
1789464360.7001112,2093,2875,7_S
1789464360.70258,2035,2877,7_S
1789464360.703628,2044,2874,7_S
1789464360.705728,2080,2877,7_S
1789464360.708216,2090,2877,7_S
1789464360.7118762,2040,2876,7_S
1789464360.712348,2027,2874,7_S
1789464360.7142138,2078,2876,7_S
1789464360.715489,2089,2876,7_S
1789464360.718592,2033,2876,7_S
1789464360.720323,2023,2874,7_S
1789464360.722052,2075,2874,7_S
1789464360.7243571,2094,2876,7_S
1789464360.725645,2097,2876,7_S
1789464360.727956,2046,2875,7_S
1789464360.730499,2098,2876,7_S
1789464360.7317839,2117,2875,7_S
1789464360.734091,2062,2875,7_S
1789464360.7362182,2035,2877,7_S
1789464360.737503,2071,2875,7_S
1789464360.7398121,2112,2876,7_S
1789464360.742196,2107,2877,7_S
1789464360.744502,2044,2875,7_S
1789464360.745544,2056,2877,7_S
1789464360.747854,2115,2876,7_S
1789464360.753817,2107,2875,7_S
1789464360.754451,2034,2876,7_S
1789464360.754828,2020,2874,7_S
1789464360.756932,2062,2876,7_S
1789464360.758259,2073,2876,7_S
1789464360.760303,2071,2875,7_S
1789464360.762193,2053,2876,7_S
1789464360.764183,2101,2875,7_S
1789464360.765475,2089,2876,7_S
1789464360.767547,2064,2875,7_S
1789464360.769619,2037,2877,7_S
1789464360.772162,2060,2875,7_S
1789464360.774462,2111,2876,7_S
1789464360.775745,2089,2875,7_S
1789464360.777962,2060,2875,7_S
1789464360.780428,2071,2876,7_S
1789464360.781729,2111,2877,7_S
1789464360.7840462,2079,2875,7_S
1789464360.786347,2061,2877,7_S
1789464360.78763,2082,2877,7_S
1789464360.790175,2111,2875,7_S
1789464360.794237,2067,2876,7_S
1789464360.794911,2046,2876,7_S
1789464360.796624,2110,2877,7_S
1789464360.7980218,2076,2875,7_S
1789464360.801096,2073,2875,7_S
1789464360.802932,1981,2873,7_S
1789464360.804333,1932,2875,7_S
1789464360.805409,2065,2876,7_S
1789464360.807719,2054,2875,7_S
1789464360.810039,2050,2875,7_S
1789464360.8114262,2061,2876,7_S
1789464360.813489,2095,2876,7_S
1789464360.815789,2085,2877,7_S
1789464360.818343,2059,2875,7_S
1789464360.819416,2054,2877,7_S
1789464360.8217201,2088,2875,7_S
1789464360.824265,2125,2876,7_S
1789464360.826566,2121,2878,7_S
1789464360.8278499,2153,2876,7_S
1789464360.8303921,2246,2877,7_S
1789464360.83483,2135,2876,7_S
1789464360.8355,1983,2875,7_S
1789464360.835914,1940,2874,7_S
1789464360.838371,1971,2875,7_S
1789464360.8397791,2028,2876,7_S
1789464360.841463,2023,2876,7_S
1789464360.844566,1965,2875,7_S
1789464360.8458729,1984,2877,7_S
1789464360.848372,2048,2875,7_S
1789464360.8496692,2082,2875,7_S
1789464360.851968,2079,2877,7_S
1789464360.8544042,2076,2875,7_S
1789464360.855454,2138,2876,7_S
1789464360.857993,2122,2876,7_S
1789464360.8600562,2065,2875,7_S
1789464360.861394,2033,2878,7_S
1789464360.8639429,2096,2877,7_S
1789464360.8664918,2139,2876,7_S
1789464360.867778,2101,2876,7_S
1789464360.8703182,2054,2878,7_S
1789464360.874573,2081,2875,7_S
1789464360.8749518,2114,2876,7_S
1789464360.876874,2080,2876,7_S
1789464360.878758,2006,2875,7_S
1789464360.8801558,2044,2876,7_S
1789464360.88339,2092,2877,7_S
1789464360.883544,2097,2877,7_S
1789464360.8860438,2049,2877,7_S
1789464360.88741,2066,2875,7_S
1789464360.8896,2091,2875,7_S
1789464360.8921468,2114,2877,7_S
1789464360.893434,2086,2875,7_S
1789464360.895659,2045,2877,7_S
1789464360.8979661,2079,2876,7_S
1789464360.900071,2053,2874,7_S
1789464360.9021251,2033,2876,7_S
1789464360.904423,2014,2875,7_S
1789464360.905527,2081,2876,7_S
1789464360.908088,2074,2876,7_S
1789464360.9094038,2081,2876,7_S
1789464360.9117188,2040,2875,7_S
1789464360.915008,2100,2876,7_S
1789464360.9172008,2101,2875,7_S
1789464360.918944,2035,2876,7_S
1789464360.9204018,2025,2873,7_S
1789464360.9219258,2064,2876,7_S
1789464360.925211,2097,2876,7_S
1789464360.926514,2097,2876,7_S
1789464360.9275572,2060,2875,7_S
1789464360.9301,2108,2877,7_S
1789464360.931393,2135,2875,7_S
1789464360.933936,2096,2876,7_S
1789464360.936008,2050,2876,7_S
1789464360.938567,2047,2875,7_S
1789464360.939806,2104,2876,7_S
1789464360.9423518,2097,2875,7_S
1789464360.943639,2040,2875,7_S
1789464360.945944,2047,2877,7_S
1789464360.948064,2093,2875,7_S
1789464360.949379,2095,2876,7_S
1789464360.951919,2060,2877,7_S
1789464360.9559119,2028,2873,7_S
1789464360.9570901,2056,2875,7_S
1789464360.959753,2091,2876,7_S
1789464360.9598138,2088,2876,7_S
1789464360.962543,2044,2876,7_S
1789464360.9643068,2101,2876,7_S
1789464360.965953,2116,2874,7_S
1789464360.968378,2067,2875,7_S
1789464360.969672,2033,2876,7_S
1789464360.971981,2055,2875,7_S
1789464360.9745579,2085,2876,7_S
1789464360.9758232,2105,2875,7_S
1789464360.978121,2058,2874,7_S
1789464360.980274,2082,2876,7_S
1789464360.981557,2099,2876,7_S
1789464360.9838688,2058,2876,7_S
1789464360.9860969,2032,2875,7_S
1789464360.988388,2057,2875,7_S
1789464360.989676,2097,2876,7_S
1789464360.992217,2120,2875,7_S
1789464360.993629,2072,2876,7_S
1789464360.996812,2069,2877,7_S
1789464360.998079,2118,2875,7_S
1789464361.0007832,2111,2875,7_S
1789464361.0023649,2073,2875,7_S
1789464361.0050611,2039,2873,7_S
1789464361.007023,2072,2876,7_S
1789464361.008332,2097,2876,7_S
1789464361.009623,2083,2876,7_S
1789464361.0119328,2073,2877,7_S
1789464361.0142488,2082,2875,7_S
1789464361.015535,2156,2875,7_S
1789464361.018076,2072,2876,7_S
1789464361.020373,2003,2874,7_S
1789464361.021416,2021,2876,7_S
1789464361.0239549,2081,2876,7_S
1789464361.0252411,2098,2875,7_S
1789464361.02778,2024,2875,7_S
1789464361.030336,2068,2876,7_S
1789464361.031394,2081,2875,7_S
1789464361.033687,2047,2876,7_S
1789464361.03757,2029,2876,7_S
1789464361.0377119,2032,2875,7_S
1789464361.040016,2107,2876,7_S
1789464361.0415611,2105,2876,7_S
1789464361.045693,2071,2875,7_S
1789464361.0459242,2066,2877,7_S
1789464361.047723,2101,2875,7_S
1789464361.0500429,2084,2875,7_S
1789464361.0523489,2034,2876,7_S
1789464361.053395,2051,2875,7_S
1789464361.055934,2103,2875,7_S
1789464361.0582001,2103,2875,7_S
1789464361.0592809,2097,2875,7_S
1789464361.061586,2035,2873,7_S
1789464361.0638871,2090,2876,7_S
1789464361.0659552,2117,2877,7_S
1789464361.068248,2055,2875,7_S
1789464361.069532,2020,2874,7_S
1789464361.0715818,2064,2876,7_S
1789464361.074107,2096,2876,7_S
1789464361.077913,2106,2876,7_S
1789464361.078628,2048,2875,7_S
1789464361.0801861,2092,2876,7_S
1789464361.081685,2118,2875,7_S
1789464361.0844228,2088,2876,7_S
1789464361.085876,2037,2875,7_S
1789464361.087608,2044,2874,7_S
1789464361.0899231,2091,2876,7_S
1789464361.09128,2093,2876,7_S
1789464361.093604,2053,2874,7_S
1789464361.096153,2063,2876,7_S
1789464361.097439,2110,2876,7_S
1789464361.099987,2089,2876,7_S
1789464361.101276,2045,2876,7_S
1789464361.1037571,2016,2874,7_S
1789464361.106297,2095,2876,7_S
1789464361.107587,2108,2876,7_S
1789464361.1101282,2074,2875,7_S
1789464361.1114109,2053,2874,7_S
1789464361.116879,2092,2877,7_S
1789464361.117545,2076,2876,7_S
1789464361.118015,2068,2875,7_S
1789464361.1197178,2030,2876,7_S
1789464361.121585,2065,2875,7_S
1789464361.1244748,2089,2876,7_S
1789464361.1259441,2094,2876,7_S
1789464361.127646,2056,2875,7_S
1789464361.130193,2083,2876,7_S
1789464361.1313438,2119,2875,7_S
1789464361.133434,2079,2875,7_S
1789464361.1359081,2032,2876,7_S
1789464361.138206,2033,2874,7_S
1789464361.1394901,2112,2876,7_S
1789464361.141803,2102,2876,7_S
1789464361.144115,2062,2876,7_S
1789464361.145399,2052,2876,7_S
1789464361.147941,2103,2876,7_S
1789464361.1492832,2097,2876,7_S
1789464361.15183,2045,2876,7_S
1789464361.156694,2008,2875,7_S
1789464361.157093,2072,2876,7_S
1789464361.1588638,2089,2876,7_S
1789464361.1603022,2071,2875,7_S
1789464361.161552,2053,2875,7_S
1789464361.1635048,2094,2876,7_S
1789464361.166306,2127,2875,7_S
1789464361.167682,2067,2876,7_S
1789464361.170239,2048,2877,7_S
1789464361.17154,2053,2875,7_S
1789464361.174093,2080,2876,7_S
1789464361.1753778,2076,2875,7_S
1789464361.177922,2057,2876,7_S
1789464361.179271,2087,2877,7_S
1789464361.1815722,2103,2875,7_S
1789464361.183878,2074,2875,7_S
1789464361.185945,2029,2875,7_S
1789464361.188252,2063,2875,7_S
1789464361.1892989,2104,2876,7_S
1789464361.191839,2106,2876,7_S
1789464361.1959271,2078,2875,7_S
1789464361.196555,2060,2876,7_S
1789464361.198574,2117,2876,7_S
1789464361.200188,2102,2876,7_S
1789464361.201688,2052,2876,7_S
1789464361.204263,2004,2874,7_S
1789464361.2058828,2077,2875,7_S
1789464361.208299,2093,2877,7_S
1789464361.209346,2071,2876,7_S
1789464361.211898,2051,2875,7_S
1789464361.214201,2110,2876,7_S
1789464361.215504,2114,2876,7_S
1789464361.2178009,2058,2876,7_S
1789464361.220108,2008,2873,7_S
1789464361.2213938,2061,2875,7_S
1789464361.2236958,2089,2876,7_S
1789464361.2257972,2074,2876,7_S
1789464361.228241,2025,2875,7_S
1789464361.229292,2055,2876,7_S
1789464361.231353,2098,2875,7_S
1789464361.235893,2075,2877,7_S
1789464361.236586,2043,2876,7_S
1789464361.2381399,2024,2875,7_S
1789464361.239605,2087,2876,7_S
1789464361.242411,2102,2875,7_S
1789464361.243904,2062,2875,7_S
1789464361.246067,2061,2877,7_S
1789464361.247284,2121,2876,7_S
1789464361.249593,2087,2874,7_S
1789464361.2518988,2041,2875,7_S
1789464361.254326,2017,2874,7_S
1789464361.25538,2064,2876,7_S
1789464361.257921,2063,2876,7_S
1789464361.259994,2061,2876,7_S
1789464361.262285,2021,2875,7_S
1789464361.2635689,2054,2878,7_S
1789464361.266112,2056,2875,7_S
1789464361.267245,2016,2876,7_S
1789464361.2697852,2032,2877,7_S
1789464361.271886,2056,2875,7_S
1789464361.27722,2107,2876,7_S
1789464361.277931,2089,2875,7_S
1789464361.2783868,2021,2875,7_S
1789464361.281006,1935,2874,7_S
1789464361.282877,2039,2877,7_S
1789464361.284132,2068,2876,7_S
1789464361.285408,2028,2876,7_S
1789464361.288196,2007,2874,7_S
1789464361.289315,2089,2876,7_S
1789464361.2916238,2104,2877,7_S
1789464361.293948,1958,2876,7_S
1789464361.296383,1985,2876,7_S
1789464361.2976692,2117,2875,7_S
1789464361.299971,2104,2876,7_S
1789464361.301263,1995,2876,7_S
1789464361.3037188,1915,2873,7_S
1789464361.30602,1993,2876,7_S
1789464361.307306,2060,2875,7_S
1789464361.309607,2020,2876,7_S
1789464361.3121479,1962,2876,7_S
1789464361.313201,2032,2876,7_S
1789464361.317868,2092,2876,7_S
1789464361.3185952,2029,2876,7_S
1789464361.319983,1954,2874,7_S
1789464361.3214982,1973,2875,7_S
1789464361.325435,1977,2877,7_S
1789464361.3255942,2019,2876,7_S
1789464361.328005,2167,2877,7_S
1789464361.329294,2177,2877,7_S
1789464361.331721,2141,2876,7_S
1789464361.3340642,2095,2875,7_S
1789464361.335354,1960,2875,7_S
1789464361.3376052,1806,2875,7_S
1789464361.339906,1837,2876,7_S
1789464361.3419578,1989,2875,7_S
1789464361.343252,2233,2878,7_S
1789464361.3455539,2180,2878,7_S
1789464361.3476129,2053,2875,7_S
1789464361.349924,2059,2876,7_S
1789464361.35198,2173,2876,7_S
1789464361.3559701,1942,2875,7_S
1789464361.3567529,2021,2876,7_S
1789464361.358615,2105,2876,7_S
1789464361.360893,2115,2878,7_S
1789464361.364485,2000,2876,7_S
1789464361.3646731,1837,2874,7_S
1789464361.3663628,1884,2874,7_S
1789464361.3677099,1739,2874,7_S
1789464361.370013,1838,2875,7_S
1789464361.3711529,2287,2877,7_S
1789464361.373703,2522,2879,7_S
1789464361.376009,2070,2878,7_S
1789464361.377187,1768,2874,7_S
1789464361.3797278,2114,2877,7_S
1789464361.381829,2300,2877,7_S
1789464361.38315,1916,2874,7_S
1789464361.38546,1858,2875,7_S
1789464361.387999,2151,2878,7_S
1789464361.389172,2228,2877,7_S
1789464361.3917172,2171,2877,7_S
1789464361.397563,1736,2874,7_S
1789464361.397957,547,2875,7_S
1789464361.398726,1236,2874,7_S
1789464361.400418,2792,2880,7_S
1789464361.402158,3097,2880,7_S
1789464361.403641,2447,2877,7_S
1789464361.405296,1959,2877,7_S
1789464361.407907,2171,2877,7_S
1789464361.410229,2348,2874,7_S
1789464361.4115222,2500,2878,7_S
1789464361.4138381,2734,2877,7_S
1789464361.415157,2030,2874,7_S
1789464361.417225,1819,2874,7_S
1789464361.419774,1583,2874,7_S
1789464361.4218361,1083,2874,7_S
1789464361.424139,1796,2874,7_S
1789464361.4254239,2516,2878,7_S
1789464361.427945,2689,2877,7_S
1789464361.430262,2321,2876,7_S
1789464361.431318,1941,2875,7_S
1789464361.433856,1962,2875,7_S
1789464361.4392052,2074,2875,7_S
1789464361.440237,1796,2874,7_S
1789464361.4413812,2232,2876,7_S
1789464361.4415371,2297,2877,7_S
1789464361.444439,2037,2876,7_S
1789464361.446976,1460,2874,7_S
1789464361.4486048,1914,2875,7_S
1789464361.4499059,2321,2879,7_S
1789464361.4512,2518,2879,7_S
1789464361.453514,2399,2878,7_S
1789464361.4560761,2337,2878,7_S
1789464361.457128,2245,2877,7_S
1789464361.459651,1925,2875,7_S
1789464361.461754,2060,2874,7_S
1789464361.464146,2248,2877,7_S
1789464361.465198,2065,2873,7_S
1789464361.467676,2102,2877,7_S
1789464361.469981,1915,2875,7_S
1789464361.4712682,1824,2874,7_S
1789464361.4733272,1854,2874,7_S
1789464361.476985,1689,2875,7_S
1789464361.478754,2099,2875,7_S
1789464361.48069,2376,2877,7_S
1789464361.4824588,2406,2877,7_S
1789464361.485048,2262,2877,7_S
1789464361.485169,2184,2877,7_S
1789464361.4885252,2044,2874,7_S
1789464361.489815,2150,2874,7_S
1789464361.4911308,2196,2875,7_S
1789464361.493458,2142,2874,7_S
1789464361.495768,2047,2876,7_S
1789464361.4982662,2072,2876,7_S
1789464361.4995499,2012,2875,7_S
1789464361.501847,1821,2874,7_S
1789464361.503137,1653,2875,7_S
1789464361.505436,2100,2876,7_S
1789464361.507978,2382,2877,7_S
1789464361.509116,2152,2878,7_S
1789464361.511181,1895,2875,7_S
1789464361.5134919,2130,2877,7_S
1789464361.518976,2336,2878,7_S
1789464361.519598,2235,2876,7_S
1789464361.520232,1990,2875,7_S
1789464361.522339,1970,2875,7_S
1789464361.523617,2031,2875,7_S
1789464361.526774,2161,2878,7_S
1789464361.528191,2080,2876,7_S
1789464361.5295181,2042,2877,7_S
1789464361.5320818,2206,2876,7_S
1789464361.533129,2162,2877,7_S
1789464361.53521,2064,2877,7_S
1789464361.5373561,1982,2875,7_S
1789464361.53964,2169,2876,7_S
1789464361.5418031,2196,2878,7_S
1789464361.544118,2028,2875,7_S
1789464361.5478752,1986,2873,7_S
1789464361.547934,1975,2877,7_S
1789464361.549357,1946,2876,7_S
1789464361.5579038,1943,2873,7_S
1789464361.558677,2244,2877,7_S
1789464361.559375,2267,2877,7_S
1789464361.5603368,2137,2879,7_S
1789464361.560499,1921,2874,7_S
1789464361.562002,1869,2875,7_S
1789464361.5647418,2009,2876,7_S
1789464361.566417,2260,2877,7_S
1789464361.5684109,2170,2878,7_S
1789464361.5697238,1992,2876,7_S
1789464361.57181,1970,2874,7_S
1789464361.573164,2063,2875,7_S
1789464361.575497,2238,2877,7_S
1789464361.5775528,1818,2876,7_S
1789464361.579613,2118,2876,7_S
1789464361.581675,2391,2878,7_S
1789464361.58423,2124,2877,7_S
1789464361.5855181,1968,2876,7_S
1789464361.588044,1990,2874,7_S
1789464361.589089,1883,2876,7_S
1789464361.591394,2023,2877,7_S
1789464361.59356,2041,2875,7_S
1789464361.597942,2207,2877,7_S
1789464361.5983338,2401,2877,7_S
1789464361.599766,2133,2876,7_S
1789464361.603729,1839,2874,7_S
1789464361.603904,2081,2878,7_S
1789464361.605695,2214,2877,7_S
1789464361.607744,2106,2876,7_S
1789464361.6100328,2052,2876,7_S
1789464361.6113632,2026,2875,7_S
1789464361.613915,2108,2876,7_S
1789464361.615202,2100,2876,7_S
1789464361.617395,2030,2876,7_S
1789464361.619463,1998,2877,7_S
1789464361.621901,1895,2875,7_S
1789464361.6231868,1573,2876,7_S
1789464361.625487,2094,2876,7_S
1789464361.627795,2427,2879,7_S
1789464361.630103,1968,2876,7_S
1789464361.631161,2024,2877,7_S
1789464361.633703,2309,2877,7_S
1789464361.6350698,2148,2877,7_S
1789464361.63919,2170,2878,7_S
1789464361.639601,2259,2875,7_S
1789464361.6416352,2290,2879,7_S
1789464361.64389,2083,2874,7_S
1789464361.646184,1963,2875,7_S
1789464361.647834,2003,2877,7_S
1789464361.649515,2001,2876,7_S
1789464361.6518312,2014,2876,7_S
1789464361.653101,1938,2874,7_S
1789464361.655617,2113,2874,7_S
1789464361.657963,2163,2876,7_S
1789464361.65925,2160,2876,7_S
1789464361.661551,1942,2875,7_S
1789464361.663862,2145,2876,7_S
1789464361.665146,2154,2875,7_S
1789464361.667456,2032,2876,7_S
1789464361.669997,2062,2877,7_S
1789464361.671036,2227,2878,7_S
1789464361.673577,2225,2879,7_S
1789464361.67588,2131,2875,7_S
1789464361.680001,2038,2875,7_S
1789464361.680487,2052,2874,7_S
1789464361.682386,2035,2876,7_S
1789464361.6839738,1923,2875,7_S
1789464361.68545,1996,2876,7_S
1789464361.688225,2085,2875,7_S
1789464361.689604,2201,2877,7_S
1789464361.6921751,2166,2877,7_S
1789464361.6934621,2187,2878,7_S
1789464361.695905,2106,2878,7_S
1789464361.697014,2114,2879,7_S
1789464361.69916,2055,2876,7_S
1789464361.701706,1998,2877,7_S
1789464361.703028,2015,2877,7_S
1789464361.7055318,2100,2877,7_S
1789464361.707838,1958,2875,7_S
1789464361.709124,2066,2876,7_S
1789464361.711529,2159,2879,7_S
1789464361.713835,2271,2878,7_S
1789464361.715123,2108,2877,7_S
1789464361.7177658,2103,2877,7_S
1789464361.7219882,1960,2874,7_S
1789464361.722382,1972,2874,7_S
1789464361.723812,2100,2875,7_S
1789464361.725106,2125,2877,7_S
1789464361.7279282,2010,2875,7_S
1789464361.731345,2005,2873,7_S
1789464361.731507,2232,2877,7_S
1789464361.733611,2237,2877,7_S
1789464361.735907,2021,2876,7_S
1789464361.737008,1952,2873,7_S
1789464361.739321,1977,2876,7_S
1789464361.7418618,2078,2877,7_S
1789464361.74302,2062,2873,7_S
1789464361.745215,1996,2875,7_S
1789464361.74776,2033,2876,7_S
1789464361.749047,2105,2876,7_S
1789464361.7513669,2090,2876,7_S
1789464361.753909,2027,2874,7_S
1789464361.755193,2116,2875,7_S
1789464361.757565,2170,2876,7_S
1789464361.761569,2083,2876,7_S
1789464361.76228,2001,2875,7_S
1789464361.764023,2079,2876,7_S
1789464361.765716,2087,2875,7_S
1789464361.768821,1978,2875,7_S
1789464361.770487,1996,2873,7_S
1789464361.772466,2057,2875,7_S
1789464361.773767,2132,2876,7_S
1789464361.775054,2127,2876,7_S
1789464361.777361,2051,2874,7_S
1789464361.779916,2112,2876,7_S
1789464361.7812102,2117,2875,7_S
1789464361.7835279,2027,2875,7_S
1789464361.785721,1964,2873,7_S
1789464361.787075,2009,2875,7_S
1789464361.7896168,2103,2876,7_S
1789464361.792075,2256,2877,7_S
1789464361.793361,2100,2877,7_S
1789464361.795903,1967,2873,7_S
1789464361.79719,2100,2877,7_S
1789464361.802424,2169,2877,7_S
1789464361.80289,2146,2876,7_S
1789464361.805583,2102,2877,7_S
1789464361.806339,2132,2877,7_S
1789464361.8080032,2104,2875,7_S
1789464361.810627,2085,2875,7_S
1789464361.812459,2049,2875,7_S
1789464361.813759,2079,2876,7_S
1789464361.8150442,2119,2877,7_S
1789464361.817586,2098,2875,7_S
1789464361.819649,2036,2876,7_S
1789464361.822171,2064,2875,7_S
1789464361.823456,2107,2876,7_S
1789464361.825994,2089,2876,7_S
1789464361.8272781,2041,2875,7_S
1789464361.8295732,2050,2876,7_S
1789464361.8317041,2162,2876,7_S
1789464361.832989,2146,2875,7_S
1789464361.8352919,2082,2876,7_S
1789464361.8375978,2053,2876,7_S
1789464361.8402932,2109,2877,7_S
1789464361.844183,2082,2876,7_S
1789464361.844626,2071,2876,7_S
1789464361.8461921,2047,2875,7_S
1789464361.8479319,2070,2877,7_S
1789464361.849443,2088,2875,7_S
1789464361.852362,2044,2876,7_S
1789464361.854322,2030,2877,7_S
1789464361.855614,2008,2875,7_S
1789464361.8579211,2092,2875,7_S
1789464361.85921,2092,2876,7_S
1789464361.861637,2037,2875,7_S
1789464361.862941,2101,2877,7_S
1789464361.865012,2111,2876,7_S
1789464361.867316,2096,2877,7_S
1789464361.869625,2021,2875,7_S
1789464361.870941,2035,2876,7_S
1789464361.8730931,2080,2875,7_S
1789464361.875402,2103,2875,7_S
1789464361.87771,2056,2875,7_S
1789464361.878997,2065,2878,7_S
1789464361.881302,2130,2876,7_S
1789464361.885149,2065,2875,7_S
1789464361.885504,2048,2875,7_S
1789464361.887659,2036,2874,7_S
1789464361.889581,2087,2876,7_S
1789464361.892549,2122,2875,7_S
1789464361.894381,2069,2875,7_S
1789464361.8959842,2063,2878,7_S
1789464361.8970408,2077,2876,7_S
1789464361.8993468,2079,2875,7_S
1789464361.9018822,2031,2876,7_S
1789464361.903061,2005,2874,7_S
1789464361.905602,2040,2876,7_S
1789464361.9068968,2085,2875,7_S
1789464361.909363,2084,2876,7_S
1789464361.911677,2054,2874,7_S
1789464361.9129658,2087,2876,7_S
1789464361.915509,2123,2875,7_S
1789464361.916897,2104,2875,7_S
1789464361.9194381,2051,2876,7_S
1789464361.921644,2054,2875,7_S
1789464361.925854,2100,2876,7_S
1789464361.9262521,2118,2876,7_S
1789464361.9280581,2066,2876,7_S
1789464361.930162,2061,2877,7_S
1789464361.931417,2120,2875,7_S
1789464361.934165,2137,2876,7_S
1789464361.936219,2061,2876,7_S
1789464361.937278,2030,2874,7_S
1789464361.93958,2090,2876,7_S
1789464361.940947,2093,2876,7_S
1789464361.9430249,2099,2876,7_S
1789464361.94557,2034,2875,7_S
1789464361.946903,2109,2876,7_S
1789464361.949206,2103,2876,7_S
1789464361.9517481,2072,2875,7_S
1789464361.9540858,2041,2876,7_S
1789464361.9553761,2084,2875,7_S
1789464361.957679,2119,2877,7_S
1789464361.959979,2065,2875,7_S
1789464361.961192,2063,2875,7_S
1789464361.965068,2107,2877,7_S
1789464361.965485,2132,2875,7_S
1789464361.967072,2101,2876,7_S
1789464361.970083,2047,2877,7_S
1789464361.972963,2036,2874,7_S
1789464361.973055,2091,2876,7_S
1789464361.975573,2105,2876,7_S
1789464361.9768908,2076,2876,7_S
1789464361.9795158,2054,2876,7_S
1789464361.98089,2102,2876,7_S
1789464361.983021,2098,2876,7_S
1789464361.9853911,2050,2875,7_S
1789464361.987932,2013,2874,7_S
1789464361.989218,2110,2875,7_S
1789464361.991324,2105,2876,7_S
1789464361.993626,2082,2876,7_S
1789464361.995678,2041,2874,7_S
1789464361.997979,2090,2876,7_S
1789464361.9992661,2111,2875,7_S
1789464362.004247,2092,2876,7_S
1789464362.004343,2026,2876,7_S
1789464362.0063019,2073,2875,7_S
1789464362.0076969,2112,2875,7_S
1789464362.0093791,2109,2876,7_S
1789464362.012471,2069,2875,7_S
1789464362.013859,2064,2877,7_S
1789464362.0149179,2115,2876,7_S
1789464362.0172281,2107,2875,7_S
1789464362.019781,2043,2876,7_S
1789464362.021069,2074,2878,7_S
1789464362.0236108,2103,2876,7_S
1789464362.02591,2119,2876,7_S
1789464362.027206,2096,2875,7_S
1789464362.029512,2077,2877,7_S
1789464362.030894,2122,2876,7_S
1789464362.033205,2105,2875,7_S
1789464362.0355,2062,2875,7_S
1789464362.036853,2021,2873,7_S
1789464362.042193,2062,2876,7_S
1789464362.042609,2089,2875,7_S
1789464362.044502,2065,2876,7_S
1789464362.046388,2042,2875,7_S
1789464362.050306,2093,2876,7_S
1789464362.050436,2107,2876,7_S
1789464362.052154,2066,2875,7_S
1789464362.0534568,2022,2876,7_S
1789464362.056007,2052,2874,7_S
1789464362.057177,2089,2876,7_S
1789464362.0597372,2089,2876,7_S
1789464362.0608552,2040,2874,7_S
1789464362.063126,2080,2877,7_S
1789464362.065373,2110,2877,7_S
1789464362.067426,2087,2876,7_S
1789464362.069568,2020,2876,7_S
1789464362.0708768,2045,2875,7_S
1789464362.0731819,2080,2876,7_S
1789464362.0754821,2141,2880,7_S
1789464362.076879,2080,2874,7_S
1789464362.081286,2065,2877,7_S
1789464362.08195,2098,2876,7_S
1789464362.084747,2096,2875,7_S
1789464362.087221,2020,2877,7_S
1789464362.088887,1997,2875,7_S
1789464362.0891461,2078,2877,7_S
1789464362.091785,2085,2877,7_S
1789464362.092893,2068,2875,7_S
1789464362.095209,2041,2875,7_S
1789464362.097766,2087,2876,7_S
1789464362.098884,2115,2876,7_S
1789464362.1011982,2065,2875,7_S
1789464362.1037388,2039,2876,7_S
1789464362.106056,2067,2875,7_S
1789464362.107347,2090,2876,7_S
1789464362.1096509,2086,2875,7_S
1789464362.11095,2042,2875,7_S
1789464362.113499,2061,2876,7_S
1789464362.1147919,2118,2875,7_S
1789464362.119342,2101,2875,7_S
1789464362.119715,2043,2877,7_S
1789464362.121392,2019,2875,7_S
1789464362.124185,2080,2876,7_S
1789464362.1255639,2106,2876,7_S
1789464362.12726,2056,2875,7_S
1789464362.129924,2038,2875,7_S
1789464362.130966,2104,2877,7_S
1789464362.133064,2077,2876,7_S
1789464362.135205,2035,2876,7_S
1789464362.137523,2022,2875,7_S
1789464362.140084,2072,2874,7_S
1789464362.141131,2073,2876,7_S
1789464362.143491,2081,2876,7_S
1789464362.145804,2022,2875,7_S
1789464362.146849,2076,2876,7_S
1789464362.1491442,2086,2876,7_S
1789464362.151689,2049,2876,7_S
1789464362.152977,1998,2874,7_S
1789464362.156919,2037,2875,7_S
1789464362.1576772,2087,2877,7_S
1789464362.1590521,2059,2876,7_S
1789464362.163083,2051,2875,7_S
1789464362.1632152,2107,2876,7_S
1789464362.164861,2130,2876,7_S
1789464362.1672409,2101,2876,7_S
1789464362.169365,2048,2875,7_S
1789464362.171984,2051,2876,7_S
1789464362.1730292,2074,2876,7_S
1789464362.1755,2059,2875,7_S
1789464362.1767879,2022,2875,7_S
1789464362.179328,2037,2875,7_S
1789464362.181938,2132,2877,7_S
1789464362.183228,2110,2876,7_S
1789464362.1855302,2032,2876,7_S
1789464362.186815,2015,2873,7_S
1789464362.189247,2089,2876,7_S
1789464362.191788,2117,2876,7_S
1789464362.19571,2093,2876,7_S
1789464362.197014,2046,2875,7_S
1789464362.197407,2040,2877,7_S
1789464362.2002199,2075,2875,7_S
1789464362.202701,2046,2877,7_S
1789464362.2042959,2013,2877,7_S
1789464362.206072,2054,2875,7_S
1789464362.207364,2118,2877,7_S
1789464362.2096698,2094,2876,7_S
1789464362.210968,2051,2877,7_S
1789464362.213275,2079,2876,7_S
1789464362.215573,2122,2875,7_S
1789464362.216876,2094,2876,7_S
1789464362.219172,2064,2877,7_S
1789464362.2217128,2032,2874,7_S
1789464362.222791,2078,2876,7_S
1789464362.2251241,2102,2877,7_S
1789464362.2274292,2082,2876,7_S
1789464362.229732,2040,2874,7_S
1789464362.231018,2112,2877,7_S
1789464362.234188,2098,2876,7_S
1789464362.2353249,2077,2875,7_S
1789464362.237489,2037,2877,7_S
1789464362.240333,2065,2874,7_S
1789464362.242072,2106,2876,7_S
1789464362.2435288,2106,2876,7_S
1789464362.244833,2090,2877,7_S
1789464362.246905,2097,2877,7_S
1789464362.249233,2110,2876,7_S
1789464362.251532,2050,2874,7_S
1789464362.252821,2034,2875,7_S
1789464362.255363,2047,2875,7_S
1789464362.257962,2096,2876,7_S
1789464362.259018,2069,2875,7_S
1789464362.26124,2032,2875,7_S
1789464362.263538,2082,2877,7_S
1789464362.265833,2074,2876,7_S
1789464362.266888,2091,2876,7_S
1789464362.272245,2065,2877,7_S
1789464362.272653,2083,2877,7_S
1789464362.274345,2134,2877,7_S
1789464362.275572,2089,2876,7_S
1789464362.276937,2076,2875,7_S
1789464362.280292,2025,2875,7_S
1789464362.2816389,2109,2876,7_S
1789464362.282927,2105,2876,7_S
1789464362.284984,2030,2876,7_S
1789464362.287539,1989,2874,7_S
1789464362.289849,2084,2874,7_S
1789464362.291147,2096,2877,7_S
1789464362.2934458,2085,2876,7_S
1789464362.2957509,2075,2874,7_S
1789464362.296798,2103,2877,7_S
1789464362.299094,2124,2875,7_S
1789464362.3016388,2062,2876,7_S
1789464362.302793,1982,2874,7_S
1789464362.305335,2045,2875,7_S
1789464362.3100429,2124,2876,7_S
1789464362.310446,2097,2875,7_S
1789464362.312456,2056,2875,7_S
1789464362.314817,2090,2877,7_S
1789464362.315163,2110,2876,7_S
1789464362.317141,2079,2875,7_S
1789464362.31895,2065,2876,7_S
1789464362.3215501,2043,2874,7_S
1789464362.3238668,2069,2875,7_S
1789464362.324908,2064,2875,7_S
1789464362.3272178,2037,2875,7_S
1789464362.3297641,2063,2876,7_S
1789464362.331053,2119,2875,7_S
1789464362.3333519,2075,2877,7_S
1789464362.3356512,1997,2876,7_S
1789464362.336936,2022,2873,7_S
1789464362.339254,2108,2879,7_S
1789464362.3415601,2127,2876,7_S
1789464362.343673,2097,2875,7_S
1789464362.344894,2067,2877,7_S
1789464362.3496032,2107,2876,7_S
1789464362.3497002,2107,2876,7_S
1789464362.351739,2080,2875,7_S
1789464362.35301,2011,2873,7_S
1789464362.356106,2042,2875,7_S
1789464362.357954,2068,2876,7_S
1789464362.3595898,2071,2876,7_S
1789464362.3608809,2049,2875,7_S
1789464362.362937,2036,2877,7_S
1789464362.3654962,2109,2876,7_S
1789464362.366787,2087,2876,7_S
1789464362.369329,2035,2877,7_S
1789464362.371388,2046,2875,7_S
1789464362.3739362,2078,2876,7_S
1789464362.3751,2082,2876,7_S
1789464362.377404,2057,2876,7_S
1789464362.3797061,2034,2875,7_S
1789464362.38099,2097,2875,7_S
1789464362.383399,2103,2876,7_S
1789464362.384685,2060,2876,7_S
1789464362.3868558,2028,2874,7_S
1789464362.391181,2069,2876,7_S
1789464362.3923059,2084,2876,7_S
1789464362.393845,2081,2876,7_S
1789464362.3954828,2053,2875,7_S
1789464362.398308,2096,2876,7_S
1789464362.4001868,2124,2876,7_S
1789464362.401752,2090,2875,7_S
1789464362.403044,2033,2877,7_S
1789464362.405233,2059,2875,7_S
1789464362.407825,2100,2876,7_S
1789464362.409112,2118,2876,7_S
1789464362.4113019,2052,2875,7_S
1789464362.413604,2067,2877,7_S
1789464362.414644,2111,2875,7_S
1789464362.4169412,2092,2875,7_S
1789464362.419248,2059,2877,7_S
1789464362.4215539,2037,2875,7_S
1789464362.422626,2079,2876,7_S
1789464362.425175,2117,2875,7_S
1789464362.427571,2081,2875,7_S
1789464362.428857,2049,2875,7_S
1789464362.4332669,2102,2876,7_S
1789464362.433354,2091,2876,7_S
1789464362.435381,2071,2875,7_S
1789464362.43746,2026,2873,7_S
1789464362.438905,2065,2875,7_S
1789464362.441396,2092,2876,7_S
1789464362.443053,2074,2876,7_S
1789464362.445138,2025,2875,7_S
1789464362.447526,2091,2877,7_S
1789464362.448789,2099,2876,7_S
1789464362.451325,2073,2877,7_S
1789464362.453632,2036,2877,7_S
1789464362.4549172,2053,2875,7_S
1789464362.4569778,2099,2876,7_S
1789464362.459272,2109,2876,7_S
1789464362.4606888,2066,2876,7_S
1789464362.463236,2069,2876,7_S
1789464362.465537,2105,2876,7_S
1789464362.466659,2083,2875,7_S
1789464362.468962,2049,2876,7_S
1789464362.47406,2018,2875,7_S
1789464362.474797,2075,2876,7_S
1789464362.4755251,2077,2875,7_S
1789464362.476802,2068,2876,7_S
1789464362.479768,2035,2874,7_S
1789464362.4813461,2100,2877,7_S
1789464362.4828339,2122,2876,7_S
1789464362.4856498,2077,2875,7_S
1789464362.486699,2023,2874,7_S
1789464362.489003,2061,2875,7_S
1789464362.491553,2081,2876,7_S
1789464362.49284,2092,2876,7_S
1789464362.495311,2051,2874,7_S
1789464362.4976032,2089,2876,7_S
1789464362.49889,2108,2875,7_S
1789464362.5009952,2071,2876,7_S
1789464362.503291,2032,2876,7_S
1789464362.505596,2043,2875,7_S
1789464362.506714,2113,2876,7_S
1789464362.509012,2110,2876,7_S
1789464362.5115762,2060,2876,7_S
1789464362.5158,2044,2877,7_S
1789464362.516816,2120,2875,7_S
1789464362.518013,2096,2877,7_S
1789464362.51947,2035,2877,7_S
1789464362.5212889,2015,2874,7_S
1789464362.5239801,2099,2876,7_S
1789464362.526026,2106,2876,7_S
1789464362.5273159,2076,2876,7_S
1789464362.5296378,2035,2875,7_S
1789464362.5309289,2090,2876,7_S
1789464362.533392,2104,2876,7_S
1789464362.534678,2063,2876,7_S
1789464362.536982,2036,2878,7_S
1789464362.539507,2034,2875,7_S
1789464362.540791,2111,2875,7_S
1789464362.5431528,2079,2877,7_S
1789464362.545461,2056,2876,7_S
1789464362.5466082,2071,2877,7_S
1789464362.5489228,2107,2876,7_S
1789464362.5512278,2087,2877,7_S
1789464362.553776,2026,2875,7_S
1789464362.5575838,2051,2875,7_S
1789464362.557614,2106,2876,7_S
1789464362.5602088,2114,2876,7_S
1789464362.562077,2065,2876,7_S
1789464362.5632582,2062,2876,7_S
1789464362.565891,2094,2875,7_S
1789464362.567368,2085,2876,7_S
1789464362.5686421,2044,2875,7_S
1789464362.5712051,2022,2874,7_S
1789464362.573819,2074,2876,7_S
1789464362.57511,2099,2876,7_S
1789464362.577334,2069,2876,7_S
1789464362.578634,2064,2878,7_S
1789464362.5811808,2089,2875,7_S
1789464362.583425,2098,2876,7_S
1789464362.584668,2074,2875,7_S
1789464362.587208,2036,2876,7_S
1789464362.589509,2088,2878,7_S
1789464362.590797,2093,2875,7_S
1789464362.5929852,2097,2875,7_S
1789464362.595326,2062,2875,7_S
1789464362.598953,2126,2877,7_S
1789464362.599688,2097,2877,7_S
1789464362.601441,2074,2875,7_S
1789464362.603282,2030,2876,7_S
1789464362.605685,2040,2875,7_S
1789464362.607276,2082,2876,7_S
1789464362.608932,2083,2876,7_S
1789464362.611238,2072,2876,7_S
1789464362.613792,2081,2877,7_S
1789464362.615086,2061,2876,7_S
1789464362.617394,2105,2876,7_S
1789464362.61868,2062,2875,7_S
1789464362.6209779,2060,2877,7_S
1789464362.623311,2057,2875,7_S
1789464362.625389,2065,2876,7_S
1789464362.626546,2092,2875,7_S
1789464362.629094,2046,2875,7_S
1789464362.6315122,2101,2876,7_S
1789464362.6325681,2086,2877,7_S
1789464362.634638,2026,2875,7_S
1789464362.639491,1942,2873,7_S
1789464362.639956,2006,2874,7_S
1789464362.641979,2096,2876,7_S
1789464362.644017,2066,2877,7_S
1789464362.646205,2047,2875,7_S
1789464362.647617,2121,2877,7_S
1789464362.6495261,2296,2875,7_S
1789464362.650817,2217,2876,7_S
1789464362.653378,2070,2876,7_S
1789464362.655686,2009,2874,7_S
1789464362.656801,2050,2876,7_S
1789464362.659343,2092,2876,7_S
1789464362.661442,2054,2874,7_S
1789464362.662529,1929,2874,7_S
1789464362.6648269,1962,2875,7_S
1789464362.667135,2239,2876,7_S
1789464362.669429,2262,2877,7_S
1789464362.6707132,1728,2873,7_S
1789464362.6728299,1881,2876,7_S
1789464362.675373,2282,2878,7_S
1789464362.6791942,2235,2878,7_S
1789464362.67961,1958,2875,7_S
1789464362.6812449,2140,2877,7_S
1789464362.6826408,2255,2876,7_S
1789464362.6854541,2189,2876,7_S
1789464362.686927,2170,2877,7_S
1789464362.689656,2179,2876,7_S
1789464362.690712,2181,2876,7_S
1789464362.693017,2050,2876,7_S
1789464362.695327,1953,2874,7_S
1789464362.696613,1939,2875,7_S
1789464362.699157,2028,2877,7_S
1789464362.701451,2059,2876,7_S
1789464362.7025468,1930,2875,7_S
1789464362.7048671,2048,2877,7_S
1789464362.7074099,2222,2878,7_S
1789464362.708695,2109,2875,7_S
1789464362.710997,2161,2876,7_S
1789464362.7133,2155,2878,7_S
1789464362.714586,2136,2876,7_S
1789464362.719272,2115,2877,7_S
1789464362.719708,1962,2876,7_S
1789464362.721846,1893,2874,7_S
1789464362.723975,2067,2875,7_S
1789464362.726326,2261,2878,7_S
1789464362.7277792,2109,2876,7_S
1789464362.729755,1996,2876,7_S
1789464362.730807,2124,2876,7_S
1789464362.733372,2308,2875,7_S
1789464362.734671,1906,2873,7_S
1789464362.737215,2077,2876,7_S
1789464362.738522,2153,2877,7_S
1789464362.7409348,2068,2875,7_S
1789464362.743482,2048,2875,7_S
1789464362.744766,1922,2874,7_S
1789464362.747307,1956,2875,7_S
1789464362.74852,2202,2877,7_S
1789464362.750835,2155,2876,7_S
1789464362.753382,1980,2875,7_S
1789464362.754665,1943,2874,7_S
1789464362.7591958,1881,2875,7_S
1789464362.760299,2135,2876,7_S
1789464362.7618718,2386,2879,7_S
1789464362.763079,2218,2877,7_S
1789464362.7660842,1893,2874,7_S
1789464362.767524,1943,2874,7_S
1789464362.7693398,2080,2877,7_S
1789464362.770635,2129,2875,7_S
1789464362.7730172,2133,2878,7_S
1789464362.77557,2220,2878,7_S
1789464362.7768588,2148,2878,7_S
1789464362.779092,1979,2874,7_S
1789464362.78049,1822,2876,7_S
1789464362.782636,2076,2878,7_S
1789464362.784704,2230,2877,7_S
1789464362.78701,2019,2877,7_S
1789464362.7893188,1778,2873,7_S
1789464362.791627,2052,2874,7_S
1789464362.792914,2181,2878,7_S
1789464362.794976,2143,2878,7_S
1789464362.799268,1733,2874,7_S
1789464362.799648,1575,2874,7_S
1789464362.8012118,2339,2877,7_S
1789464362.803009,2803,2878,7_S
1789464362.806797,2275,2878,7_S
1789464362.806902,2108,2876,7_S
1789464362.8094568,2222,2877,7_S
1789464362.8105369,2154,2875,7_S
1789464362.813081,2223,2875,7_S
1789464362.8156319,2274,2878,7_S
1789464362.816685,2117,2876,7_S
1789464362.818982,1960,2877,7_S
1789464362.82129,1804,2873,7_S
1789464362.822577,1658,2874,7_S
1789464362.825118,1594,2875,7_S
1789464362.827415,2082,2875,7_S
1789464362.828705,2565,2879,7_S
1789464362.83089,2637,2878,7_S
1789464362.833436,2242,2876,7_S
1789464362.834475,2026,2878,7_S
1789464362.8395672,1993,2874,7_S
1789464362.839683,1898,2876,7_S
1789464362.841794,1955,2876,7_S
1789464362.8436139,2006,2875,7_S
1789464362.846177,1760,2876,7_S
1789464362.847887,1609,2875,7_S
1789464362.849314,1966,2876,7_S
1789464362.8516538,2245,2876,7_S
1789464362.8529432,1548,2873,7_S
1789464362.855532,2325,2877,7_S
1789464362.856825,2136,2876,7_S
1789464362.859141,2450,2877,7_S
1789464362.860428,2554,2878,7_S
1789464362.862732,2715,2878,7_S
1789464362.865273,2105,2875,7_S
1789464362.866557,2188,2877,7_S
1789464362.868851,2402,2877,7_S
1789464362.871389,2272,2877,7_S
1789464362.872674,1951,2876,7_S
1789464362.874735,2072,2876,7_S
1789464362.8770728,2201,2877,7_S
1789464362.881423,1580,2873,7_S
1789464362.881811,1392,2874,7_S
1789464362.8830478,1700,2874,7_S
1789464362.884806,1896,2874,7_S
1789464362.888887,2343,2878,7_S
1789464362.889087,2515,2878,7_S
1789464362.890965,2264,2877,7_S
1789464362.893207,2114,2877,7_S
1789464362.895405,2345,2879,7_S
1789464362.896703,2434,2878,7_S
1789464362.899253,2242,2878,7_S
1789464362.9005382,2160,2877,7_S
1789464362.902839,1918,2875,7_S
1789464362.9051452,1910,2874,7_S
1789464362.907438,1659,2875,7_S
1789464362.908725,1728,2876,7_S
1789464362.910827,2174,2877,7_S
1789464362.913374,2502,2878,7_S
1789464362.914658,2100,2877,7_S
1789464362.916961,2125,2877,7_S
1789464362.9217129,2110,2877,7_S
1789464362.922461,1898,2876,7_S
1789464362.922776,1592,2875,7_S
1789464362.92544,1929,2875,7_S
1789464362.9270458,2747,2879,7_S
1789464362.9284768,2295,2876,7_S
1789464362.931351,1944,2876,7_S
1789464362.932647,2009,2876,7_S
1789464362.934953,2218,2877,7_S
1789464362.937263,2249,2877,7_S
1789464362.938553,2211,2876,7_S
1789464362.941097,2137,2875,7_S
1789464362.9423978,1912,2875,7_S
1789464362.944693,1970,2877,7_S
1789464362.946826,2085,2876,7_S
1789464362.9492748,2069,2876,7_S
1789464362.950389,2088,2877,7_S
1789464362.952686,2137,2877,7_S
1789464362.9547489,1967,2876,7_S
1789464362.957046,2085,2876,7_S
1789464362.961212,2263,2878,7_S
1789464362.961638,2166,2877,7_S
1789464362.963636,1849,2874,7_S
1789464362.965329,1925,2876,7_S
1789464362.966919,2071,2876,7_S
1789464362.969683,1921,2874,7_S
1789464362.9716108,2034,2876,7_S
1789464362.972903,2265,2878,7_S
1789464362.9753442,2294,2879,7_S
1789464362.97664,2092,2875,7_S
1789464362.979187,2058,2876,7_S
1789464362.980425,2054,2877,7_S
1789464362.982969,2110,2877,7_S
1789464362.98543,2060,2877,7_S
1789464362.9864802,1852,2875,7_S
1789464362.988773,2129,2876,7_S
1789464362.991317,2285,2877,7_S
1789464362.992405,2038,2878,7_S
1789464362.994945,2021,2876,7_S
1789464362.997149,2136,2877,7_S
1789464363.002361,2123,2877,7_S
1789464363.0028028,2177,2876,7_S
1789464363.0028732,2064,2875,7_S
1789464363.004951,1889,2876,7_S
1789464363.0067358,2140,2876,7_S
1789464363.009632,2175,2878,7_S
1789464363.011179,2146,2878,7_S
1789464363.012556,1942,2875,7_S
1789464363.0151129,2016,2876,7_S
1789464363.0163991,1957,2874,7_S
1789464363.0187142,2195,2878,7_S
1789464363.021259,2246,2878,7_S
1789464363.022544,1848,2875,7_S
1789464363.02509,1884,2875,7_S
1789464363.026416,2082,2877,7_S
1789464363.028472,1719,2874,7_S
1789464363.031012,1932,2874,7_S
1789464363.033118,2486,2878,7_S
1789464363.0352519,2456,2877,7_S
1789464363.0363562,2147,2877,7_S
1789464363.0467122,2255,2878,7_S
1789464363.0471182,2200,2875,7_S
1789464363.053535,2094,2875,7_S
1789464363.0535748,2100,2874,7_S
1789464363.0536041,2027,2875,7_S
1789464363.0536342,2139,2876,7_S
1789464363.053681,1942,2875,7_S
1789464363.053714,1854,2874,7_S
1789464363.05502,1921,2874,7_S
1789464363.056347,1670,2874,7_S
1789464363.058948,2055,2875,7_S
1789464363.060349,2574,2878,7_S
1789464363.0629609,2366,2877,7_S
1789464363.064369,2158,2876,7_S
1789464363.0669959,2013,2877,7_S
1789464363.068428,2028,2873,7_S
1789464363.0711198,2150,2875,7_S
1789464363.0724921,2063,2876,7_S
1789464363.075207,2199,2875,7_S
1789464363.0765681,2057,2875,7_S
1789464363.0819142,1945,2874,7_S
1789464363.083918,2052,2878,7_S
1789464363.084233,2072,2876,7_S
1789464363.091166,2168,2877,7_S
1789464363.091549,2036,2874,7_S
1789464363.091923,2035,2877,7_S
1789464363.093717,2116,2876,7_S
1789464363.094021,2186,2877,7_S
1789464363.095382,1835,2873,7_S
1789464363.0967412,1924,2874,7_S
1789464363.09939,2010,2876,7_S
1789464363.100765,2045,2875,7_S
1789464363.1034298,2075,2876,7_S
1789464363.105016,2124,2878,7_S
1789464363.1064188,2163,2877,7_S
1789464363.1090581,2146,2875,7_S
1789464363.1115782,2144,2878,7_S
1789464363.112727,2149,2877,7_S
1789464363.115349,2041,2876,7_S
1789464363.1167371,2006,2876,7_S
1789464363.126682,2072,2877,7_S
1789464363.127208,2020,2873,7_S
1789464363.1276171,2077,2875,7_S
1789464363.128435,2105,2876,7_S
1789464363.129531,2062,2875,7_S
1789464363.130021,2016,2874,7_S
1789464363.1334321,2134,2877,7_S
1789464363.135016,2113,2876,7_S
1789464363.136139,2035,2877,7_S
1789464363.13632,1991,2875,7_S
1789464363.1392488,2052,2875,7_S
1789464363.140795,2110,2876,7_S
1789464363.14355,2113,2876,7_S
1789464363.144906,2036,2874,7_S
1789464363.146372,2063,2876,7_S
1789464363.149034,2122,2876,7_S
1789464363.150403,2097,2876,7_S
1789464363.153058,2032,2876,7_S
1789464363.1544168,2026,2875,7_S
1789464363.1570659,2043,2876,7_S
1789464363.158408,2049,2875,7_S
1789464363.161025,2032,2876,7_S
1789464363.166525,2007,2874,7_S
1789464363.1706,2074,2876,7_S
1789464363.174481,2121,2875,7_S
1789464363.1762419,2100,2876,7_S
1789464363.1769001,2057,2877,7_S
1789464363.177033,2121,2878,7_S
1789464363.177103,2132,2876,7_S
1789464363.17717,2121,2876,7_S
1789464363.178412,2093,2878,7_S
1789464363.1810439,2040,2877,7_S
1789464363.182288,2109,2876,7_S
1789464363.184972,2066,2875,7_S
1789464363.186361,2018,2876,7_S
1789464363.189176,2043,2874,7_S
1789464363.19056,2058,2874,7_S
1789464363.1932359,2098,2877,7_S
1789464363.194616,2090,2875,7_S
1789464363.197332,2053,2877,7_S
1789464363.198774,2120,2877,7_S
1789464363.201399,2103,2876,7_S
1789464363.207273,2044,2876,7_S
1789464363.210131,2060,2875,7_S
1789464363.2115688,2067,2876,7_S
1789464363.213811,2086,2876,7_S
1789464363.215897,2096,2875,7_S
1789464363.216254,2045,2874,7_S
1789464363.216715,2081,2875,7_S
1789464363.218484,2090,2876,7_S
1789464363.2185721,2108,2876,7_S
1789464363.221192,2007,2874,7_S
1789464363.222642,2074,2876,7_S
1789464363.225555,2086,2876,7_S
1789464363.2269351,2064,2876,7_S
1789464363.2283158,2054,2874,7_S
1789464363.230907,2094,2877,7_S
1789464363.232317,2113,2876,7_S
1789464363.2347531,2091,2875,7_S
1789464363.2373571,2041,2877,7_S
1789464363.238517,2053,2875,7_S
1789464363.241179,2099,2877,7_S
1789464363.2425401,2086,2877,7_S
1789464363.248842,2074,2876,7_S
1789464363.2507908,2081,2877,7_S
1789464363.255584,2121,2875,7_S
1789464363.255837,2097,2876,7_S
1789464363.257812,2026,2876,7_S
1789464363.2580101,2039,2874,7_S
1789464363.2601962,2111,2875,7_S
1789464363.260294,2084,2876,7_S
1789464363.260361,2063,2874,7_S
1789464363.2630432,2046,2875,7_S
1789464363.2643929,2098,2875,7_S
1789464363.2670221,2071,2876,7_S
1789464363.268398,2022,2876,7_S
1789464363.271138,2019,2874,7_S
1789464363.2725341,2062,2875,7_S
1789464363.2751832,2100,2875,7_S
1789464363.276553,2128,2876,7_S
1789464363.279198,2041,2874,7_S
1789464363.2806358,2092,2876,7_S
1789464363.283245,2112,2875,7_S
1789464363.284503,2060,2875,7_S
1789464363.291262,2050,2876,7_S
1789464363.2940469,2048,2876,7_S
1789464363.298814,2115,2876,7_S
1789464363.2995589,2095,2875,7_S
1789464363.3015602,2059,2876,7_S
1789464363.3017752,2069,2876,7_S
1789464363.301856,2127,2876,7_S
1789464363.30192,2115,2876,7_S
1789464363.303489,2061,2876,7_S
1789464363.304964,2042,2874,7_S
1789464363.3063848,2092,2876,7_S
1789464363.3090482,2102,2876,7_S
1789464363.310462,2102,2876,7_S
1789464363.312788,2034,2874,7_S
1789464363.315406,2088,2878,7_S
1789464363.3164968,2109,2876,7_S
1789464363.318691,2048,2876,7_S
1789464363.3209898,2027,2877,7_S
1789464363.322277,2061,2876,7_S
1789464363.324576,2080,2876,7_S
1789464363.326876,2063,2877,7_S
1789464363.331987,2047,2876,7_S
1789464363.3324502,2084,2877,7_S
1789464363.33287,2096,2876,7_S
1789464363.334555,2091,2876,7_S
1789464363.337413,2029,2876,7_S
1789464363.3391879,2047,2875,7_S
1789464363.341176,2114,2876,7_S
1789464363.342883,2109,2876,7_S
1789464363.3452852,2088,2876,7_S
1789464363.346571,2061,2877,7_S
1789464363.348889,2113,2877,7_S
1789464363.350272,2094,2876,7_S
1789464363.352577,2035,2876,7_S
1789464363.355121,2020,2874,7_S
1789464363.35641,2065,2876,7_S
1789464363.358955,2097,2877,7_S
1789464363.360246,2080,2876,7_S
1789464363.362795,2038,2875,7_S
1789464363.365335,2088,2877,7_S
1789464363.3663812,2123,2876,7_S
1789464363.368743,2066,2876,7_S
1789464363.372523,2034,2878,7_S
1789464363.3729222,2067,2875,7_S
1789464363.3747468,2095,2876,7_S
1789464363.377345,2072,2876,7_S
1789464363.379209,2038,2876,7_S
1789464363.3811772,2057,2877,7_S
1789464363.38281,2123,2876,7_S
1789464363.385368,2099,2876,7_S
1789464363.386667,2038,2875,7_S
1789464363.3892229,2060,2875,7_S
1789464363.390443,2101,2876,7_S
1789464363.392747,2104,2876,7_S
1789464363.395061,2063,2876,7_S
1789464363.396353,2071,2877,7_S
1789464363.398656,2127,2877,7_S
1789464363.400954,2119,2875,7_S
1789464363.4033651,2042,2877,7_S
1789464363.4044852,2025,2874,7_S
1789464363.407028,2076,2876,7_S
1789464363.409088,2125,2876,7_S
1789464363.413673,2099,2875,7_S
1789464363.414112,2077,2877,7_S
1789464363.414476,2092,2875,7_S
1789464363.4163442,2069,2876,7_S
1789464363.419442,2038,2875,7_S
1789464363.420722,2028,2877,7_S
1789464363.422598,2063,2877,7_S
1789464363.425226,2114,2876,7_S
1789464363.4264069,2089,2876,7_S
1789464363.428948,2054,2875,7_S
1789464363.430241,2071,2876,7_S
1789464363.432564,2096,2876,7_S
1789464363.4346619,2085,2875,7_S
1789464363.437203,2070,2876,7_S
1789464363.4384892,2055,2874,7_S
1789464363.441028,2079,2877,7_S
1789464363.4421608,2064,2875,7_S
1789464363.444702,2036,2877,7_S
1789464363.447249,2044,2876,7_S
1789464363.448299,2120,2876,7_S
1789464363.4505951,2110,2876,7_S
1789464363.4552388,2033,2877,7_S
1789464363.455623,2002,2874,7_S
1789464363.457066,2066,2876,7_S
1789464363.4589062,2096,2876,7_S
1789464363.46132,2088,2876,7_S
1789464363.463104,2047,2874,7_S
1789464363.464854,2117,2877,7_S
1789464363.466161,2130,2877,7_S
1789464363.4684641,2045,2875,7_S
1789464363.471024,2048,2877,7_S
1789464363.4723158,2068,2875,7_S
1789464363.474623,2105,2876,7_S
1789464363.477164,2088,2875,7_S
1789464363.4782138,2063,2875,7_S
1789464363.480756,2092,2877,7_S
1789464363.482152,2097,2875,7_S
1789464363.484471,2062,2876,7_S
1789464363.486775,2020,2876,7_S
1789464363.489077,2021,2874,7_S
1789464363.4903622,2107,2875,7_S
1789464363.495606,2118,2877,7_S
1789464363.496316,2067,2876,7_S
1789464363.497696,2049,2877,7_S
1789464363.499247,2132,2876,7_S
1789464363.50108,2102,2875,7_S
1789464363.502748,2049,2875,7_S
1789464363.5043452,2018,2874,7_S
1789464363.506987,2058,2877,7_S
1789464363.508276,2077,2876,7_S
1789464363.510819,2072,2875,7_S
1789464363.51211,2051,2875,7_S
1789464363.5144079,2089,2877,7_S
1789464363.516949,2105,2875,7_S
1789464363.518234,2073,2875,7_S
1789464363.520301,2042,2877,7_S
1789464363.522847,2081,2875,7_S
1789464363.525141,2097,2876,7_S
1789464363.526338,2096,2876,7_S
1789464363.5284429,2066,2875,7_S
1789464363.5307572,2058,2876,7_S
1789464363.53526,2096,2876,7_S
1789464363.535676,2096,2875,7_S
1789464363.537479,2041,2876,7_S
1789464363.5389922,2017,2874,7_S
1789464363.544331,2100,2875,7_S
1789464363.5445042,2098,2876,7_S
1789464363.5446,2064,2876,7_S
1789464363.547295,2024,2874,7_S
1789464363.5487092,2105,2877,7_S
1789464363.5508711,2098,2875,7_S
1789464363.552325,2040,2875,7_S
1789464363.555011,2010,2874,7_S
1789464363.5564249,2078,2875,7_S
1789464363.559073,2076,2876,7_S
1789464363.560419,2082,2876,7_S
1789464363.5628228,2067,2877,7_S
1789464363.5650141,2095,2876,7_S
1789464363.5663202,2103,2875,7_S
1789464363.568544,2061,2875,7_S
1789464363.5706182,2014,2874,7_S
1789464363.5764182,2064,2874,7_S
1789464363.576861,2104,2876,7_S
1789464363.577274,2090,2877,7_S
1789464363.579011,2053,2874,7_S
1789464363.581475,2075,2876,7_S
1789464363.583576,2117,2876,7_S
1789464363.585341,2096,2875,7_S
1789464363.587043,2050,2877,7_S
1789464363.5884538,2079,2878,7_S
1789464363.591011,2093,2874,7_S
1789464363.5921369,2083,2875,7_S
1789464363.59424,2074,2875,7_S
1789464363.59631,2070,2877,7_S
1789464363.598627,2120,2876,7_S
1789464363.600936,2082,2877,7_S
1789464363.6022232,2036,2876,7_S
1789464363.6042829,2023,2874,7_S
1789464363.6066911,2079,2876,7_S
1789464363.608999,2110,2876,7_S
1789464363.6102898,2060,2877,7_S
1789464363.6157491,2018,2875,7_S
1789464363.6161869,2085,2877,7_S
1789464363.616655,2079,2876,7_S
1789464363.618593,2048,2875,7_S
1789464363.620703,2034,2876,7_S
1789464363.622954,2029,2875,7_S
1789464363.624734,2087,2876,7_S
1789464363.626137,2087,2877,7_S
1789464363.6284559,2042,2875,7_S
1789464363.631006,2090,2876,7_S
1789464363.632319,2127,2875,7_S
1789464363.634393,2076,2876,7_S
1789464363.636461,2060,2876,7_S
1789464363.63905,2052,2875,7_S
1789464363.640121,2062,2875,7_S
1789464363.642422,2088,2877,7_S
1789464363.644722,2091,2875,7_S
1789464363.647072,2012,2875,7_S
1789464363.64836,2077,2877,7_S
1789464363.650673,2085,2875,7_S
1789464363.655689,2043,2876,7_S
1789464363.6569421,2002,2874,7_S
1789464363.6584268,2080,2875,7_S
1789464363.660325,2093,2876,7_S
1789464363.660692,2070,2876,7_S
1789464363.664756,2085,2878,7_S
1789464363.6649039,2084,2877,7_S
1789464363.666368,2115,2876,7_S
1789464363.668921,2098,2876,7_S
1789464363.670215,2034,2877,7_S
1789464363.672609,2073,2875,7_S
1789464363.674038,2114,2875,7_S
1789464363.676266,2132,2877,7_S
1789464363.67838,2088,2878,7_S
1789464363.680937,2070,2876,7_S
1789464363.682286,2122,2877,7_S
1789464363.685034,2107,2875,7_S
1789464363.6863391,2054,2876,7_S
1789464363.68901,2039,2874,7_S
1789464363.690416,2079,2876,7_S
1789464363.6933172,2087,2875,7_S
1789464363.697355,2055,2876,7_S
1789464363.699554,2027,2874,7_S
1789464363.7014642,2115,2875,7_S
1789464363.706144,2097,2875,7_S
1789464363.706443,2065,2877,7_S
1789464363.70683,2023,2874,7_S
1789464363.708745,2091,2875,7_S
1789464363.708842,2132,2876,7_S
1789464363.71022,2062,2874,7_S
1789464363.712831,2017,2876,7_S
1789464363.718834,2094,2876,7_S
1789464363.7189739,2103,2875,7_S
1789464363.725652,2063,2876,7_S
1789464363.727852,2033,2877,7_S
1789464363.727987,2015,2875,7_S
1789464363.728065,2090,2877,7_S
1789464363.728131,2084,2876,7_S
1789464363.728197,2090,2876,7_S
1789464363.730793,2068,2877,7_S
1789464363.732255,2133,2876,7_S
1789464363.7346072,2088,2875,7_S
1789464363.736759,2002,2876,7_S
1789464363.73806,2015,2875,7_S
1789464363.740365,2071,2877,7_S
1789464363.742759,2107,2876,7_S
1789464363.744222,2064,2876,7_S
1789464363.746586,2042,2877,7_S
1789464363.748118,2124,2876,7_S
1789464363.7504692,2105,2877,7_S
1789464363.7530859,2057,2875,7_S
1789464363.7581818,2060,2876,7_S
1789464363.760978,2085,2875,7_S
1789464363.762999,2098,2875,7_S
1789464363.767366,2083,2876,7_S
1789464363.767585,2082,2878,7_S
1789464363.767933,2074,2875,7_S
1789464363.768054,2095,2875,7_S
1789464363.769469,2046,2875,7_S
1789464363.770547,2046,2877,7_S
1789464363.773221,2034,2875,7_S
1789464363.7743628,2104,2876,7_S
1789464363.776801,2072,2876,7_S
1789464363.777995,2052,2876,7_S
1789464363.780566,2064,2877,7_S
1789464363.781981,2132,2876,7_S
1789464363.784394,2090,2875,7_S
1789464363.7869692,2052,2877,7_S
1789464363.78846,2025,2875,7_S
1789464363.790932,2088,2875,7_S
1789464363.792166,2082,2876,7_S
1789464363.794592,2091,2874,7_S
1789464363.799266,2038,2874,7_S
1789464363.8008242,2107,2875,7_S
1789464363.800949,2093,2875,7_S
1789464363.803496,2068,2875,7_S
1789464363.805439,2037,2874,7_S
1789464363.808872,2067,2874,7_S
1789464363.810567,2105,2875,7_S
1789464363.810633,2117,2875,7_S
1789464363.812083,2012,2875,7_S
1789464363.8147058,2102,2877,7_S
1789464363.8160331,2102,2877,7_S
1789464363.8185441,2100,2876,7_S
1789464363.8211231,2066,2877,7_S
1789464363.822426,2026,2875,7_S
1789464363.825014,2077,2876,7_S
1789464363.8263521,2082,2876,7_S
1789464363.828795,2077,2876,7_S
1789464363.8300622,2070,2876,7_S
1789464363.832432,2071,2876,7_S
1789464363.835022,2089,2876,7_S
1789464363.83856,2054,2875,7_S
1789464363.838909,2044,2875,7_S
1789464363.8411589,2079,2876,7_S
1789464363.8428218,2101,2875,7_S
1789464363.844368,2077,2875,7_S
1789464363.847069,2054,2875,7_S
1789464363.848526,2102,2875,7_S
1789464363.850847,2104,2876,7_S
1789464363.852958,2039,2875,7_S
1789464363.854261,2053,2877,7_S
1789464363.856578,2080,2874,7_S
1789464363.8588932,2119,2876,7_S
1789464363.86018,2107,2876,7_S
1789464363.862493,2043,2874,7_S
1789464363.864618,2075,2877,7_S
1789464363.8670342,2108,2875,7_S
1789464363.86835,2076,2875,7_S
1789464363.870655,2033,2877,7_S
1789464363.8720179,2018,2875,7_S
1789464363.877493,2066,2875,7_S
1789464363.8779688,2091,2876,7_S
1789464363.8801322,2066,2875,7_S
1789464363.881932,2047,2877,7_S
1789464363.8826182,2102,2876,7_S
1789464363.886358,2070,2875,7_S
1789464363.886531,2030,2875,7_S
1789464363.8889909,2022,2874,7_S
1789464363.890284,2079,2876,7_S
1789464363.8928452,2098,2875,7_S
1789464363.8941472,2084,2876,7_S
1789464363.896217,2077,2877,7_S
1789464363.898766,2126,2875,7_S
1789464363.900064,2116,2875,7_S
1789464363.902123,2060,2876,7_S
1789464363.9044402,2052,2876,7_S
1789464363.906504,2086,2875,7_S
1789464363.908604,2101,2875,7_S
1789464363.910696,2113,2875,7_S
1789464363.9127731,2035,2876,7_S
1789464363.918228,2089,2878,7_S
1789464363.9186308,2110,2876,7_S
1789464363.919338,2078,2876,7_S
1789464363.9222138,2037,2876,7_S
1789464363.922567,2067,2874,7_S
1789464363.92475,2092,2876,7_S
1789464363.926363,2109,2876,7_S
1789464363.9290712,2076,2874,7_S
1789464363.930349,2071,2877,7_S
1789464363.932416,2122,2876,7_S
1789464363.934745,2103,2875,7_S
1789464363.937077,2055,2876,7_S
1789464363.938138,2028,2875,7_S
1789464363.940209,2063,2875,7_S
1789464363.942265,2089,2876,7_S
1789464363.944617,2066,2876,7_S
1789464363.945915,2001,2874,7_S
1789464363.948225,2077,2876,7_S
1789464363.950779,2085,2875,7_S
1789464363.952072,2035,2876,7_S
1789464363.95903,2047,2877,7_S
1789464363.959274,2061,2874,7_S
1789464363.9611971,2121,2876,7_S
1789464363.962023,2082,2877,7_S
1789464363.9647958,2084,2878,7_S
1789464363.966402,2096,2876,7_S
1789464363.966536,2104,2876,7_S
1789464363.968224,2078,2875,7_S
1789464363.970315,2018,2878,7_S
1789464363.9727051,2053,2875,7_S
1789464363.9740531,2084,2876,7_S
1789464363.976119,2093,2876,7_S
1789464363.978184,2053,2875,7_S
1789464363.980741,2063,2877,7_S
1789464363.982029,2118,2875,7_S
1789464363.984087,2095,2876,7_S
1789464363.986159,2048,2875,7_S
1789464363.988472,2031,2875,7_S
1789464363.990815,2096,2876,7_S
1789464363.9921238,2092,2875,7_S
1789464363.9965692,2074,2875,7_S
1789464363.997032,2049,2874,7_S
1789464363.999491,2121,2877,7_S
1789464364.001604,2107,2876,7_S
1789464364.0054982,2058,2875,7_S
1789464364.005671,2023,2874,7_S
1789464364.0075111,2073,2874,7_S
1789464364.008574,2101,2876,7_S
1789464364.009898,2082,2875,7_S
1789464364.01214,2045,2875,7_S
1789464364.014366,2056,2876,7_S
1789464364.016675,2121,2876,7_S
1789464364.018978,2088,2876,7_S
1789464364.020264,2049,2875,7_S
1789464364.022369,2048,2875,7_S
1789464364.024568,2117,2874,7_S
1789464364.0258949,2105,2876,7_S
1789464364.028196,2059,2875,7_S
1789464364.0304298,2050,2876,7_S
1789464364.0329778,2102,2875,7_S
1789464364.0340202,2086,2875,7_S
1789464364.03932,2062,2876,7_S
1789464364.040003,2034,2873,7_S
1789464364.0414,2058,2875,7_S
1789464364.042617,2079,2876,7_S
1789464364.044136,2082,2876,7_S
1789464364.0470421,2053,2874,7_S
1789464364.049176,2091,2876,7_S
1789464364.050234,2100,2875,7_S
1789464364.052543,2094,2876,7_S
1789464364.0538828,2040,2877,7_S
1789464364.056195,2046,2874,7_S
1789464364.058743,2078,2876,7_S
1789464364.061054,2089,2876,7_S
1789464364.062103,2058,2875,7_S
1789464364.064167,2093,2876,7_S
1789464364.0664692,2120,2876,7_S
1789464364.068772,2081,2875,7_S
1789464364.070057,2038,2876,7_S
1789464364.072602,2030,2875,7_S
1789464364.073948,2085,2875,7_S
1789464364.07951,2107,2877,7_S
1789464364.079637,2074,2875,7_S
1789464364.081627,2067,2876,7_S
1789464364.083432,2099,2875,7_S
1789464364.084952,2093,2875,7_S
1789464364.0864089,2069,2876,7_S
1789464364.089222,2039,2875,7_S
1789464364.090524,2084,2876,7_S
1789464364.092716,2089,2876,7_S
1789464364.094008,2082,2876,7_S
1789464364.096328,2045,2875,7_S
1789464364.0986362,2095,2876,7_S
1789464364.1009321,2109,2876,7_S
1789464364.1020858,2080,2876,7_S
1789464364.1041589,2035,2876,7_S
1789464364.1067011,2068,2874,7_S
1789464364.1079848,2104,2876,7_S
1789464364.110395,2108,2876,7_S
1789464364.1129348,2064,2875,7_S
1789464364.1139772,2097,2876,7_S
1789464364.11628,2107,2875,7_S
1789464364.121213,2061,2875,7_S
1789464364.1222668,2031,2877,7_S
1789464364.12346,2051,2875,7_S
1789464364.124972,2090,2875,7_S
1789464364.1280582,2093,2876,7_S
1789464364.129565,2055,2876,7_S
1789464364.1315022,2052,2876,7_S
1789464364.132797,2101,2875,7_S
1789464364.1343622,2100,2876,7_S
1789464364.136676,2047,2876,7_S
1789464364.1379771,2031,2874,7_S
1789464364.140287,2073,2877,7_S
1789464364.142842,2083,2876,7_S
1789464364.1438878,2070,2876,7_S
1789464364.1462688,2024,2874,7_S
1789464364.148352,2111,2877,7_S
1789464364.150421,2113,2875,7_S
1789464364.152631,2063,2877,7_S
1789464364.153931,2025,2875,7_S
1789464364.1562428,2069,2876,7_S
1789464364.158685,2093,2877,7_S
1789464364.162645,2095,2875,7_S
1789464364.163137,2049,2875,7_S
1789464364.164664,2077,2878,7_S
1789464364.1661801,2107,2876,7_S
1789464364.170989,2087,2875,7_S
1789464364.1733792,2022,2876,7_S
1789464364.173568,2041,2875,7_S
1789464364.174865,2070,2875,7_S
1789464364.175982,2105,2876,7_S
1789464364.178305,2059,2876,7_S
1789464364.1823099,2048,2876,7_S
1789464364.1830242,2107,2875,7_S
1789464364.185933,2115,2876,7_S
1789464364.187453,2032,2875,7_S
1789464364.189386,2013,2874,7_S
1789464364.190769,2075,2877,7_S
1789464364.19259,2089,2877,7_S
1789464364.193883,2077,2876,7_S
1789464364.19595,2034,2874,7_S
1789464364.1981041,2063,2877,7_S
1789464364.200659,2090,2876,7_S
1789464364.201793,2050,2875,7_S
1789464364.204118,2028,2876,7_S
1789464364.20645,2061,2875,7_S
1789464364.208894,2101,2875,7_S
1789464364.2099352,2088,2875,7_S
1789464364.212485,2062,2875,7_S
1789464364.213773,2073,2876,7_S
1789464364.216371,2109,2876,7_S
1789464364.222296,2082,2877,7_S
1789464364.223263,2036,2876,7_S
1789464364.223754,2013,2875,7_S
1789464364.2238772,2074,2876,7_S
1789464364.226701,2109,2876,7_S
1789464364.228371,2055,2875,7_S
1789464364.230847,2069,2878,7_S
1789464364.2323809,2107,2874,7_S
1789464364.233876,2114,2876,7_S
1789464364.236085,2048,2875,7_S
1789464364.23841,2015,2873,7_S
1789464364.242516,2097,2875,7_S
1789464364.242954,2107,2876,7_S
1789464364.244593,2077,2876,7_S
1789464364.245976,2033,2875,7_S
1789464364.2489548,2075,2876,7_S
1789464364.250328,2096,2875,7_S
1789464364.252022,2076,2875,7_S
1789464364.254345,2038,2876,7_S
1789464364.2566621,2054,2874,7_S
1789464364.257771,2095,2876,7_S
1789464364.2600698,2100,2876,7_S
1789464364.2621272,2062,2875,7_S
1789464364.264429,2090,2876,7_S
1789464364.266882,2121,2875,7_S
1789464364.2680562,2107,2876,7_S
1789464364.270599,2054,2876,7_S
1789464364.2727082,2023,2875,7_S
1789464364.2737489,2097,2876,7_S
1789464364.276153,2112,2876,7_S
1789464364.2786932,2060,2875,7_S
1789464364.283247,2069,2876,7_S
1789464364.283371,2109,2875,7_S
1789464364.285824,2116,2875,7_S
