timestamp,ch1,ch2,label
1789464382.6767738,2092,2876,8
1789464382.6769102,2045,2876,8
1789464382.680437,2032,2873,8
1789464382.682196,2081,2875,8
1789464382.687416,2105,2876,8
1789464382.690769,2083,2876,8
1789464382.6908789,2053,2874,8
1789464382.6909199,2089,2876,8
1789464382.690961,2099,2875,8
1789464382.693629,2058,2875,8
1789464382.694995,2023,2878,8
1789464382.697608,2052,2875,8
1789464382.6989691,2083,2876,8
1789464382.7014668,2097,2876,8
1789464382.702898,2045,2875,8
1789464382.7054222,2069,2877,8
1789464382.707849,2105,2875,8
1789464382.709192,2087,2876,8
1789464382.711793,2051,2875,8
1789464382.7128918,2052,2874,8
1789464382.715318,2070,2875,8
1789464382.717681,2063,2875,8
1789464382.718981,2029,2875,8
1789464382.721438,2025,2874,8
1789464382.723992,2077,2876,8
1789464382.725193,2104,2876,8
1789464382.7277591,2053,2875,8
1789464382.731806,2003,2873,8
1789464382.732555,2048,2875,8
1789464382.7342348,2097,2876,8
1789464382.735723,2086,2875,8
1789464382.737489,2022,2875,8
1789464382.7406669,2059,2876,8
1789464382.742221,2071,2875,8
1789464382.7435882,2028,2875,8
1789464382.744927,1999,2874,8
1789464382.7472498,2001,2875,8
1789464382.749311,2035,2876,8
1789464382.751376,2045,2875,8
1789464382.75347,2013,2874,8
1789464382.755784,2044,2876,8
1789464382.756927,2065,2875,8
1789464382.75949,2024,2875,8
1789464382.761756,1989,2873,8
1789464382.763031,1986,2875,8
1789464382.7652018,2039,2876,8
1789464382.7675982,2064,2876,8
1789464382.769939,2014,2876,8
1789464382.770988,2011,2874,8
1789464382.7733061,2041,2877,8
1789464382.775615,2057,2876,8
1789464382.7779121,2025,2876,8
1789464382.7821078,1985,2875,8
1789464382.782916,2021,2876,8
1789464382.7833369,2045,2876,8
1789464382.786293,2041,2875,8
1789464382.78811,2010,2875,8
1789464382.789411,2054,2877,8
1789464382.7918222,2059,2876,8
1789464382.7929978,2031,2875,8
1789464382.795338,1984,2874,8
1789464382.7977989,2021,2875,8
1789464382.798969,2033,2876,8
1789464382.801295,2030,2876,8
1789464382.803364,2002,2875,8
1789464382.805907,2038,2876,8
1789464382.8070028,2067,2876,8
1789464382.809302,2054,2875,8
1789464382.811593,2007,2876,8
1789464382.813914,2008,2875,8
1789464382.81497,2076,2876,8
1789464382.817512,2068,2876,8
1789464382.819725,2076,2875,8
1789464382.822021,2055,2876,8
1789464382.823308,2079,2876,8
1789464382.8256052,2071,2876,8
1789464382.8279061,2033,2876,8
1789464382.829195,2039,2877,8
1789464382.833359,2075,2875,8
1789464382.8344052,2103,2876,8
1789464382.835996,2073,2876,8
1789464382.837945,2043,2875,8
1789464382.8394802,2086,2876,8
1789464382.8413,2091,2876,8
1789464382.842931,2073,2875,8
1789464382.8452559,2044,2876,8
1789464382.8474329,2047,2875,8
1789464382.8499782,2069,2875,8
1789464382.851264,2072,2875,8
1789464382.853321,2068,2876,8
1789464382.855819,2064,2877,8
1789464382.857122,2109,2876,8
1789464382.859571,2084,2876,8
1789464382.8618739,2038,2875,8
1789464382.862926,2037,2874,8
1789464382.865238,2083,2876,8
1789464382.867296,2110,2876,8
1789464382.869529,2081,2876,8
1789464382.870813,2048,2874,8
1789464382.872875,2103,2874,8
1789464382.875165,2108,2876,8
1789464382.877467,2059,2876,8
1789464382.879524,2035,2877,8
1789464382.881829,2063,2874,8
1789464382.882882,2085,2876,8
1789464382.8876421,2086,2875,8
1789464382.8883462,2046,2875,8
1789464382.89012,2096,2877,8
1789464382.891823,2122,2875,8
1789464382.894546,2083,2874,8
1789464382.896939,2026,2877,8
1789464382.8971488,2048,2874,8
1789464382.899449,2084,2876,8
1789464382.900768,2087,2875,8
1789464382.903084,2051,2876,8
1789464382.905561,2070,2876,8
1789464382.906846,2115,2876,8
1789464382.9093919,2086,2876,8
1789464382.910798,2051,2876,8
1789464382.913215,2046,2874,8
1789464382.915379,2120,2878,8
1789464382.917554,2114,2875,8
1789464382.919861,2079,2875,8
1789464382.9211469,2063,2877,8
1789464382.923691,2102,2876,8
1789464382.9249809,2100,2876,8
1789464382.927291,2053,2876,8
1789464382.929655,2035,2877,8
1789464382.93094,2085,2875,8
1789464382.9332402,2114,2876,8
1789464382.93537,2089,2875,8
1789464382.9377909,2071,2876,8
1789464382.941338,2077,2877,8
1789464382.941795,2099,2875,8
1789464382.943725,2066,2875,8
1789464382.945559,2033,2876,8
1789464382.947419,2040,2875,8
1789464382.950778,2088,2876,8
1789464382.9509592,2092,2876,8
1789464382.953063,2075,2875,8
1789464382.956243,2039,2877,8
1789464382.95755,2119,2876,8
1789464382.961332,2099,2875,8
1789464382.961822,2053,2875,8
1789464382.963777,2015,2873,8
1789464382.965508,2081,2874,8
1789464382.966787,2102,2875,8
1789464382.9704618,2045,2876,8
1789464382.971522,2037,2875,8
1789464382.973593,2109,2876,8
1789464382.975668,2100,2875,8
1789464382.976751,2063,2876,8
1789464382.9790962,2049,2877,8
1789464382.981162,2079,2875,8
1789464382.983226,2106,2876,8
1789464382.985294,2096,2875,8
1789464382.987602,2050,2875,8
1789464382.988888,2094,2877,8
1789464382.991192,2112,2876,8
1789464382.993351,2089,2875,8
1789464382.995403,2031,2876,8
1789464382.99747,2035,2875,8
1789464382.999549,2106,2876,8
1789464383.001856,2064,2876,8
1789464383.003149,2051,2876,8
1789464383.0052018,2080,2877,8
1789464383.007509,2105,2875,8
1789464383.008739,2095,2875,8
1789464383.012393,2048,2875,8
1789464383.014443,2022,2873,8
1789464383.0162828,2080,2876,8
1789464383.017644,2106,2877,8
1789464383.019003,2092,2875,8
1789464383.021465,2057,2878,8
1789464383.023687,2109,2876,8
1789464383.024998,2119,2875,8
1789464383.027547,2064,2876,8
1789464383.032542,2035,2876,8
1789464383.033368,2082,2875,8
1789464383.034115,2109,2876,8
1789464383.035638,2092,2875,8
1789464383.037339,2043,2874,8
1789464383.039615,2091,2877,8
1789464383.0421371,2097,2875,8
1789464383.0434308,2069,2875,8
1789464383.045731,2042,2877,8
1789464383.0470169,2050,2875,8
1789464383.049387,2095,2876,8
1789464383.0516832,2098,2876,8
1789464383.052969,2057,2876,8
1789464383.055511,2070,2876,8
1789464383.0567958,2103,2875,8
1789464383.0593338,2128,2875,8
1789464383.061858,2070,2876,8
1789464383.063145,2031,2874,8
1789464383.065687,2071,2875,8
1789464383.0668511,2102,2876,8
1789464383.0692182,2085,2876,8
1789464383.07176,2048,2875,8
1789464383.073045,2094,2876,8
1789464383.07535,2128,2875,8
1789464383.0766358,2066,2875,8
1789464383.079178,2044,2876,8
1789464383.0843751,2083,2875,8
1789464383.084505,2112,2877,8
1789464383.085278,2088,2876,8
1789464383.0867908,2061,2875,8
1789464383.089609,2103,2876,8
1789464383.091624,2112,2876,8
1789464383.093599,2072,2875,8
1789464383.0948899,2034,2877,8
1789464383.09709,2047,2874,8
1789464383.099631,2074,2876,8
1789464383.100919,2092,2877,8
1789464383.103223,2057,2875,8
1789464383.105529,2046,2878,8
1789464383.106816,2112,2875,8
1789464383.1091142,2105,2876,8
1789464383.111339,2066,2876,8
1789464383.1126232,2038,2875,8
1789464383.115169,2118,2878,8
1789464383.117378,2078,2877,8
1789464383.119671,2051,2875,8
1789464383.120713,2035,2875,8
1789464383.122846,2079,2877,8
1789464383.125155,2092,2875,8
1789464383.127695,2044,2876,8
1789464383.128736,2017,2876,8
1789464383.131273,2072,2875,8
1789464383.132627,2102,2876,8
1789464383.136524,2092,2875,8
1789464383.1383622,2077,2875,8
1789464383.140044,2105,2877,8
1789464383.1424918,2120,2875,8
1789464383.143351,2094,2876,8
1789464383.1449852,2027,2876,8
1789464383.147541,2045,2875,8
1789464383.14885,2097,2876,8
1789464383.151194,2111,2876,8
1789464383.153742,2078,2875,8
1789464383.154964,2096,2876,8
1789464383.157511,2134,2876,8
1789464383.1588,2093,2875,8
1789464383.1609972,2048,2876,8
1789464383.1635358,2018,2874,8
1789464383.164675,2047,2877,8
1789464383.1669812,2076,2876,8
1789464383.1694841,2073,2876,8
1789464383.170683,2043,2875,8
1789464383.172976,2099,2877,8
1789464383.175283,2113,2875,8
1789464383.1773639,2060,2877,8
1789464383.1786518,2050,2875,8
1789464383.181041,2094,2874,8
1789464383.183342,2107,2876,8
1789464383.188141,2109,2876,8
1789464383.1884968,2061,2874,8
1789464383.190329,2091,2877,8
1789464383.1920588,2109,2875,8
1789464383.193724,2057,2876,8
1789464383.195143,2025,2876,8
1789464383.198115,2056,2875,8
1789464383.199166,2089,2875,8
1789464383.201652,2075,2875,8
1789464383.202709,2080,2876,8
1789464383.205017,2097,2877,8
1789464383.207563,2151,2876,8
1789464383.2088552,2118,2876,8
1789464383.210921,2058,2876,8
1789464383.212985,2024,2875,8
1789464383.215282,2093,2875,8
1789464383.216634,2106,2876,8
1789464383.219179,2074,2876,8
1789464383.221718,2038,2875,8
1789464383.223007,2098,2876,8
1789464383.225309,2087,2876,8
1789464383.226631,2091,2876,8
1789464383.228943,2053,2877,8
1789464383.231482,2059,2875,8
1789464383.232769,2089,2875,8
1789464383.235308,2085,2876,8
1789464383.236661,2061,2875,8
1789464383.2420118,2090,2877,8
1789464383.2421398,2083,2875,8
1789464383.2440372,2058,2875,8
1789464383.245572,2031,2876,8
1789464383.247031,2062,2876,8
1789464383.249064,2083,2876,8
1789464383.250992,2108,2876,8
1789464383.2534559,2076,2875,8
1789464383.254752,2048,2877,8
1789464383.2572968,2097,2876,8
1789464383.2586172,2105,2876,8
1789464383.260698,2051,2875,8
1789464383.263241,2019,2874,8
1789464383.265551,2080,2876,8
1789464383.26664,2165,2879,8
1789464383.2691982,2136,2877,8
1789464383.271589,2055,2878,8
1789464383.2728739,2097,2878,8
1789464383.2754161,2127,2877,8
1789464383.276703,2071,2876,8
1789464383.279244,2064,2877,8
1789464383.280533,2042,2875,8
1789464383.282836,2081,2876,8
1789464383.284891,2056,2876,8
1789464383.287188,2030,2876,8
1789464383.289493,2086,2877,8
1789464383.2940989,2127,2877,8
1789464383.294828,2080,2876,8
1789464383.295275,2042,2876,8
1789464383.296685,2045,2875,8
1789464383.299396,2096,2876,8
1789464383.300898,2093,2876,8
1789464383.303591,2008,2875,8
1789464383.3049018,2073,2876,8
1789464383.3074539,2102,2877,8
1789464383.3087418,2052,2876,8
1789464383.311286,2081,2875,8
1789464383.31257,2115,2877,8
1789464383.314635,2095,2877,8
1789464383.317174,2070,2876,8
1789464383.318519,2056,2876,8
1789464383.320818,2029,2875,8
1789464383.323358,2080,2877,8
1789464383.324518,2158,2875,8
1789464383.327063,2196,2877,8
1789464383.329611,2010,2876,8
1789464383.330899,2006,2875,8
1789464383.3334458,2148,2876,8
1789464383.334731,2142,2876,8
1789464383.33719,2061,2874,8
1789464383.3394969,2133,2877,8
1789464383.340548,2109,2876,8
1789464383.345958,2002,2875,8
1789464383.346391,1986,2875,8
1789464383.34705,2009,2875,8
1789464383.349556,2075,2875,8
1789464383.351137,2121,2876,8
1789464383.352894,2132,2878,8
1789464383.35543,2082,2877,8
1789464383.3567302,2040,2875,8
1789464383.359277,2073,2876,8
1789464383.360567,2077,2877,8
1789464383.362894,1974,2875,8
1789464383.365435,2051,2876,8
1789464383.3667252,2078,2875,8
1789464383.369022,2024,2875,8
1789464383.371237,2089,2877,8
1789464383.37251,2142,2875,8
1789464383.3750489,2180,2876,8
1789464383.377356,2109,2876,8
1789464383.378531,2040,2877,8
1789464383.380843,2156,2878,8
1789464383.383147,1973,2875,8
1789464383.385219,1953,2876,8
1789464383.386542,1991,2875,8
1789464383.388594,2055,2877,8
1789464383.3908968,2169,2875,8
1789464383.3932061,2147,2876,8
1789464383.39453,2054,2876,8
1789464383.3999271,1939,2875,8
1789464383.4004438,2018,2876,8
1789464383.401226,2183,2876,8
1789464383.4036422,2130,2876,8
1789464383.40623,1872,2877,8
1789464383.408927,1930,2874,8
1789464383.409088,1858,2872,8
1789464383.411642,2093,2876,8
1789464383.412929,2489,2877,8
1789464383.41523,2271,2877,8
1789464383.4175391,2080,2874,8
1789464383.418824,2050,2876,8
1789464383.4213629,2112,2875,8
1789464383.422648,2177,2878,8
1789464383.4250371,2125,2876,8
1789464383.427199,2050,2876,8
1789464383.4292748,1950,2876,8
1789464383.431571,1752,2874,8
1789464383.4326148,1991,2875,8
1789464383.434676,2277,2879,8
1789464383.4367518,2246,2877,8
1789464383.439052,2168,2878,8
1789464383.441598,2110,2877,8
1789464383.4426491,1881,2874,8
1789464383.4449432,1970,2874,8
1789464383.447482,2126,2879,8
1789464383.4485278,2208,2878,8
1789464383.4526348,1976,2875,8
1789464383.453314,1817,2875,8
1789464383.455117,1862,2875,8
1789464383.456939,2011,2874,8
1789464383.460348,2190,2877,8
1789464383.461835,2427,2878,8
1789464383.463131,2227,2877,8
1789464383.465444,2045,2877,8
1789464383.466732,2120,2875,8
1789464383.469274,2206,2876,8
1789464383.471493,2151,2876,8
1789464383.472777,1773,2875,8
1789464383.475083,1638,2875,8
1789464383.477338,2021,2876,8
1789464383.4796538,2220,2877,8
1789464383.480705,2335,2876,8
1789464383.48301,2216,2877,8
1789464383.485173,2019,2875,8
1789464383.4874759,1579,2876,8
1789464383.488524,2109,2875,8
1789464383.490595,2640,2878,8
1789464383.492904,2503,2877,8
1789464383.495209,1971,2875,8
1789464383.497277,1807,2875,8
1789464383.498561,1770,2875,8
1789464383.503909,2063,2875,8
1789464383.504013,2313,2879,8
1789464383.505794,2635,2879,8
1789464383.507306,2318,2877,8
1789464383.510135,1947,2877,8
1789464383.511646,1832,2874,8
1789464383.513301,1906,2874,8
1789464383.514595,2046,2876,8
1789464383.516852,1952,2875,8
1789464383.519396,2014,2874,8
1789464383.520683,2218,2878,8
1789464383.5229561,2177,2876,8
1789464383.5252538,2045,2877,8
1789464383.526541,2130,2877,8
1789464383.528766,2140,2878,8
1789464383.531305,1999,2876,8
1789464383.532592,1831,2876,8
1789464383.534886,2063,2876,8
1789464383.537438,2222,2878,8
1789464383.538482,2284,2878,8
1789464383.541025,2213,2877,8
1789464383.542393,2134,2876,8
1789464383.5449338,2034,2877,8
1789464383.547364,1902,2875,8
1789464383.548416,2053,2877,8
1789464383.5507169,2281,2878,8
1789464383.5529091,1958,2874,8
1789464383.556865,2069,2877,8
1789464383.557302,2307,2875,8
1789464383.558826,2085,2876,8
1789464383.561402,1863,2874,8
1789464383.5632699,1411,2875,8
1789464383.564799,1093,2875,8
1789464383.5668201,2289,2875,8
1789464383.569123,3098,2880,8
1789464383.570422,2528,2878,8
1789464383.572972,2019,2877,8
1789464383.5753658,1984,2875,8
1789464383.576409,2166,2877,8
1789464383.57895,2168,2874,8
1789464383.581255,2376,2876,8
1789464383.582399,2196,2876,8
1789464383.5846982,1955,2875,8
1789464383.5872378,1424,2874,8
1789464383.5885298,1739,2872,8
1789464383.590828,2203,2877,8
1789464383.593367,2486,2877,8
1789464383.594563,2511,2877,8
1789464383.596861,2063,2875,8
1789464383.5994,2158,2877,8
1789464383.600683,2392,2878,8
1789464383.603224,2105,2877,8
1789464383.608715,1862,2874,8
1789464383.608831,1953,2876,8
1789464383.6096041,1965,2875,8
1789464383.6111639,1951,2874,8
1789464383.614176,1855,2875,8
1789464383.616603,1783,2874,8
1789464383.6167622,1993,2876,8
1789464383.619029,1964,2875,8
1789464383.6215801,2162,2877,8
1789464383.6228669,2470,2877,8
1789464383.625172,2231,2877,8
1789464383.626396,2021,2877,8
1789464383.628942,1911,2876,8
1789464383.631485,1917,2876,8
1789464383.6326559,2114,2876,8
1789464383.6351948,2615,2877,8
1789464383.637394,2375,2877,8
1789464383.638468,1831,2875,8
1789464383.6407628,1785,2875,8
1789464383.643303,2029,2876,8
1789464383.644587,2199,2877,8
1789464383.647125,2401,2877,8
1789464383.649323,2068,2876,8
1789464383.650393,1976,2875,8
1789464383.6527019,2045,2875,8
1789464383.6552398,1856,2874,8
1789464383.656532,1850,2876,8
1789464383.660107,2182,2875,8
1789464383.662221,2315,2877,8
1789464383.6624389,2341,2877,8
1789464383.665189,2288,2879,8
1789464383.666615,1966,2876,8
1789464383.669743,1998,2876,8
1789464383.671041,1980,2875,8
1789464383.6723552,2026,2878,8
1789464383.6749198,1855,2876,8
1789464383.6774669,1663,2874,8
1789464383.6785128,2093,2876,8
1789464383.680646,2371,2877,8
1789464383.6829498,2240,2878,8
1789464383.685246,1802,2876,8
1789464383.6864,1738,2876,8
1789464383.6887,1775,2875,8
1789464383.6912398,2273,2876,8
1789464383.692427,2768,2877,8
1789464383.694728,2188,2875,8
1789464383.69716,1815,2873,8
1789464383.698376,1976,2874,8
1789464383.700923,2312,2876,8
1789464383.7034628,2391,2878,8
1789464383.704513,2398,2877,8
1789464383.706812,2041,2877,8
1789464383.712522,1507,2874,8
1789464383.7129679,1691,2874,8
1789464383.7133949,1987,2877,8
1789464383.715795,2305,2878,8
1789464383.717315,2309,2878,8
1789464383.718888,2219,2877,8
1789464383.7207491,2020,2875,8
1789464383.723336,2161,2877,8
1789464383.7244868,2093,2877,8
1789464383.7268,1897,2874,8
1789464383.7291021,2050,2877,8
1789464383.7311711,2137,2878,8
1789464383.73246,2015,2877,8
1789464383.735002,1952,2875,8
1789464383.7363122,1870,2875,8
1789464383.73837,2008,2875,8
1789464383.740669,2004,2875,8
1789464383.743208,2056,2877,8
1789464383.744259,2291,2877,8
1789464383.746798,1728,2873,8
1789464383.7493372,2020,2877,8
1789464383.75062,2499,2878,8
1789464383.7531588,2328,2878,8
1789464383.754442,2172,2877,8
1789464383.7567391,2071,2874,8
1789464383.759032,1824,2875,8
1789464383.761324,1434,2874,8
1789464383.762481,2027,2874,8
1789464383.766277,2653,2878,8
1789464383.766765,2227,2876,8
1789464383.768519,2209,2875,8
1789464383.771304,2113,2876,8
1789464383.7742772,2234,2877,8
1789464383.774411,2313,2878,8
1789464383.776973,2288,2877,8
1789464383.778262,2115,2874,8
1789464383.7805882,1824,2875,8
1789464383.782896,1790,2874,8
1789464383.785197,1940,2877,8
1789464383.7862778,1883,2874,8
1789464383.7885811,1989,2875,8
1789464383.7908869,2237,2878,8
1789464383.792267,2265,2878,8
1789464383.794415,2158,2877,8
1789464383.796489,2070,2877,8
1789464383.79904,2012,2874,8
1789464383.800332,1995,2875,8
1789464383.802879,1989,2876,8
1789464383.804275,2011,2874,8
1789464383.806817,2070,2876,8
1789464383.809362,2170,2877,8
1789464383.810646,2155,2876,8
1789464383.812948,2022,2874,8
1789464383.814494,2066,2877,8
1789464383.8186371,2137,2877,8
1789464383.818748,2057,2877,8
1789464383.820431,1991,2873,8
1789464383.823122,2099,2876,8
1789464383.825044,2176,2876,8
1789464383.827008,2072,2877,8
1789464383.8288581,2162,2877,8
1789464383.83118,2119,2877,8
1789464383.832284,1951,2875,8
1789464383.83451,1926,2875,8
1789464383.83664,2095,2878,8
1789464383.838943,2138,2877,8
1789464383.841033,2127,2878,8
1789464383.8433459,2079,2876,8
1789464383.844629,2066,2876,8
1789464383.846879,2089,2878,8
1789464383.8491771,2113,2877,8
1789464383.8504589,2126,2878,8
1789464383.852513,2047,2875,8
1789464383.855052,2061,2877,8
1789464383.8563368,2102,2876,8
1789464383.8584661,2139,2878,8
1789464383.861009,2073,2876,8
1789464383.862299,2014,2873,8
1789464383.864606,1994,2875,8
1789464383.867145,1900,2876,8
1789464383.86852,2043,2875,8
1789464383.8722188,2070,2875,8
1789464383.872949,2129,2878,8
1789464383.875322,2138,2876,8
1789464383.877279,2116,2877,8
1789464383.8785331,2077,2876,8
1789464383.880468,2104,2879,8
1789464383.8830369,2155,2875,8
1789464383.8843231,2128,2876,8
1789464383.886881,2066,2875,8
1789464383.889465,2051,2876,8
1789464383.8906722,2104,2875,8
1789464383.893213,2080,2876,8
1789464383.894502,2031,2876,8
1789464383.897043,2047,2874,8
1789464383.8983302,2123,2876,8
1789464383.9006348,2115,2875,8
1789464383.903179,2074,2876,8
1789464383.904365,2029,2876,8
1789464383.906662,2098,2876,8
1789464383.908969,2088,2875,8
1789464383.9112918,2049,2876,8
1789464383.9123452,2002,2873,8
1789464383.914645,2049,2875,8
1789464383.916714,2069,2876,8
1789464383.919017,2029,2876,8
1789464383.920301,2039,2875,8
1789464383.924624,2096,2877,8
1789464383.92544,2065,2877,8
1789464383.927087,2105,2876,8
1789464383.9288802,2100,2877,8
1789464383.931154,2090,2878,8
1789464383.93291,2087,2877,8
1789464383.934724,2142,2876,8
1789464383.9370391,2087,2875,8
1789464383.938329,2091,2877,8
1789464383.9408698,2109,2876,8
1789464383.94317,2078,2876,8
1789464383.9443688,1983,2875,8
1789464383.9468951,2009,2874,8
1789464383.949203,2078,2876,8
1789464383.950359,2122,2875,8
1789464383.9529002,2126,2880,8
1789464383.9541829,2052,2875,8
1789464383.956724,2121,2876,8
1789464383.9590552,2117,2876,8
1789464383.960161,2068,2875,8
1789464383.962467,2036,2877,8
1789464383.9647622,2084,2875,8
1789464383.9673102,2057,2875,8
1789464383.9685938,2094,2876,8
1789464383.971133,2049,2875,8
1789464383.972417,2059,2876,8
1789464383.978055,2071,2876,8
1789464383.9784682,2091,2875,8
1789464383.979094,2040,2877,8
1789464383.981784,2063,2875,8
1789464383.983547,2112,2875,8
1789464383.984709,2105,2875,8
1789464383.986584,2083,2876,8
1789464383.989717,2081,2877,8
1789464383.991005,2119,2875,8
1789464383.9922922,2092,2876,8
1789464383.994838,2070,2876,8
1789464383.996156,2030,2874,8
1789464383.9987159,2071,2877,8
1789464384.000948,2119,2876,8
1789464384.0022342,2095,2876,8
1789464384.0046709,2061,2878,8
1789464384.007211,2098,2875,8
1789464384.008262,2094,2876,8
1789464384.010804,2069,2875,8
1789464384.013116,2043,2876,8
1789464384.01416,2053,2875,8
1789464384.016468,2082,2876,8
1789464384.018774,2075,2876,8
1789464384.020843,2060,2874,8
1789464384.0221639,2093,2876,8
1789464384.024711,2132,2875,8
1789464384.02701,2096,2876,8
1789464384.031532,2039,2876,8
1789464384.032195,2065,2876,8
1789464384.033272,2098,2875,8
1789464384.034549,2104,2875,8
1789464384.0375638,2066,2876,8
1789464384.039499,2066,2876,8
1789464384.041636,2131,2876,8
1789464384.042751,2119,2876,8
1789464384.045325,2065,2876,8
1789464384.0463722,2048,2877,8
1789464384.0486798,2068,2875,8
1789464384.0512252,2104,2875,8
1789464384.052512,2080,2875,8
1789464384.054967,2068,2877,8
1789464384.0572631,2124,2876,8
1789464384.0585458,2071,2875,8
1789464384.060619,2085,2877,8
1789464384.062919,2057,2876,8
1789464384.065003,2098,2877,8
1789464384.0670998,2106,2877,8
1789464384.0681548,2090,2876,8
1789464384.070697,2071,2875,8
1789464384.0730119,2043,2878,8
1789464384.074304,2142,2876,8
1789464384.076848,2098,2876,8
1789464384.0781472,2039,2876,8
1789464384.0827808,2032,2874,8
1789464384.085032,2108,2876,8
1789464384.085145,2094,2876,8
1789464384.0869288,2091,2876,8
1789464384.08918,2074,2877,8
1789464384.091051,2114,2876,8
1789464384.092788,2122,2876,8
1789464384.0941381,2043,2876,8
1789464384.096698,2037,2874,8
1789464384.0990028,2052,2876,8
1789464384.100289,2098,2876,8
1789464384.102526,2079,2876,8
1789464384.104821,2026,2875,8
1789464384.106112,2081,2876,8
1789464384.1086662,2095,2876,8
1789464384.111254,2034,2875,8
1789464384.1125498,2054,2876,8
1789464384.114609,2046,2876,8
1789464384.116914,2053,2876,8
1789464384.1192188,2057,2875,8
1789464384.120429,2054,2876,8
1789464384.122976,2062,2876,8
1789464384.1242628,2121,2875,8
1789464384.12657,2075,2876,8
1789464384.128878,2042,2875,8
1789464384.132805,2040,2874,8
1789464384.133278,2080,2876,8
1789464384.1348321,2113,2876,8
1789464384.136702,2080,2876,8
1789464384.138984,2021,2875,8
1789464384.140769,2093,2876,8
1789464384.14254,2077,2875,8
1789464384.144927,2031,2875,8
1789464384.146224,2009,2874,8
1789464384.148767,2077,2874,8
1789464384.151263,2091,2876,8
1789464384.152302,2062,2876,8
1789464384.154596,2046,2874,8
1789464384.1567512,2075,2877,8
1789464384.158109,2093,2876,8
1789464384.1601658,2051,2876,8
1789464384.162719,2051,2877,8
1789464384.1652648,2065,2875,8
1789464384.16655,2112,2876,8
1789464384.169039,2078,2876,8
1789464384.170333,2051,2875,8
1789464384.172877,2066,2877,8
1789464384.174166,2112,2876,8
1789464384.176287,2086,2876,8
1789464384.178588,2050,2875,8
1789464384.183557,2035,2875,8
1789464384.184042,2073,2875,8
1789464384.1841311,2085,2876,8
1789464384.18771,2065,2876,8
1789464384.19004,2056,2875,8
1789464384.190161,2087,2877,8
1789464384.193538,2103,2876,8
1789464384.194586,2043,2875,8
1789464384.1971352,2032,2876,8
1789464384.198432,2075,2876,8
1789464384.200744,2100,2876,8
1789464384.203053,2106,2876,8
1789464384.2043421,2052,2875,8
1789464384.206885,2115,2877,8
1789464384.208144,2124,2876,8
1789464384.2104352,2068,2876,8
1789464384.212737,2049,2876,8
1789464384.214032,2056,2874,8
1789464384.216255,2107,2876,8
1789464384.218555,2120,2876,8
1789464384.221096,2070,2875,8
1789464384.2223868,2086,2877,8
1789464384.224689,2130,2876,8
1789464384.227197,2097,2875,8
1789464384.228488,2015,2876,8
1789464384.230554,2051,2875,8
1789464384.235025,2090,2876,8
1789464384.235483,2109,2876,8
1789464384.237001,2095,2876,8
1789464384.2387142,2070,2877,8
1789464384.241802,2129,2875,8
1789464384.243548,2130,2875,8
1789464384.2453709,2094,2876,8
1789464384.246668,2054,2877,8
1789464384.248047,2075,2875,8
1789464384.2505999,2105,2875,8
1789464384.252893,2086,2875,8
1789464384.254025,2062,2874,8
1789464384.2565691,2090,2877,8
1789464384.2588701,2121,2875,8
1789464384.260154,2089,2876,8
1789464384.262696,2043,2875,8
1789464384.264987,2061,2875,8
1789464384.266034,2120,2875,8
1789464384.268468,2119,2876,8
1789464384.2710102,2076,2876,8
1789464384.2722938,2069,2875,8
1789464384.2745962,2123,2876,8
1789464384.27714,2116,2875,8
1789464384.278197,2040,2875,8
1789464384.2805068,2044,2874,8
1789464384.2828171,2104,2876,8
1789464384.28512,2119,2876,8
1789464384.2891421,2068,2876,8
1789464384.289589,2020,2874,8
1789464384.29158,2095,2877,8
1789464384.293149,2096,2876,8
1789464384.294636,2071,2876,8
1789464384.297948,2033,2877,8
1789464384.298305,2071,2875,8
1789464384.300832,2097,2877,8
1789464384.302968,2088,2876,8
1789464384.304272,2043,2876,8
1789464384.30658,2086,2877,8
1789464384.3091002,2113,2876,8
1789464384.310154,2073,2875,8
1789464384.312351,2028,2876,8
1789464384.314894,2039,2875,8
1789464384.316183,2090,2876,8
1789464384.3182561,2110,2876,8
1789464384.320553,2044,2875,8
1789464384.323095,2079,2877,8
1789464384.324378,2119,2876,8
1789464384.3269188,2083,2875,8
1789464384.3282208,2053,2875,8
1789464384.330521,2025,2874,8
1789464384.332833,2084,2876,8
1789464384.335135,2096,2876,8
1789464384.336373,2072,2876,8
1789464384.339096,2052,2875,8
1789464384.342571,2112,2877,8
1789464384.342731,2121,2875,8
1789464384.3450098,2069,2875,8
1789464384.347418,2014,2873,8
1789464384.351501,2079,2876,8
1789464384.351669,2098,2875,8
1789464384.353601,2096,2875,8
1789464384.3548958,2078,2878,8
1789464384.356102,2108,2877,8
1789464384.358664,2117,2876,8
1789464384.3600278,2076,2875,8
1789464384.362263,2038,2876,8
1789464384.3647768,2065,2875,8
1789464384.367074,2078,2876,8
1789464384.368358,2109,2875,8
1789464384.3708951,2068,2874,8
1789464384.3721821,2065,2877,8
1789464384.3745458,2096,2875,8
1789464384.376842,2103,2875,8
1789464384.3781261,2075,2877,8
1789464384.380193,2059,2877,8
1789464384.3825002,2118,2877,8
1789464384.38456,2132,2876,8
1789464384.3868601,2073,2875,8
1789464384.38922,2045,2875,8
1789464384.39051,2102,2877,8
1789464384.392861,2119,2875,8
1789464384.397334,2058,2875,8
1789464384.397755,2031,2877,8
1789464384.3997388,2034,2875,8
1789464384.401349,2068,2876,8
1789464384.404216,2066,2876,8
1789464384.4043899,2052,2876,8
1789464384.407653,2100,2877,8
1789464384.408789,2100,2875,8
1789464384.4111109,2065,2875,8
1789464384.412401,2050,2876,8
1789464384.4147048,2077,2876,8
1789464384.4159958,2112,2875,8
1789464384.41829,2140,2877,8
1789464384.4208372,2068,2876,8
1789464384.4220002,2083,2878,8
1789464384.424541,2129,2877,8
1789464384.427082,2121,2876,8
1789464384.428129,2051,2876,8
1789464384.430433,2067,2877,8
1789464384.432739,2086,2875,8
1789464384.434033,2089,2876,8
1789464384.436191,2059,2875,8
1789464384.4382389,2030,2875,8
1789464384.440546,2121,2877,8
1789464384.4429471,2096,2876,8
1789464384.444031,2049,2876,8
1789464384.447953,2023,2876,8
1789464384.448364,2033,2874,8
1789464384.450494,2092,2877,8
1789464384.453218,2111,2876,8
1789464384.4559538,2060,2875,8
1789464384.456079,2098,2877,8
1789464384.458658,2132,2876,8
1789464384.4600372,2027,2876,8
1789464384.462353,2043,2876,8
1789464384.464779,2061,2875,8
1789464384.467086,2115,2875,8
1789464384.468378,2145,2879,8
1789464384.470644,2078,2875,8
1789464384.473193,2024,2875,8
1789464384.4744802,2090,2876,8
1789464384.476773,2117,2875,8
1789464384.4790158,2108,2874,8
1789464384.4803042,2002,2874,8
1789464384.4826088,2149,2878,8
1789464384.4849439,2102,2875,8
1789464384.486228,2043,2875,8
1789464384.488535,1984,2875,8
1789464384.491075,2034,2876,8
1789464384.492214,2109,2877,8
1789464384.494755,2069,2876,8
1789464384.500038,2031,2876,8
1789464384.50037,2063,2878,8
1789464384.500737,2089,2875,8
1789464384.502401,2088,2876,8
1789464384.505156,2072,2876,8
1789464384.506643,2102,2877,8
1789464384.508298,2111,2875,8
1789464384.510198,2089,2875,8
1789464384.512501,2020,2876,8
1789464384.515046,1990,2874,8
1789464384.5163321,2036,2875,8
1789464384.518809,2077,2876,8
1789464384.520094,2104,2878,8
1789464384.522636,2049,2878,8
1789464384.523922,2101,2875,8
1789464384.5262258,2107,2876,8
1789464384.528523,2070,2877,8
1789464384.529908,2043,2876,8
1789464384.532446,2080,2875,8
1789464384.534518,2110,2876,8
1789464384.535891,2084,2876,8
1789464384.5384378,2052,2874,8
1789464384.540884,2131,2877,8
1789464384.54217,2128,2876,8
1789464384.544642,2083,2876,8
1789464384.545934,2072,2876,8
1789464384.548009,2108,2877,8
1789464384.550072,2142,2877,8
1789464384.553736,2109,2875,8
1789464384.556373,2105,2877,8
1789464384.557665,2115,2878,8
1789464384.559082,2152,2877,8
1789464384.560758,2114,2877,8
1789464384.562496,2076,2877,8
1789464384.564296,2059,2875,8
1789464384.566615,2126,2878,8
1789464384.567914,2145,2877,8
1789464384.57024,2086,2875,8
1789464384.572513,2092,2878,8
1789464384.5745869,2169,2877,8
1789464384.575872,2154,2877,8
1789464384.5781739,2082,2876,8
1789464384.580244,2076,2877,8
1789464384.582793,2112,2878,8
1789464384.583882,2146,2878,8
1789464384.586174,2139,2877,8
1789464384.588712,2083,2878,8
1789464384.5910568,2107,2877,8
1789464384.592344,2142,2876,8
1789464384.594778,2108,2878,8
1789464384.596062,2082,2875,8
1789464384.5986009,2092,2878,8
1789464384.6006541,2101,2875,8
1789464384.6028202,2133,2877,8
1789464384.6074638,2119,2877,8
1789464384.6078389,2122,2876,8
1789464384.608942,2155,2876,8
1789464384.611605,2130,2877,8
1789464384.614469,2059,2877,8
1789464384.614607,2061,2875,8
1789464384.6163251,2107,2875,8
1789464384.618973,2108,2874,8
1789464384.62026,2068,2874,8
1789464384.622808,2067,2877,8
1789464384.6239202,2108,2877,8
1789464384.626472,2097,2876,8
1789464384.6285398,2053,2876,8
1789464384.6306062,2059,2876,8
1789464384.6327791,2086,2875,8
1789464384.633903,2126,2875,8
1789464384.635971,2093,2875,8
1789464384.6385121,2045,2875,8
1789464384.639904,2098,2876,8
1789464384.642213,2106,2876,8
1789464384.644277,2056,2876,8
1789464384.646346,2040,2876,8
1789464384.648415,2047,2876,8
1789464384.6507149,2076,2876,8
1789464384.653027,2084,2876,8
1789464384.654312,2059,2876,8
1789464384.65678,2084,2877,8
1789464384.6608372,2118,2876,8
1789464384.6612601,2108,2876,8
1789464384.663053,2021,2875,8
1789464384.664598,2018,2875,8
1789464384.667267,2074,2876,8
1789464384.669055,2092,2876,8
1789464384.671019,2072,2877,8
1789464384.672076,2057,2877,8
1789464384.674388,2099,2876,8
1789464384.676688,2102,2876,8
1789464384.677972,2064,2875,8
1789464384.680278,2043,2874,8
1789464384.682584,2120,2878,8
1789464384.683885,2119,2876,8
1789464384.686197,2075,2875,8
1789464384.68835,2042,2874,8
1789464384.690655,2106,2876,8
1789464384.692876,2137,2875,8
1789464384.6939158,2093,2875,8
1789464384.696453,2051,2876,8
1789464384.698999,2064,2873,8
1789464384.700284,2099,2875,8
1789464384.702823,2087,2876,8
1789464384.704107,2073,2875,8
1789464384.70642,2097,2876,8
1789464384.7089589,2093,2875,8
1789464384.7100081,2048,2875,8
1789464384.71423,2017,2877,8
1789464384.714346,2007,2875,8
1789464384.7163131,2050,2876,8
1789464384.7205288,2079,2876,8
1789464384.720727,2045,2875,8
1789464384.72229,2052,2877,8
1789464384.724237,2086,2876,8
1789464384.7267919,2086,2876,8
1789464384.728082,2047,2876,8
1789464384.730623,2035,2874,8
1789464384.7319071,2103,2877,8
1789464384.7343192,2096,2876,8
1789464384.7368588,2049,2874,8
1789464384.738144,2031,2875,8
1789464384.740443,2072,2878,8
1789464384.742741,2137,2875,8
1789464384.743892,2088,2876,8
1789464384.746439,2047,2875,8
1789464384.748984,2057,2875,8
1789464384.75027,2098,2877,8
1789464384.752372,2004,2875,8
1789464384.75491,2058,2874,8
1789464384.756206,2141,2876,8
1789464384.758278,2125,2876,8
1789464384.7605782,2047,2876,8
1789464384.761892,2053,2875,8
1789464384.7670789,2046,2875,8
1789464384.767498,2085,2876,8
1789464384.769182,2144,2876,8
1789464384.771041,2121,2878,8
1789464384.773605,2075,2876,8
1789464384.7751849,2130,2876,8
1789464384.777214,2087,2875,8
1789464384.778506,1962,2873,8
1789464384.780582,2010,2876,8
1789464384.781905,2098,2876,8
1789464384.784449,2099,2876,8
1789464384.786968,1936,2875,8
1789464384.7882519,1924,2875,8
1789464384.7907908,2147,2876,8
1789464384.791902,2236,2877,8
1789464384.794216,2164,2875,8
1789464384.796268,2035,2877,8
1789464384.798671,2035,2875,8
1789464384.799961,2023,2875,8
1789464384.8022609,2125,2876,8
1789464384.804801,2165,2878,8
1789464384.805912,2057,2877,8
1789464384.80846,1675,2873,8
1789464384.811015,1846,2874,8
1789464384.8123012,2211,2877,8
1789464384.8149629,2284,2878,8
1789464384.8189921,2136,2878,8
1789464384.8197691,2168,2878,8
1789464384.820786,2075,2875,8
1789464384.822597,2052,2876,8
1789464384.825022,2221,2877,8
1789464384.8263838,2172,2877,8
1789464384.8289258,1929,2872,8
1789464384.830213,2026,2877,8
1789464384.832768,1856,2874,8
1789464384.834056,1978,2875,8
1789464384.836436,2096,2874,8
1789464384.8389812,1882,2875,8
1789464384.840031,2169,2877,8
1789464384.842328,2241,2877,8
1789464384.8443918,2272,2877,8
1789464384.846934,2155,2876,8
1789464384.848035,2194,2878,8
1789464384.8505821,2160,2877,8
1789464384.8518689,2194,2878,8
1789464384.854409,2108,2875,8
1789464384.8567019,2066,2875,8
1789464384.859002,2088,2877,8
1789464384.860121,1949,2877,8
1789464384.8621702,1995,2877,8
1789464384.86741,1839,2874,8
1789464384.868153,2022,2875,8
1789464384.868546,2074,2876,8
1789464384.871566,2226,2877,8
1789464384.8741188,2019,2875,8
1789464384.8755908,2075,2877,8
1789464384.877586,2177,2877,8
1789464384.878887,2179,2877,8
1789464384.8799412,2077,2876,8
1789464384.882261,2003,2875,8
1789464384.884803,2087,2877,8
1789464384.885846,2074,2875,8
1789464384.888006,2073,2874,8
1789464384.890512,2157,2877,8
1789464384.891799,2012,2877,8
1789464384.894183,2118,2876,8
1789464384.8966432,1914,2874,8
1789464384.898855,1944,2874,8
1789464384.900038,1749,2875,8
1789464384.9025788,1682,2876,8
1789464384.904639,2009,2874,8
1789464384.905924,2607,2878,8
1789464384.90848,2474,2877,8
1789464384.910741,2127,2875,8
1789464384.912042,2087,2877,8
1789464384.914357,2262,2878,8
1789464384.919425,2260,2877,8
1789464384.91984,2128,2877,8
1789464384.9215202,1957,2876,8
1789464384.923449,2052,2878,8
1789464384.924809,1818,2874,8
1789464384.92748,1371,2873,8
1789464384.9293172,1590,2873,8
1789464384.930627,2120,2876,8
1789464384.9317849,2321,2877,8
1789464384.9343412,2275,2877,8
1789464384.936894,2142,2878,8
1789464384.937943,2251,2877,8
1789464384.9400089,2007,2875,8
1789464384.942058,1767,2875,8
1789464384.944233,2416,2877,8
1789464384.9465249,2668,2879,8
1789464384.948828,2191,2877,8
1789464384.949873,1987,2873,8
1789464384.952178,2150,2877,8
1789464384.954717,2083,2875,8
1789464384.956001,1980,2874,8
1789464384.958516,2060,2876,8
1789464384.9597812,2233,2876,8
1789464384.962337,1915,2876,8
1789464384.964641,1723,2874,8
1789464384.96913,1869,2874,8
1789464384.969962,2036,2876,8
1789464384.971691,2144,2877,8
1789464384.971835,2394,2878,8
1789464384.974446,1668,2875,8
1789464384.976325,1861,2875,8
1789464384.9778,2108,2877,8
1789464384.980442,787,2874,8
1789464384.9827552,1790,2874,8
1789464384.984055,3159,2880,8
1789464384.9861891,2955,2879,8
1789464384.988499,2730,2878,8
1789464384.9898,2597,2878,8
1789464384.992099,2497,2878,8
1789464384.9942331,2193,2874,8
1789464384.996777,1316,2876,8
1789464384.997826,1868,2875,8
1789464384.999907,2455,2877,8
1789464385.002288,1496,2874,8
1789464385.0043619,1079,2873,8
1789464385.0066628,1694,2873,8
1789464385.0077682,2259,2878,8
1789464385.010077,2514,2877,8
1789464385.0126212,2986,2880,8
1789464385.0139132,3427,2880,8
1789464385.016015,2705,2878,8
1789464385.0185568,1991,2874,8
1789464385.0228832,1923,2875,8
1789464385.023346,1931,2875,8
1789464385.025586,1895,2875,8
1789464385.027421,1755,2875,8
1789464385.02877,1972,2873,8
1789464385.0306041,1966,2876,8
1789464385.032366,1757,2873,8
1789464385.0341032,1364,2874,8
1789464385.036404,1925,2875,8
1789464385.0390148,2438,2877,8
1789464385.040072,2518,2879,8
1789464385.04238,2310,2878,8
1789464385.0437372,2132,2878,8
1789464385.046378,1802,2874,8
1789464385.048691,1978,2875,8
1789464385.049979,2237,2877,8
1789464385.0522869,2003,2875,8
1789464385.054828,2001,2875,8
1789464385.055875,1970,2877,8
1789464385.0581691,2031,2876,8
1789464385.06022,2055,2875,8
1789464385.062517,2117,2876,8
1789464385.064821,1899,2875,8
1789464385.066106,1967,2874,8
1789464385.068405,2202,2877,8
1789464385.070861,2146,2877,8
1789464385.07439,1968,2876,8
1789464385.074718,2004,2877,8
1789464385.076475,1967,2876,8
1789464385.0778759,2075,2877,8
1789464385.080674,2101,2878,8
1789464385.082315,2219,2877,8
1789464385.085141,2094,2875,8
1789464385.086428,1673,2874,8
1789464385.087789,1958,2875,8
1789464385.0898829,2442,2877,8
1789464385.092191,2324,2876,8
1789464385.0944908,2005,2876,8
1789464385.0957801,1930,2873,8
1789464385.0983229,2084,2875,8
1789464385.100811,2112,2876,8
1789464385.1020958,2190,2875,8
1789464385.104636,2163,2877,8
1789464385.105921,2026,2878,8
1789464385.1084611,1992,2877,8
1789464385.109779,1998,2876,8
1789464385.112319,2076,2876,8
1789464385.114624,2023,2875,8
1789464385.1159081,2035,2876,8
1789464385.118447,2076,2876,8
1789464385.119757,2070,2875,8
1789464385.1220632,2109,2878,8
1789464385.1263528,2016,2875,8
1789464385.126687,1992,2875,8
1789464385.1285279,1977,2876,8
1789464385.130333,2132,2878,8
1789464385.133019,2105,2876,8
1789464385.134846,1901,2876,8
1789464385.1367848,2253,2878,8
1789464385.138078,2176,2876,8
1789464385.140262,2057,2876,8
1789464385.142805,2061,2876,8
1789464385.1440902,2025,2876,8
1789464385.1462321,1934,2875,8
1789464385.148515,1914,2877,8
1789464385.150816,2013,2876,8
1789464385.152101,2012,2875,8
1789464385.15463,2140,2877,8
1789464385.155915,2253,2877,8
1789464385.158454,2101,2876,8
1789464385.1605172,2151,2876,8
1789464385.161803,2133,2877,8
1789464385.1639109,2157,2876,8
1789464385.166466,2263,2878,8
1789464385.1677618,2064,2877,8
1789464385.1699562,1963,2875,8
1789464385.1724958,1963,2875,8
1789464385.173784,1996,2877,8
1789464385.1758552,1925,2875,8
1789464385.180725,2157,2878,8
1789464385.181163,2111,2876,8
1789464385.182868,2152,2878,8
1789464385.1849668,2078,2876,8
1789464385.187464,2040,2876,8
1789464385.189186,1977,2874,8
1789464385.19083,2066,2876,8
1789464385.1921332,2063,2876,8
1789464385.194535,1925,2876,8
1789464385.1958232,1825,2873,8
1789464385.198362,2262,2877,8
1789464385.200754,2258,2878,8
1789464385.201858,2184,2878,8
1789464385.2044039,2160,2879,8
1789464385.206667,2180,2876,8
1789464385.207716,2120,2876,8
1789464385.2100182,2094,2878,8
1789464385.212321,2139,2877,8
1789464385.21473,2077,2877,8
1789464385.2157812,1984,2875,8
1789464385.217843,1861,2875,8
1789464385.219906,1922,2875,8
1789464385.222446,2091,2878,8
1789464385.2237298,1985,2876,8
1789464385.226269,2214,2877,8
1789464385.228574,2304,2876,8
1789464385.229864,2053,2878,8
1789464385.234336,2031,2874,8
1789464385.234765,2160,2876,8
1789464385.236446,2229,2879,8
1789464385.238226,2025,2876,8
1789464385.2423198,2013,2874,8
1789464385.242506,2141,2876,8
1789464385.244611,2058,2876,8
1789464385.245901,1904,2874,8
1789464385.248456,1916,2876,8
1789464385.250525,2111,2875,8
1789464385.251689,2130,2875,8
1789464385.2542348,2140,2878,8
1789464385.2565398,2155,2876,8
1789464385.257828,2149,2877,8
1789464385.260371,1886,2873,8
1789464385.26273,1969,2874,8
1789464385.263778,2134,2879,8
1789464385.2663171,2180,2878,8
1789464385.268539,2099,2875,8
1789464385.269822,2032,2875,8
1789464385.272361,1916,2875,8
1789464385.2744331,2099,2877,8
1789464385.275724,2056,2876,8
1789464385.278037,2098,2877,8
1789464385.2803462,2158,2877,8
1789464385.2856472,2126,2877,8
1789464385.286037,2159,2878,8
1789464385.286401,2101,2875,8
1789464385.287976,2080,2875,8
1789464385.290761,2120,2877,8
1789464385.292269,2108,2877,8
1789464385.294004,2022,2876,8
1789464385.297079,1855,2874,8
1789464385.298124,1998,2874,8
1789464385.300684,2158,2878,8
1789464385.3018408,1875,2875,8
1789464385.304381,1994,2875,8
1789464385.306775,2215,2878,8
1789464385.308064,2211,2878,8
1789464385.310608,2182,2876,8
1789464385.311893,2116,2877,8
1789464385.314433,2018,2875,8
1789464385.3157172,2137,2877,8
1789464385.317947,2081,2875,8
1789464385.3202538,2023,2875,8
1789464385.322357,2099,2877,8
1789464385.324425,2125,2877,8
1789464385.3257082,2084,2876,8
1789464385.328005,2064,2878,8
1789464385.3300722,1997,2875,8
1789464385.3323781,2055,2875,8
1789464385.334625,2089,2876,8
1789464385.3387089,1942,2876,8
1789464385.339096,1949,2874,8
1789464385.342179,2150,2876,8
1789464385.3428538,2306,2877,8
1789464385.344396,2145,2875,8
1789464385.347688,2042,2877,8
1789464385.347818,2089,2877,8
1789464385.350492,2086,2876,8
1789464385.351719,2155,2876,8
1789464385.3537862,2176,2878,8
1789464385.355843,2081,2876,8
1789464385.358042,2031,2876,8
1789464385.3603451,1953,2875,8
1789464385.362441,2018,2876,8
1789464385.364501,2068,2877,8
1789464385.365644,2062,2875,8
1789464385.367703,1986,2875,8
1789464385.369996,2100,2875,8
1789464385.372301,2127,2878,8
1789464385.373662,2140,2877,8
1789464385.375968,2105,2876,8
1789464385.378516,2019,2875,8
1789464385.379801,2021,2876,8
1789464385.38215,2114,2875,8
1789464385.3846889,2081,2876,8
1789464385.38573,2082,2876,8
1789464385.388268,2086,2875,8
1789464385.392191,2090,2877,8
1789464385.392881,2072,2875,8
1789464385.394953,2049,2875,8
1789464385.3966599,2049,2877,8
1789464385.398439,2026,2875,8
1789464385.401294,2059,2876,8
1789464385.402913,2135,2876,8
1789464385.404205,2083,2875,8
1789464385.406751,2074,2876,8
1789464385.4078012,2146,2875,8
1789464385.409864,2080,2875,8
1789464385.4124029,2043,2875,8
1789464385.4147,1997,2874,8
1789464385.415963,2059,2876,8
1789464385.418505,2130,2876,8
1789464385.419639,2174,2878,8
1789464385.422184,2101,2878,8
1789464385.424494,2031,2878,8
1789464385.4256089,2116,2875,8
1789464385.427674,2073,2876,8
1789464385.4297621,2046,2877,8
1789464385.4320698,2090,2875,8
1789464385.43461,2101,2876,8
1789464385.435701,2088,2876,8
1789464385.438237,2028,2875,8
1789464385.440809,2044,2876,8
1789464385.4421,2112,2877,8
1789464385.446372,2011,2877,8
1789464385.4471989,1956,2874,8
1789464385.4491022,2106,2877,8
1789464385.450546,2157,2879,8
1789464385.45205,2016,2876,8
1789464385.4551811,2006,2875,8
1789464385.4571211,2133,2877,8
1789464385.458433,2158,2877,8
1789464385.459727,2118,2876,8
1789464385.46228,2015,2876,8
1789464385.464562,2130,2878,8
1789464385.465642,2183,2877,8
1789464385.4681869,2102,2877,8
1789464385.4702458,2066,2876,8
1789464385.4728189,2034,2875,8
1789464385.4741042,2058,2877,8
1789464385.476417,2071,2876,8
1789464385.478492,2015,2876,8
1789464385.4796312,2027,2876,8
1789464385.4817421,2029,2875,8
1789464385.483844,2082,2876,8
1789464385.4863842,2106,2876,8
1789464385.488787,2049,2876,8
1789464385.489835,2082,2878,8
1789464385.492376,2112,2876,8
1789464385.493661,2049,2876,8
1789464385.4959629,2010,2877,8
1789464385.50102,2037,2875,8
1789464385.502026,2076,2876,8
1789464385.503134,2091,2875,8
1789464385.504962,2077,2876,8
1789464385.506378,2053,2878,8
1789464385.5078669,2100,2876,8
1789464385.509674,2080,2875,8
1789464385.512321,2054,2876,8
1789464385.514403,2044,2876,8
1789464385.515624,2097,2875,8
1789464385.5179641,2106,2876,8
1789464385.520233,2079,2875,8
1789464385.5228028,2040,2876,8
1789464385.524097,2089,2877,8
1789464385.526164,2109,2875,8
1789464385.5287008,2069,2876,8
1789464385.530048,2062,2876,8
1789464385.532489,2056,2875,8
1789464385.533824,2071,2876,8
1789464385.536247,2109,2875,8
1789464385.5376241,2065,2876,8
1789464385.540069,2110,2876,8
1789464385.542426,2132,2876,8
1789464385.543728,2115,2876,8
1789464385.545856,2015,2875,8
1789464385.548244,2014,2875,8
1789464385.555386,2043,2876,8
1789464385.556572,2093,2877,8
1789464385.5567858,2077,2876,8
1789464385.556916,2066,2878,8
1789464385.558937,2082,2875,8
1789464385.561711,2109,2877,8
1789464385.563631,2063,2876,8
1789464385.564169,2041,2875,8
1789464385.566068,2108,2876,8
1789464385.568404,2108,2876,8
1789464385.569777,2090,2875,8
1789464385.572221,2077,2877,8
1789464385.573685,2090,2876,8
1789464385.6121411,2092,2876,8
1789464385.6196082,2094,2875,8
1789464385.619657,2053,2877,8
1789464385.6196852,2086,2875,8
1789464385.619712,2109,2876,8
1789464385.6197371,2115,2876,8
1789464385.619763,2062,2875,8
1789464385.619788,2115,2877,8
1789464385.6198132,2134,2877,8
1789464385.619838,2084,2876,8
1789464385.619863,2045,2876,8
1789464385.619888,2045,2874,8
1789464385.6199129,2089,2876,8
1789464385.619939,2118,2876,8
1789464385.619964,2083,2876,8
1789464385.619989,2035,2874,8
1789464385.6200151,2097,2876,8
1789464385.62004,2067,2876,8
1789464385.620065,2025,2876,8
1789464385.62009,2023,2874,8
1789464385.620115,2101,2876,8
1789464385.62014,2096,2875,8
1789464385.620165,2093,2877,8
1789464385.621927,2082,2878,8
1789464385.624577,2117,2876,8
1789464385.62571,2152,2876,8
1789464385.6279879,2104,2875,8
1789464385.6302028,2060,2876,8
1789464385.631506,2073,2876,8
1789464385.633985,2120,2876,8
1789464385.636408,2073,2876,8
1789464385.637507,2053,2875,8
1789464385.639918,2088,2876,8
1789464385.642528,2138,2876,8
1789464385.643747,2104,2876,8
1789464385.6461172,2071,2876,8
1789464385.647574,2066,2874,8
1789464385.6500869,2107,2876,8
1789464385.65251,2118,2876,8
1789464385.6536808,2095,2875,8
1789464385.656244,2065,2877,8
1789464385.664701,2119,2875,8
1789464385.664942,2092,2876,8
1789464385.671245,2050,2875,8
1789464385.6732318,2044,2878,8
1789464385.673824,2125,2878,8
1789464385.673861,2106,2876,8
1789464385.673889,2098,2876,8
1789464385.673933,2014,2876,8
1789464385.673968,2105,2877,8
1789464385.676281,2095,2876,8
1789464385.677577,2044,2875,8
1789464385.6798909,2035,2876,8
1789464385.682186,2046,2876,8
1789464385.6842802,2102,2876,8
1789464385.686341,2130,2878,8
1789464385.6883898,2098,2879,8
1789464385.6894898,2122,2877,8
1789464385.692032,2114,2875,8
1789464385.694345,2124,2877,8
1789464385.696429,2047,2877,8
1789464385.6976929,2024,2875,8
1789464385.6998599,2069,2876,8
1789464385.702164,2074,2875,8
1789464385.703514,2058,2875,8
1789464385.7060711,2064,2876,8
1789464385.708388,2131,2876,8
1789464385.70953,2109,2875,8
1789464385.711738,2034,2876,8
1789464385.7175,2015,2875,8
1789464385.7177038,2082,2875,8
1789464385.719021,2107,2876,8
1789464385.7208,2063,2875,8
1789464385.72449,2081,2877,8
1789464385.724649,2166,2875,8
1789464385.7260852,2169,2875,8
1789464385.7276878,2093,2875,8
1789464385.7302442,2087,2876,8
1789464385.731545,2146,2878,8
1789464385.7339919,2149,2876,8
1789464385.736584,2112,2876,8
1789464385.7376409,2057,2875,8
1789464385.739962,2088,2878,8
1789464385.742511,2090,2876,8
1789464385.743561,2111,2876,8
1789464385.7458508,2066,2877,8
1789464385.7481868,2096,2878,8
1789464385.750572,2165,2877,8
1789464385.751632,2147,2878,8
1789464385.754174,2090,2876,8
1789464385.756238,2079,2876,8
1789464385.758668,2083,2876,8
1789464385.760042,2120,2875,8
1789464385.762182,2075,2876,8
1789464385.767752,2024,2875,8
1789464385.7725692,2046,2875,8
1789464385.773812,2096,2876,8
1789464385.777117,2101,2876,8
1789464385.77908,2063,2874,8
1789464385.779181,2129,2876,8
1789464385.7792718,2153,2877,8
1789464385.779395,2080,2875,8
1789464385.7795079,2057,2876,8
1789464385.781753,2055,2873,8
1789464385.78405,2076,2875,8
1789464385.786458,2131,2876,8
1789464385.787638,2076,2875,8
1789464385.790185,2069,2876,8
1789464385.791487,2129,2875,8
1789464385.793538,2155,2877,8
1789464385.7956748,2071,2875,8
1789464385.797962,2043,2875,8
1789464385.8004951,2081,2876,8
1789464385.801576,2053,2876,8
1789464385.804266,2086,2875,8
1789464385.806378,2084,2877,8
1789464385.808448,2100,2876,8
1789464385.8094919,2053,2875,8
1789464385.8118532,2000,2875,8
1789464385.814226,2012,2875,8
1789464385.815538,2080,2875,8
1789464385.819813,2110,2876,8
1789464385.820572,2104,2876,8
1789464385.822598,2022,2875,8
1789464385.8240619,2080,2877,8
1789464385.8263109,2104,2875,8
1789464385.8298838,2062,2875,8
1789464385.8301098,2076,2877,8
1789464385.831738,2092,2877,8
1789464385.8341398,2124,2875,8
1789464385.83551,2144,2879,8
1789464385.837575,2047,2874,8
1789464385.8397288,2031,2875,8
1789464385.841852,2083,2877,8
1789464385.843919,2030,2877,8
1789464385.846462,2013,2876,8
1789464385.847542,2045,2874,8
1789464385.849762,2112,2878,8
1789464385.851952,2097,2876,8
1789464385.854079,2058,2877,8
1789464385.856147,2054,2875,8
1789464385.857525,2117,2876,8
1789464385.85984,2092,2877,8
1789464385.8623831,2039,2876,8
1789464385.863669,2009,2874,8
1789464385.8662112,2045,2876,8
1789464385.868269,2081,2875,8
1789464385.870386,2100,2878,8
1789464385.876242,2056,2875,8
1789464385.8766952,2123,2876,8
1789464385.877586,2091,2876,8
1789464385.877692,2086,2877,8
1789464385.880575,2061,2876,8
1789464385.8820999,2051,2875,8
1789464385.883758,2064,2876,8
1789464385.88566,2089,2876,8
1789464385.888253,2024,2876,8
1789464385.890456,2045,2877,8
1789464385.8917491,2124,2875,8
1789464385.894306,2097,2876,8
1789464385.895594,2021,2876,8
1789464385.898133,2029,2875,8
1789464385.900438,2087,2876,8
1789464385.901723,2088,2875,8
1789464385.904026,2066,2875,8
1789464385.906573,2058,2878,8
1789464385.9078689,2109,2876,8
1789464385.910188,2115,2877,8
1789464385.9114728,2049,2876,8
1789464385.913781,2016,2873,8
1789464385.916322,2074,2876,8
1789464385.9176052,2080,2876,8
1789464385.919905,2083,2875,8
1789464385.9222112,2062,2876,8
1789464385.923497,2099,2876,8
1789464385.926038,2088,2875,8
1789464385.931347,2073,2875,8
1789464385.931741,2045,2877,8
1789464385.932207,2074,2875,8
1789464385.9336488,2099,2876,8
1789464385.936554,2104,2876,8
1789464385.9380631,2064,2874,8
1789464385.940016,2063,2876,8
1789464385.9420102,2101,2876,8
1789464385.943396,2083,2875,8
1789464385.9457018,2063,2875,8
1789464385.947835,2033,2874,8
1789464385.9503858,2071,2875,8
1789464385.951672,2114,2876,8
1789464385.953881,2069,2876,8
1789464385.956175,2055,2877,8
1789464385.95848,2114,2876,8
1789464385.959764,2105,2877,8
1789464385.962303,2073,2875,8
1789464385.9634612,2046,2877,8
1789464385.9657578,2073,2877,8
1789464385.968163,2114,2876,8
1789464385.9694479,2086,2876,8
1789464385.971932,2038,2875,8
1789464385.974108,2114,2876,8
1789464385.9754,2114,2875,8
1789464385.977699,2109,2877,8
1789464385.9799979,2047,2876,8
1789464385.985635,2059,2876,8
1789464385.986331,2079,2876,8
1789464385.987402,2111,2875,8
1789464385.987502,2057,2876,8
1789464385.990399,2041,2876,8
1789464385.993349,2088,2876,8
1789464385.9934158,2081,2875,8
1789464385.995977,2042,2876,8
1789464385.998563,2018,2874,8
1789464385.999857,2079,2876,8
1789464386.002401,2059,2876,8
1789464386.0036852,2075,2875,8
1789464386.006043,2064,2878,8
1789464386.008346,2116,2876,8
1789464386.009634,2086,2876,8
1789464386.012218,2061,2876,8
1789464386.014554,2032,2874,8
1789464386.015598,2097,2876,8
1789464386.017707,2098,2876,8
1789464386.0199978,2093,2876,8
1789464386.022295,2055,2875,8
1789464386.02337,2098,2876,8
1789464386.025913,2125,2875,8
1789464386.028451,2082,2876,8
1789464386.029736,2044,2876,8
1789464386.032279,2077,2875,8
1789464386.033399,2101,2876,8
1789464386.037332,2083,2875,8
1789464386.037695,2065,2876,8
1789464386.039516,2060,2877,8
1789464386.042636,2095,2876,8
1789464386.045363,2078,2876,8
1789464386.045532,2055,2876,8
1789464386.0481029,2035,2874,8
1789464386.050548,2112,2876,8
1789464386.051836,2120,2875,8
1789464386.054378,2087,2875,8
1789464386.055437,2047,2875,8
1789464386.0579782,2099,2875,8
1789464386.060273,2084,2875,8
1789464386.061456,2079,2876,8
1789464386.063995,2037,2877,8
1789464386.066535,2073,2875,8
1789464386.067592,2096,2876,8
1789464386.0698938,2099,2876,8
1789464386.072198,2066,2875,8
1789464386.073484,2110,2877,8
1789464386.0760288,2123,2876,8
1789464386.077407,2092,2876,8
1789464386.0797179,2045,2875,8
1789464386.0820181,2049,2875,8
1789464386.0840871,2090,2876,8
1789464386.0891268,2070,2876,8
1789464386.0896032,2067,2875,8
1789464386.089955,2061,2878,8
1789464386.091668,2110,2875,8
1789464386.09474,2093,2876,8
1789464386.0974028,2030,2875,8
1789464386.097595,2013,2874,8
1789464386.100246,2053,2876,8
1789464386.1025689,2098,2876,8
1789464386.1038568,2077,2876,8
1789464386.105929,2053,2878,8
1789464386.108373,2109,2876,8
1789464386.109662,2108,2875,8
1789464386.111712,2069,2875,8
1789464386.113777,2042,2877,8
1789464386.116071,2062,2875,8
1789464386.118376,2095,2876,8
1789464386.119661,2080,2875,8
1789464386.121758,2039,2875,8
1789464386.124063,2085,2876,8
1789464386.126355,2117,2876,8
1789464386.127404,2115,2877,8
1789464386.129705,2065,2875,8
1789464386.132002,2074,2875,8
1789464386.1343129,2114,2876,8
1789464386.135606,2122,2877,8
1789464386.137771,2111,2878,8
1789464386.1421702,2122,2877,8
1789464386.142893,2154,2875,8
1789464386.1445692,2084,2875,8
1789464386.146057,2051,2876,8
1789464386.150487,2077,2877,8
1789464386.150624,2113,2875,8
1789464386.1525178,2164,2879,8
1789464386.1538198,2128,2878,8
1789464386.1561348,2088,2876,8
1789464386.158438,2152,2878,8
1789464386.159491,2189,2876,8
1789464386.16163,2127,2876,8
1789464386.164187,2065,2877,8
1789464386.166295,2092,2875,8
1789464386.167597,2163,2878,8
1789464386.1701398,2126,2873,8
1789464386.171392,2076,2877,8
1789464386.173751,2086,2876,8
1789464386.176058,2124,2876,8
1789464386.178466,2117,2876,8
1789464386.179517,2079,2877,8
1789464386.182058,2035,2875,8
1789464386.184364,2127,2875,8
1789464386.1854029,2145,2879,8
1789464386.187697,2061,2875,8
1789464386.190237,2079,2877,8
1789464386.191425,2136,2876,8
1789464386.195348,2085,2877,8
1789464386.195779,2061,2876,8
1789464386.1991968,2055,2877,8
1789464386.2017128,2087,2876,8
1789464386.2030568,2086,2875,8
1789464386.205069,2088,2875,8
1789464386.20624,2099,2877,8
1789464386.208555,2098,2876,8
1789464386.209842,2116,2875,8
1789464386.212385,2072,2875,8
1789464386.2136729,2020,2874,8
1789464386.215968,2052,2876,8
1789464386.2183082,2100,2876,8
1789464386.2193542,2102,2875,8
1789464386.2216551,1967,2874,8
1789464386.224194,2002,2874,8
1789464386.22534,2075,2876,8
1789464386.227644,2084,2876,8
1789464386.2301939,2095,2876,8
1789464386.231335,2051,2878,8
1789464386.233639,2078,2876,8
1789464386.2356951,2120,2876,8
1789464386.2379909,2045,2876,8
1789464386.2402828,2046,2875,8
1789464386.241324,2063,2876,8
1789464386.243625,2099,2876,8
1789464386.247828,1992,2876,8
1789464386.248506,2043,2877,8
1789464386.251102,2216,2878,8
1789464386.2519848,2187,2878,8
1789464386.253849,2173,2880,8
1789464386.256808,2143,2877,8
1789464386.257868,2216,2878,8
1789464386.259302,2155,2877,8
1789464386.2618492,2073,2877,8
1789464386.2640882,1874,2873,8
1789464386.265244,1927,2876,8
1789464386.267827,2070,2874,8
1789464386.2698839,2154,2878,8
1789464386.2723148,2052,2877,8
1789464386.273525,2128,2876,8
1789464386.276205,2142,2877,8
1789464386.277521,2142,2877,8
1789464386.2796001,2126,2876,8
1789464386.2819042,2093,2876,8
1789464386.28328,2036,2875,8
1789464386.28559,2012,2875,8
1789464386.287658,1980,2875,8
1789464386.289969,1978,2874,8
1789464386.292329,2070,2876,8
1789464386.297039,2084,2875,8
1789464386.298387,2019,2877,8
1789464386.29853,1945,2874,8
1789464386.30145,2090,2874,8
1789464386.3018398,2158,2878,8
1789464386.3043761,2213,2879,8
1789464386.306153,2179,2877,8
1789464386.307452,2172,2877,8
1789464386.30969,2140,2877,8
1789464386.312032,2080,2876,8
1789464386.3134248,1973,2875,8
1789464386.31583,2072,2874,8
1789464386.317299,2265,2878,8
1789464386.319637,2130,2877,8
1789464386.321713,2031,2876,8
1789464386.323775,2032,2876,8
1789464386.325858,1803,2874,8
1789464386.3279328,1971,2875,8
1789464386.3299918,2123,2877,8
1789464386.332049,2197,2878,8
1789464386.334126,2080,2878,8
1789464386.335244,1943,2875,8
1789464386.337297,1912,2875,8
1789464386.3395488,1993,2874,8
1789464386.342125,2299,2877,8
1789464386.348259,2317,2877,8
1789464386.3495638,2095,2877,8
1789464386.351787,1994,2875,8
1789464386.352181,2052,2875,8
1789464386.3558311,2042,2875,8
1789464386.357895,2065,2875,8
1789464386.3581362,2167,2877,8
1789464386.358279,2170,2878,8
1789464386.359487,2143,2876,8
1789464386.361902,2097,2877,8
1789464386.3632581,2073,2876,8
1789464386.365349,2058,2876,8
1789464386.367442,2071,2876,8
1789464386.3696299,2140,2876,8
1789464386.371818,2234,2878,8
1789464386.374215,1973,2877,8
1789464386.3752818,1915,2873,8
1789464386.3775449,1872,2874,8
1789464386.379908,2111,2877,8
1789464386.382109,2176,2878,8
1789464386.38329,2151,2877,8
1789464386.385409,1819,2875,8
1789464386.387521,1659,2875,8
1789464386.3896792,2066,2874,8
1789464386.391871,2157,2876,8
1789464386.393229,2310,2876,8
1789464386.398741,2269,2876,8
1789464386.4004421,1508,2874,8
1789464386.401654,1786,2876,8
1789464386.402227,1967,2875,8
1789464386.405004,2321,2877,8
1789464386.406573,2382,2877,8
1789464386.4084868,2408,2878,8
1789464386.409739,2272,2877,8
1789464386.412267,2002,2877,8
1789464386.4133341,1937,2875,8
1789464386.415414,1868,2876,8
1789464386.41765,2354,2878,8
1789464386.420029,2503,2879,8
1789464386.422103,2283,2878,8
1789464386.423341,2018,2877,8
1789464386.425405,1713,2874,8
1789464386.4277802,1816,2875,8
1789464386.430079,2151,2875,8
1789464386.43238,2200,2876,8
1789464386.433475,2335,2878,8
1789464386.435555,1649,2874,8
1789464386.437649,1793,2873,8
1789464386.439723,2304,2876,8
1789464386.4419289,2454,2878,8
1789464386.4440682,2185,2877,8
1789464386.4489348,2060,2878,8
1789464386.450325,2097,2876,8
1789464386.450525,2266,2875,8
1789464386.452398,2049,2875,8
1789464386.456201,1759,2875,8
1789464386.456367,1541,2874,8
1789464386.458018,1896,2874,8
1789464386.460182,2330,2877,8
1789464386.461422,2455,2877,8
1789464386.463774,2217,2877,8
1789464386.466031,1911,2875,8
1789464386.468267,1694,2876,8
1789464386.4695392,2245,2876,8
1789464386.471842,2444,2879,8
1789464386.474111,2249,2878,8
1789464386.475274,1979,2876,8
1789464386.477598,2039,2876,8
1789464386.480146,1740,2874,8
1789464386.4812942,2249,2878,8
1789464386.483615,2544,2878,8
1789464386.4859679,2688,2878,8
1789464386.4882581,2298,2878,8
1789464386.489482,2124,2876,8
1789464386.491806,1881,2875,8
1789464386.4942038,1915,2874,8
1789464386.499286,1962,2875,8
1789464386.4997,2044,2875,8
1789464386.5009038,1988,2876,8
1789464386.502406,1934,2874,8
1789464386.504294,1785,2875,8
1789464386.507051,1856,2874,8
1789464386.508918,2025,2877,8
1789464386.510184,2146,2877,8
1789464386.51148,1965,2877,8
1789464386.513786,1985,2877,8
1789464386.516331,2051,2875,8
1789464386.517616,2131,2876,8
1789464386.520158,2321,2877,8
1789464386.521444,2303,2878,8
1789464386.523964,2281,2878,8
1789464386.525268,2261,2877,8
1789464386.527683,2126,2877,8
1789464386.530226,1984,2875,8
1789464386.531511,1828,2876,8
1789464386.533935,1713,2876,8
1789464386.535219,2022,2875,8
1789464386.537759,2374,2877,8
1789464386.540302,2153,2876,8
1789464386.541355,1984,2875,8
1789464386.543902,2236,2877,8
1789464386.5451882,2111,2877,8
1789464386.547488,2281,2878,8
1789464386.553139,2332,2879,8
1789464386.553858,1896,2876,8
1789464386.554635,1987,2875,8
1789464386.557039,1978,2875,8
1789464386.5574,2066,2878,8
1789464386.560302,1951,2875,8
1789464386.561898,1967,2876,8
1789464386.563851,2090,2877,8
1789464386.5651572,2069,2875,8
1789464386.5677068,2130,2876,8
1789464386.570004,2055,2875,8
1789464386.57129,2022,2874,8
1789464386.5736058,2132,2878,8
1789464386.57615,1954,2875,8
1789464386.5772002,2126,2876,8
1789464386.5795012,1915,2874,8
1789464386.5820448,2141,2878,8
1789464386.5831711,2344,2878,8
1789464386.585481,2394,2878,8
1789464386.587785,1976,2874,8
1789464386.5891469,2031,2874,8
1789464386.591449,2371,2877,8
1789464386.593756,2456,2877,8
1789464386.59517,2041,2876,8
1789464386.5977228,1875,2874,8
1789464386.600034,2006,2875,8
1789464386.60132,2136,2876,8
1789464386.603869,2123,2876,8
1789464386.607506,1877,2875,8
1789464386.608335,1977,2877,8
1789464386.610207,2121,2876,8
1789464386.6117241,2029,2875,8
1789464386.614437,1916,2874,8
1789464386.616013,2030,2875,8
1789464386.6176288,2192,2876,8
1789464386.62019,2159,2876,8
1789464386.6212459,1765,2875,8
1789464386.623789,1938,2874,8
1789464386.626091,2187,2876,8
1789464386.62738,2236,2876,8
1789464386.6299388,2208,2876,8
1789464386.6322439,2038,2877,8
1789464386.63329,2189,2878,8
1789464386.635832,2242,2879,8
1789464386.637158,2203,2877,8
1789464386.639467,2121,2877,8
1789464386.642007,2050,2877,8
1789464386.643291,2074,2877,8
1789464386.645601,2036,2877,8
1789464386.6479099,1879,2873,8
1789464386.650214,2026,2875,8
1789464386.651399,2011,2875,8
1789464386.653701,1897,2875,8
1789464386.6562428,2122,2877,8
1789464386.660506,2455,2877,8
1789464386.661282,2126,2876,8
1789464386.661375,1989,2876,8
1789464386.664562,2101,2877,8
1789464386.667388,2220,2879,8
1789464386.6689239,2233,2877,8
1789464386.670601,2193,2876,8
1789464386.671656,2047,2876,8
1789464386.674037,2053,2879,8
1789464386.675324,2111,2876,8
1789464386.677629,1939,2875,8
1789464386.6797068,1927,2873,8
1789464386.682003,1958,2874,8
1789464386.68329,2006,2875,8
1789464386.6858292,2133,2875,8
1789464386.687156,2240,2877,8
1789464386.689694,1774,2874,8
1789464386.691917,2073,2876,8
1789464386.694222,2347,2876,8
1789464386.695276,2157,2877,8
1789464386.697579,1870,2875,8
1789464386.699643,1854,2875,8
1789464386.701945,2368,2878,8
1789464386.7032309,2542,2878,8
1789464386.705778,2201,2876,8
1789464386.7083368,1845,2875,8
1789464386.7093902,1994,2877,8
1789464386.7138948,2054,2876,8
1789464386.7143402,2120,2878,8
1789464386.715729,2023,2875,8
1789464386.717639,1931,2876,8
1789464386.720292,2003,2875,8
1789464386.7218869,2081,2878,8
1789464386.7237601,1966,2874,8
1789464386.7260742,2231,2877,8
1789464386.727136,2234,2878,8
1789464386.7292109,1978,2874,8
1789464386.731273,1982,2875,8
1789464386.733709,2319,2879,8
1789464386.736019,2178,2878,8
1789464386.737131,1905,2876,8
1789464386.739609,1618,2875,8
1789464386.7421498,2070,2877,8
1789464386.743434,2466,2877,8
1789464386.74574,2304,2877,8
1789464386.7478778,1948,2875,8
1789464386.7502341,2004,2876,8
1789464386.751285,2142,2875,8
1789464386.753588,2230,2877,8
1789464386.755896,2184,2877,8
1789464386.757183,2086,2876,8
1789464386.759488,2028,2876,8
1789464386.761539,1964,2876,8
1789464386.7659688,2059,2877,8
1789464386.7660632,1930,2875,8
1789464386.767503,1639,2875,8
1789464386.770433,1980,2875,8
1789464386.7738361,2274,2877,8
1789464386.773995,2156,2877,8
1789464386.775851,2194,2876,8
1789464386.7771509,2129,2877,8
1789464386.7796988,2132,2877,8
1789464386.7822442,2107,2875,8
1789464386.783529,2168,2876,8
1789464386.7857,2184,2876,8
1789464386.788009,2077,2875,8
1789464386.789112,1928,2874,8
1789464386.7914171,1980,2876,8
1789464386.7939572,2128,2877,8
1789464386.7952409,2047,2875,8
1789464386.797759,2076,2877,8
1789464386.799964,2122,2875,8
1789464386.8012521,2122,2875,8
1789464386.80363,2097,2876,8
1789464386.8058,2147,2878,8
1789464386.8071392,2141,2877,8
1789464386.8094358,1875,2873,8
1789464386.811737,1738,2873,8
1789464386.81394,2042,2877,8
1789464386.818357,2176,2878,8
1789464386.8191528,2214,2877,8
1789464386.8195689,2313,2878,8
1789464386.822378,2205,2877,8
1789464386.82395,2212,2876,8
1789464386.82544,2187,2876,8
1789464386.827362,2204,2877,8
1789464386.830155,2046,2877,8
1789464386.831441,2070,2874,8
1789464386.833738,2045,2875,8
1789464386.836312,2009,2875,8
1789464386.837595,1935,2875,8
1789464386.8401349,1962,2874,8
1789464386.841419,2135,2877,8
1789464386.843727,2090,2876,8
1789464386.8460312,2045,2877,8
1789464386.847314,2047,2877,8
1789464386.849617,2055,2875,8
1789464386.8521569,2091,2876,8
1789464386.8532102,2012,2876,8
1789464386.8555179,2082,2877,8
1789464386.8579662,2216,2877,8
1789464386.8592498,2111,2877,8
1789464386.861386,2038,2876,8
1789464386.863924,2034,2877,8
1789464386.865016,1987,2876,8
1789464386.867328,2071,2876,8
1789464386.8730052,2053,2877,8
1789464386.873677,1975,2875,8
1789464386.874998,2138,2877,8
1789464386.875253,2087,2875,8
1789464386.877955,2073,2876,8
1789464386.8798862,2145,2876,8
1789464386.88148,2119,2877,8
1789464386.883067,2168,2877,8
1789464386.8856242,2141,2876,8
1789464386.888096,2101,2876,8
1789464386.8891442,2063,2875,8
1789464386.8914502,2092,2877,8
1789464386.893745,2054,2877,8
1789464386.895799,2053,2876,8
1789464386.897086,2013,2874,8
1789464386.899387,2018,2875,8
1789464386.901925,2110,2875,8
1789464386.90321,2091,2876,8
1789464386.90575,1971,2876,8
1789464386.908062,2017,2874,8
1789464386.909357,2127,2875,8
1789464386.911799,2053,2876,8
1789464386.914101,2014,2876,8
1789464386.915149,2091,2876,8
1789464386.917696,2174,2877,8
1789464386.919997,2151,2880,8
1789464386.9210482,2099,2875,8
1789464386.92633,2118,2877,8
1789464386.926419,2155,2877,8
1789464386.928191,2116,2877,8
1789464386.929662,2039,2876,8
1789464386.932519,2016,2873,8
1789464386.934249,2036,2875,8
1789464386.935744,2041,2876,8
1789464386.937962,2050,2875,8
1789464386.9390662,2045,2875,8
1789464386.941609,2125,2878,8
1789464386.9430048,2097,2875,8
1789464386.945368,2062,2875,8
1789464386.9479182,2022,2875,8
1789464386.949027,2049,2874,8
1789464386.951571,2071,2876,8
1789464386.953702,2107,2876,8
1789464386.955028,2044,2875,8
1789464386.957313,2081,2876,8
1789464386.9595132,2094,2875,8
1789464386.961822,2079,2876,8
1789464386.964127,2033,2875,8
1789464386.965172,2034,2875,8
1789464386.9674728,2088,2876,8
1789464386.969779,2080,2876,8
1789464386.9718459,2056,2875,8
1789464386.97418,2068,2877,8
1789464386.978404,2087,2875,8
1789464386.978496,2095,2876,8
1789464386.98072,2034,2877,8
1789464386.982489,2057,2876,8
1789464386.985302,2093,2876,8
1789464386.987047,2093,2876,8
1789464386.987126,2108,2876,8
1789464386.9897301,2047,2875,8
1789464386.99105,2112,2875,8
1789464386.993597,2115,2875,8
1789464386.995902,2035,2875,8
1789464386.997032,2007,2874,8
1789464386.999576,2060,2875,8
1789464387.001836,2102,2877,8
1789464387.004135,2105,2876,8
1789464387.005418,2077,2877,8
1789464387.007957,2087,2876,8
1789464387.009001,2111,2876,8
1789464387.011306,2076,2875,8
1789464387.01336,2019,2876,8
1789464387.015658,2025,2875,8
1789464387.01794,2112,2876,8
1789464387.019226,2103,2876,8
1789464387.0215218,2065,2875,8
1789464387.0240629,2068,2877,8
1789464387.0251122,2110,2876,8
1789464387.027488,2133,2875,8
1789464387.032083,2053,2877,8
1789464387.03251,2051,2874,8
1789464387.0345469,2137,2878,8
1789464387.036682,2099,2876,8
1789464387.0392141,2086,2874,8
1789464387.040812,2063,2877,8
1789464387.042706,2114,2876,8
1789464387.0437639,2101,2876,8
1789464387.046131,2059,2875,8
1789464387.0473971,2047,2876,8
1789464387.049689,2110,2878,8
1789464387.0518558,2117,2875,8
1789464387.0541608,2076,2876,8
1789464387.055211,2037,2874,8
1789464387.057753,2101,2876,8
1789464387.05904,2102,2877,8
1789464387.061583,2079,2875,8
1789464387.063884,2026,2876,8
1789464387.065168,2036,2874,8
1789464387.0674748,2093,2876,8
1789464387.0698822,2096,2875,8
1789464387.071148,2056,2876,8
1789464387.073688,2050,2877,8
1789464387.07501,2127,2875,8
1789464387.077322,2113,2876,8
1789464387.079626,2043,2876,8
1789464387.084893,2040,2874,8
1789464387.085254,2090,2877,8
1789464387.08571,2114,2876,8
1789464387.08736,2065,2875,8
1789464387.09127,2068,2877,8
1789464387.091363,2148,2876,8
1789464387.093046,2097,2875,8
1789464387.095892,2043,2875,8
1789464387.096947,2018,2874,8
1789464387.099502,2059,2875,8
1789464387.10181,2124,2875,8
1789464387.104109,2107,2876,8
1789464387.105155,2014,2874,8
1789464387.107695,2099,2877,8
1789464387.108979,2132,2876,8
1789464387.1110861,2084,2875,8
1789464387.113386,2037,2876,8
1789464387.1156769,2056,2875,8
1789464387.117735,2117,2876,8
1789464387.119018,2084,2876,8
1789464387.121321,2035,2876,8
1789464387.1233869,2033,2873,8
1789464387.125925,2094,2876,8
1789464387.1269782,2082,2876,8
1789464387.129091,2006,2876,8
1789464387.1313999,1998,2874,8
1789464387.133697,2087,2876,8
1789464387.138365,2102,2876,8
1789464387.1387131,2055,2876,8
1789464387.1402528,2045,2875,8
1789464387.142099,2114,2877,8
1789464387.143557,2087,2875,8
1789464387.14521,2069,2875,8
1789464387.148468,2022,2874,8
1789464387.149796,2045,2876,8
1789464387.151092,2059,2875,8
1789464387.153638,2065,2877,8
1789464387.154924,1997,2875,8
1789464387.1574662,2019,2876,8
1789464387.160008,2040,2876,8
1789464387.1612911,2003,2876,8
1789464387.163593,1997,2874,8
1789464387.164916,1993,2875,8
1789464387.167468,2047,2876,8
1789464387.169526,2053,2876,8
1789464387.170918,2013,2875,8
1789464387.1734579,2015,2874,8
1789464387.175686,2046,2876,8
1789464387.177995,2055,2876,8
1789464387.1792881,2019,2876,8
1789464387.181597,1961,2874,8
1789464387.1829178,2020,2877,8
1789464387.185456,2039,2876,8
1789464387.187874,2022,2876,8
1789464387.191843,1995,2875,8
1789464387.19228,2052,2877,8
1789464387.193834,2054,2875,8
1789464387.195534,1985,2876,8
1789464387.1980171,1963,2874,8
1789464387.199765,1992,2875,8
1789464387.201196,2035,2876,8
1789464387.203747,2042,2877,8
1789464387.205051,1989,2875,8
1789464387.207598,2037,2877,8
1789464387.20893,2083,2877,8
1789464387.2114758,2051,2876,8
1789464387.2137878,2013,2877,8
1789464387.215072,2020,2875,8
1789464387.217372,2061,2876,8
1789464387.2197561,2059,2876,8
1789464387.2209039,2022,2875,8
1789464387.2231839,2021,2874,8
1789464387.225376,2088,2876,8
1789464387.227678,2073,2875,8
1789464387.228962,2012,2875,8
1789464387.231065,1987,2874,8
1789464387.233369,2028,2875,8
1789464387.235622,2087,2876,8
1789464387.2376928,2050,2876,8
1789464387.238921,2000,2875,8
1789464387.241518,2060,2877,8
1789464387.245701,2067,2877,8
1789464387.246177,2026,2877,8
1789464387.247839,1997,2875,8
1789464387.249331,2033,2875,8
1789464387.252158,2109,2876,8
1789464387.253909,2084,2876,8
1789464387.255554,2006,2875,8
1789464387.2581172,2048,2877,8
1789464387.259413,2102,2875,8
1789464387.2617228,2052,2875,8
1789464387.26301,2023,2876,8
1789464387.265313,2014,2875,8
1789464387.267617,2048,2877,8
1789464387.268901,2067,2876,8
1789464387.270999,2028,2875,8
1789464387.273319,2033,2874,8
1789464387.275857,2079,2877,8
1789464387.2770078,2089,2876,8
1789464387.279077,2039,2875,8
1789464387.281384,2030,2875,8
1789464387.283933,2070,2875,8
1789464387.2849832,2113,2876,8
1789464387.287524,2087,2876,8
1789464387.289829,2038,2875,8
1789464387.29091,2079,2877,8
1789464387.293206,2093,2876,8
1789464387.29535,2050,2875,8
1789464387.299486,2043,2877,8
1789464387.3002,2048,2874,8
1789464387.3029099,2097,2876,8
1789464387.303287,2090,2875,8
1789464387.3059578,2056,2875,8
1789464387.3079019,2113,2877,8
1789464387.310066,2157,2875,8
1789464387.3111181,2125,2875,8
1789464387.313663,2025,2875,8
1789464387.315965,2030,2875,8
1789464387.317019,2073,2876,8
1789464387.3195589,2125,2876,8
1789464387.32091,2067,2876,8
1789464387.323456,2077,2877,8
1789464387.325995,2069,2876,8
1789464387.327279,2076,2875,8
1789464387.329818,2048,2875,8
1789464387.330953,2061,2878,8
1789464387.333493,2116,2877,8
1789464387.3358579,2088,2876,8
1789464387.337147,2071,2876,8
1789464387.339689,2061,2874,8
1789464387.3409762,2114,2876,8
1789464387.343288,2132,2876,8
1789464387.345433,2086,2875,8
1789464387.3479521,2023,2876,8
1789464387.349235,2008,2874,8
1789464387.3532522,2080,2874,8
1789464387.353377,2083,2876,8
1789464387.355399,2040,2877,8
1789464387.357716,2073,2878,8
1789464387.35963,2092,2876,8
1789464387.361543,2082,2877,8
1789464387.363505,2079,2876,8
1789464387.3658261,2055,2875,8
1789464387.367116,2117,2876,8
1789464387.3694232,2096,2876,8
1789464387.371964,2072,2875,8
1789464387.373248,2075,2877,8
1789464387.375465,2091,2875,8
1789464387.3777769,2104,2875,8
1789464387.3788218,2044,2876,8
1789464387.380884,2050,2877,8
1789464387.383203,2057,2875,8
1789464387.3857448,2179,2878,8
1789464387.388064,2086,2876,8
1789464387.389216,2030,2874,8
1789464387.391528,2061,2876,8
1789464387.392811,2041,2875,8
1789464387.395108,2012,2877,8
1789464387.397541,2014,2874,8
1789464387.3998451,2074,2878,8
1789464387.400888,2121,2877,8
1789464387.4031801,2117,2878,8
1789464387.4067898,2061,2875,8
1789464387.40723,2104,2878,8
1789464387.408902,2121,2878,8
1789464387.4115572,2080,2875,8
1789464387.413026,2033,2875,8
1789464387.414918,2053,2874,8
1789464387.417286,2123,2877,8
1789464387.419698,2119,2878,8
1789464387.420803,2024,2875,8
1789464387.4231098,2008,2874,8
1789464387.425426,2103,2877,8
1789464387.4268029,2130,2876,8
1789464387.429355,2088,2876,8
1789464387.4316108,2008,2873,8
1789464387.4339142,2055,2875,8
1789464387.4352,2011,2875,8
1789464387.437504,2053,2875,8
1789464387.4398038,2081,2879,8
1789464387.441087,2086,2877,8
1789464387.443398,2122,2876,8
1789464387.445696,2092,2877,8
1789464387.446986,2071,2876,8
1789464387.4495292,2095,2876,8
1789464387.450784,2126,2878,8
1789464387.453324,2089,2875,8
1789464387.4554188,2113,2877,8
1789464387.460382,2089,2876,8
1789464387.460798,2065,2877,8
1789464387.4616032,2039,2876,8
1789464387.463053,2016,2878,8
1789464387.465933,2048,2875,8
1789464387.468724,2077,2875,8
1789464387.468818,2100,2875,8
1789464387.4714031,2021,2876,8
1789464387.4727821,2065,2877,8
1789464387.475334,2128,2875,8
1789464387.477647,2153,2876,8
1789464387.4789371,2059,2877,8
1789464387.481478,1989,2876,8
1789464387.483777,2046,2875,8
1789464387.4850612,2099,2876,8
1789464387.487365,2059,2875,8
1789464387.4899142,2041,2875,8
1789464387.491198,2081,2876,8
1789464387.493737,2124,2875,8
1789464387.494925,2138,2875,8
1789464387.497468,2061,2876,8
1789464387.4987578,2080,2877,8
1789464387.500903,2107,2876,8
1789464387.502965,2102,2876,8
1789464387.505506,2082,2875,8
1789464387.5067751,2110,2876,8
1789464387.512579,2110,2876,8
1789464387.5129302,2097,2876,8
1789464387.5130408,2033,2875,8
1789464387.514907,2049,2874,8
1789464387.517817,2094,2876,8
1789464387.519586,2096,2876,8
1789464387.52141,2087,2875,8
1789464387.523442,2048,2877,8
1789464387.5247738,2095,2876,8
1789464387.527325,2075,2876,8
1789464387.529867,2102,2876,8
1789464387.531157,2073,2876,8
1789464387.533699,2055,2875,8
1789464387.5349839,2050,2875,8
1789464387.537525,2070,2876,8
1789464387.538809,2048,2874,8
1789464387.541111,2077,2876,8
1789464387.5434089,2108,2874,8
1789464387.544768,2058,2875,8
1789464387.547078,2037,2876,8
1789464387.549136,2048,2875,8
1789464387.551446,2124,2876,8
1789464387.5537548,2132,2876,8
1789464387.554923,2058,2876,8
1789464387.557463,2080,2877,8
1789464387.558796,2112,2876,8
1789464387.561095,2099,2875,8
1789464387.565799,2030,2876,8
1789464387.5662122,2033,2874,8
1789464387.5682938,2091,2876,8
1789464387.569929,2066,2876,8
1789464387.5714262,2058,2875,8
1789464387.5729642,2053,2875,8
1789464387.576354,2129,2877,8
1789464387.577408,2102,2876,8
1789464387.579655,2049,2876,8
1789464387.5807831,2020,2874,8
1789464387.583161,2071,2876,8
1789464387.585216,2105,2875,8
1789464387.587754,2079,2875,8
1789464387.588801,2043,2875,8
1789464387.591228,2071,2876,8
1789464387.593767,2091,2874,8
1789464387.595058,2096,2875,8
1789464387.597599,2043,2877,8
1789464387.598882,2050,2875,8
1789464387.601177,2112,2876,8
1789464387.603241,2109,2876,8
1789464387.605781,2051,2875,8
1789464387.6068249,2058,2877,8
1789464387.6093628,2114,2875,8
1789464387.611805,2082,2875,8
1789464387.6128619,2010,2875,8
1789464387.615403,2022,2874,8
1789464387.6189709,2089,2875,8
1789464387.6197581,2102,2876,8
1789464387.621762,2073,2875,8
1789464387.623574,2073,2877,8
1789464387.625043,2110,2876,8
1789464387.627794,2097,2875,8
1789464387.6294248,2054,2876,8
1789464387.631744,2026,2873,8
1789464387.6330318,2068,2875,8
1789464387.635332,2096,2876,8
1789464387.637878,2089,2876,8
1789464387.638977,2044,2875,8
1789464387.641367,2097,2877,8
1789464387.64384,2131,2876,8
1789464387.6451252,2079,2876,8
1789464387.647428,2035,2876,8
1789464387.648774,2048,2875,8
1789464387.651082,2096,2875,8
1789464387.6533818,2083,2876,8
1789464387.655901,2063,2875,8
1789464387.657185,2092,2875,8
1789464387.659483,2094,2875,8
1789464387.660773,2098,2876,8
1789464387.663075,2047,2876,8
1789464387.665313,2030,2874,8
1789464387.667855,2070,2876,8
1789464387.669138,2099,2876,8
1789464387.673439,2084,2876,8
1789464387.673881,2059,2878,8
1789464387.6755981,2108,2876,8
1789464387.6771321,2100,2875,8
1789464387.6800508,2020,2876,8
1789464387.681481,2046,2877,8
1789464387.6829891,2073,2875,8
1789464387.685539,2123,2876,8
1789464387.687846,2101,2875,8
1789464387.689135,2046,2874,8
1789464387.6913862,2104,2876,8
1789464387.6936939,2103,2876,8
1789464387.694735,2097,2875,8
1789464387.6972759,2067,2876,8
1789464387.699411,2067,2874,8
1789464387.701709,2099,2876,8
1789464387.702993,2092,2876,8
1789464387.705298,2068,2876,8
1789464387.707816,2081,2876,8
1789464387.708874,2109,2876,8
1789464387.711432,2085,2875,8
1789464387.7127218,2034,2875,8
1789464387.715127,2032,2875,8
1789464387.717665,2066,2876,8
1789464387.718949,2096,2876,8
1789464387.721487,2078,2876,8
1789464387.7271051,2025,2875,8
1789464387.727842,2085,2876,8
1789464387.728511,2103,2876,8
1789464387.7296069,2066,2876,8
1789464387.731427,2067,2877,8
1789464387.733192,2069,2875,8
1789464387.735657,2060,2876,8
1789464387.737531,2065,2875,8
1789464387.73883,2065,2876,8
1789464387.7411351,2054,2876,8
1789464387.7434418,2106,2876,8
1789464387.745756,2130,2875,8
1789464387.7468102,2050,2875,8
1789464387.7489989,2046,2874,8
1789464387.751292,2108,2876,8
1789464387.7535958,2102,2875,8
1789464387.75488,2096,2876,8
1789464387.7571788,2071,2877,8
1789464387.759239,1999,2875,8
1789464387.7615418,1925,2873,8
1789464387.762826,2040,2876,8
1789464387.765193,2168,2877,8
1789464387.767497,2143,2877,8
1789464387.768786,2121,2877,8
1789464387.771094,2147,2877,8
1789464387.773154,2122,2877,8
1789464387.775388,2206,2877,8
1789464387.7791061,2185,2876,8
1789464387.779556,2072,2876,8
1789464387.781269,1947,2874,8
1789464387.7851899,1811,2875,8
1789464387.785323,1920,2874,8
1789464387.7868228,2004,2875,8
1789464387.7893162,2173,2877,8
1789464387.7906308,2172,2876,8
1789464387.792951,1945,2877,8
1789464387.795497,2050,2876,8
1789464387.796791,2309,2877,8
1789464387.7988632,2247,2878,8
1789464387.8009229,2178,2877,8
1789464387.803471,2116,2875,8
1789464387.804765,1799,2875,8
1789464387.807308,1892,2874,8
1789464387.809366,2201,2877,8
1789464387.810654,2297,2877,8
1789464387.813201,1995,2876,8
1789464387.8156412,1989,2874,8
1789464387.816927,2027,2874,8
1789464387.819225,2086,2876,8
1789464387.8216372,2230,2878,8
1789464387.822921,2013,2874,8
1789464387.825299,2021,2877,8
1789464387.8266509,2068,2875,8
1789464387.8312378,2030,2876,8
1789464387.8316128,2050,2877,8
1789464387.8334,2095,2877,8
1789464387.835108,2158,2878,8
1789464387.8390772,2013,2876,8
1789464387.83921,1937,2875,8
1789464387.8420942,1882,2874,8
1789464387.843138,2174,2877,8
1789464387.8456478,2318,2877,8
1789464387.846943,2091,2875,8
1789464387.849487,1869,2874,8
1789464387.850771,2014,2875,8
1789464387.853191,2185,2876,8
1789464387.855731,2204,2880,8
1789464387.8567889,1946,2874,8
1789464387.8591082,1896,2874,8
1789464387.8616478,1974,2877,8
1789464387.862688,1998,2876,8
1789464387.864841,2187,2876,8
1789464387.867386,2251,2877,8
1789464387.869514,2321,2879,8
1789464387.870653,2240,2878,8
1789464387.873194,2013,2875,8
1789464387.875319,2044,2876,8
1789464387.8766541,1949,2875,8
1789464387.8791978,1940,2874,8
1789464387.883211,1955,2876,8
1789464387.883657,2094,2876,8
1789464387.8856242,2033,2877,8
1789464387.887232,1976,2874,8
1789464387.888981,2119,2875,8
1789464387.8917398,2424,2878,8
1789464387.8937979,2195,2879,8
1789464387.895097,1945,2873,8
1789464387.897641,1926,2874,8
1789464387.8989272,1842,2874,8
1789464387.9014678,1885,2875,8
1789464387.902752,2089,2877,8
1789464387.9053051,2362,2877,8
1789464387.906652,2057,2877,8
1789464387.9090528,2127,2876,8
1789464387.911594,2241,2877,8
1789464387.912884,2223,2878,8
1789464387.9151769,2107,2878,8
1789464387.917255,1470,2875,8
1789464387.9195578,1568,2875,8
1789464387.9206479,2225,2877,8
1789464387.922744,2207,2877,8
1789464387.924813,2295,2877,8
1789464387.927107,2017,2877,8
1789464387.929173,1747,2875,8
1789464387.931713,2382,2878,8
1789464387.9330041,2539,2879,8
1789464387.936793,2209,2878,8
1789464387.9372249,1805,2874,8
1789464387.9390981,1587,2874,8
1789464387.941943,2139,2879,8
1789464387.943608,2620,2878,8
1789464387.944916,2145,2877,8
1789464387.947722,2033,2877,8
1789464387.9490108,1859,2875,8
1789464387.951561,2092,2875,8
1789464387.952848,2025,2876,8
1789464387.955148,2078,2875,8
1789464387.957453,2361,2878,8
1789464387.9587379,2423,2877,8
1789464387.9612758,1963,2875,8
1789464387.9626398,1272,2874,8
1789464387.964938,2181,2875,8
1789464387.967239,2655,2880,8
1789464387.969643,1904,2874,8
1789464387.9720068,1835,2875,8
1789464387.973291,2036,2876,8
1789464387.975588,2388,2877,8
1789464387.976872,2100,2876,8
1789464387.9789429,2135,2877,8
1789464387.980994,1810,2875,8
1789464387.983062,2032,2876,8
1789464387.98944,2404,2880,8
1789464387.989904,2576,2877,8
1789464387.990985,2220,2878,8
1789464387.991127,1881,2877,8
1789464387.9927099,1623,2873,8
1789464387.995702,1901,2876,8
1789464387.997154,2227,2877,8
1789464387.999095,2368,2878,8
1789464388.001608,2140,2877,8
1789464388.002899,2201,2876,8
1789464388.005444,2043,2876,8
1789464388.007743,1819,2874,8
1789464388.0090282,1367,2875,8
1789464388.011568,706,2874,8
1789464388.012628,2412,2879,8
1789464388.015167,2938,2879,8
1789464388.017714,1628,2874,8
1789464388.019001,2010,2877,8
1789464388.0210931,2980,2879,8
1789464388.023631,2759,2878,8
1789464388.024915,2526,2877,8
1789464388.027454,2389,2878,8
1789464388.029519,2319,2877,8
1789464388.030803,2160,2875,8
1789464388.033345,1953,2875,8
1789464388.0346649,1735,2874,8
1789464388.037087,1282,2874,8
1789464388.041892,1395,2874,8
1789464388.042294,2404,2877,8
1789464388.044109,2379,2877,8
1789464388.045578,1810,2874,8
1789464388.047492,2109,2878,8
1789464388.049233,2433,2879,8
1789464388.050715,1848,2875,8
1789464388.05329,1050,2875,8
1789464388.055517,1648,2875,8
1789464388.057826,2961,2878,8
1789464388.0591118,3155,2879,8
1789464388.061416,1944,2877,8
1789464388.063733,2016,2876,8
1789464388.0647879,2419,2878,8
1789464388.067329,2473,2877,8
1789464388.068613,2357,2875,8
1789464388.0711522,1912,2877,8
1789464388.0734541,1598,2875,8
1789464388.074738,1520,2875,8
1789464388.076805,1999,2877,8
1789464388.079096,2219,2877,8
1789464388.0815449,1886,2876,8
1789464388.082838,1921,2875,8
1789464388.0851321,2188,2876,8
1789464388.087201,2215,2876,8
1789464388.089269,2138,2875,8
1789464388.090556,1908,2875,8
1789464388.094839,1496,2873,8
1789464388.0952802,1733,2873,8
1789464388.097549,2505,2877,8
1789464388.099216,2282,2878,8
1789464388.101748,2049,2878,8
1789464388.1036701,2052,2874,8
1789464388.105431,2227,2875,8
1789464388.106733,2270,2880,8
1789464388.109282,2091,2875,8
1789464388.111594,1733,2874,8
1789464388.112886,1920,2876,8
1789464388.115181,1836,2874,8
1789464388.11763,1888,2875,8
1789464388.1189172,2271,2878,8
1789464388.1214569,2260,2877,8
1789464388.122744,1924,2875,8
1789464388.1252842,1956,2875,8
1789464388.126567,2497,2878,8
1789464388.1288729,2422,2877,8
1789464388.13117,2115,2877,8
1789464388.1336179,1895,2873,8
1789464388.134902,1988,2875,8
1789464388.137441,2014,2876,8
1789464388.138726,2006,2875,8
1789464388.1410189,1937,2875,8
1789464388.1433148,2198,2877,8
1789464388.147656,1893,2873,8
1789464388.148084,2200,2878,8
1789464388.150204,2015,2877,8
1789464388.151916,1894,2875,8
1789464388.1546528,2009,2876,8
1789464388.1564312,2398,2878,8
1789464388.156656,2351,2877,8
1789464388.159411,2200,2877,8
1789464388.16051,1858,2873,8
1789464388.16282,2012,2877,8
1789464388.16512,2064,2877,8
1789464388.16767,2062,2876,8
1789464388.168957,1987,2874,8
1789464388.171499,1981,2875,8
1789464388.1727831,2054,2875,8
1789464388.1752162,2046,2875,8
1789464388.177513,2249,2878,8
1789464388.178797,2100,2875,8
1789464388.181337,1825,2874,8
1789464388.1836312,2014,2875,8
1789464388.1849148,2198,2879,8
1789464388.187454,1962,2875,8
1789464388.188738,2139,2878,8
1789464388.191034,2297,2879,8
1789464388.193579,2011,2877,8
1789464388.194719,1670,2874,8
1789464388.197267,2122,2877,8
1789464388.201282,2228,2877,8
1789464388.20139,1982,2875,8
1789464388.203632,2148,2878,8
1789464388.204963,2240,2878,8
1789464388.208019,2324,2878,8
1789464388.2099469,2231,2878,8
1789464388.21188,2000,2874,8
1789464388.21294,2148,2878,8
1789464388.215153,2078,2874,8
1789464388.216526,1947,2874,8
1789464388.218836,1909,2875,8
1789464388.2209332,1985,2874,8
1789464388.22323,1686,2873,8
1789464388.22452,1895,2874,8
1789464388.2270641,2464,2878,8
1789464388.229373,2318,2877,8
1789464388.230656,2088,2877,8
1789464388.232957,1952,2875,8
1789464388.235499,2064,2876,8
1789464388.2367842,2248,2878,8
1789464388.2393239,2117,2875,8
1789464388.241548,2022,2877,8
1789464388.24284,1899,2874,8
1789464388.245137,1989,2877,8
1789464388.247376,2120,2876,8
1789464388.248513,2134,2877,8
1789464388.2542772,2142,2878,8
1789464388.2546518,2106,2875,8
1789464388.255379,2156,2875,8
1789464388.256861,2052,2875,8
1789464388.259649,2042,2876,8
1789464388.2615402,2083,2876,8
1789464388.2637398,1948,2877,8
1789464388.265485,1877,2874,8
1789464388.266538,2094,2878,8
1789464388.268847,2058,2875,8
1789464388.2711549,2080,2876,8
1789464388.273257,2016,2874,8
1789464388.275726,2152,2877,8
1789464388.27701,2264,2878,8
1789464388.279071,2096,2876,8
1789464388.281612,1933,2873,8
1789464388.282899,1936,2876,8
1789464388.2851999,2066,2876,8
1789464388.287502,2257,2877,8
1789464388.288786,2197,2879,8
1789464388.291332,2117,2877,8
1789464388.293401,1956,2877,8
1789464388.2945101,2095,2877,8
1789464388.297055,2102,2876,8
1789464388.299274,1700,2874,8
1789464388.300558,1612,2876,8
1789464388.302876,2481,2879,8
1789464388.305421,2444,2878,8
1789464388.309015,2186,2877,8
1789464388.309757,2059,2877,8
1789464388.311957,2089,2877,8
1789464388.3136718,2181,2878,8
1789464388.315168,2214,2878,8
1789464388.318552,2223,2877,8
1789464388.318728,2130,2875,8
1789464388.321048,1967,2875,8
1789464388.3235898,1765,2875,8
1789464388.324877,1990,2877,8
1789464388.327157,2074,2877,8
1789464388.3292842,2252,2877,8
1789464388.330574,2141,2877,8
1789464388.333112,1898,2874,8
1789464388.335333,2059,2876,8
1789464388.336617,2221,2878,8
1789464388.338915,2130,2877,8
1789464388.3414578,2054,2876,8
1789464388.3427432,2093,2877,8
1789464388.345284,1991,2876,8
1789464388.3465679,2104,2876,8
1789464388.348772,2228,2878,8
1789464388.3510752,1981,2875,8
1789464388.353482,2065,2876,8
1789464388.3547678,2130,2878,8
1789464388.357306,2067,2875,8
1789464388.3584251,2143,2876,8
1789464388.360974,2105,2876,8
1789464388.365577,2060,2876,8
1789464388.3656828,2082,2874,8
1789464388.367754,2115,2875,8
1789464388.369202,2093,2875,8
1789464388.370986,2061,2875,8
1789464388.374133,2039,2877,8
1789464388.375736,2038,2876,8
1789464388.3770292,2064,2876,8
1789464388.379342,2081,2875,8
1789464388.3804438,2050,2877,8
1789464388.3825111,2063,2876,8
1789464388.385057,2044,2875,8
1789464388.387599,2060,2875,8
1789464388.388652,2084,2878,8
1789464388.3911948,2042,2875,8
1789464388.393271,2028,2875,8
1789464388.394412,2117,2875,8
1789464388.396723,2086,2877,8
1789464388.39885,2019,2875,8
1789464388.401251,2187,2879,8
1789464388.402406,2169,2878,8
1789464388.40486,2105,2874,8
1789464388.407169,2082,2877,8
1789464388.408452,2098,2876,8
1789464388.410532,2127,2875,8
1789464388.4128242,2073,2876,8
1789464388.415123,1944,2875,8
1789464388.419347,2043,2876,8
1789464388.419803,2176,2879,8
1789464388.421689,2133,2879,8
1789464388.42341,2035,2874,8
1789464388.4246678,2065,2876,8
1789464388.427957,2034,2876,8
1789464388.43001,2076,2876,8
1789464388.4310641,2076,2877,8
1789464388.4333608,2091,2878,8
1789464388.434634,2115,2874,8
1789464388.436764,2077,2875,8
1789464388.439314,2024,2875,8
1789464388.440602,2058,2876,8
1789464388.443145,2131,2878,8
1789464388.44443,2095,2876,8
1789464388.446972,2013,2876,8
1789464388.449276,2002,2874,8
1789464388.450391,2111,2876,8
1789464388.4529338,2143,2878,8
1789464388.4552362,2053,2874,8
1789464388.456404,2018,2874,8
1789464388.4589498,2102,2876,8
1789464388.461489,2126,2875,8
1789464388.462773,2084,2876,8
1789464388.4650838,2087,2876,8
1789464388.467399,2075,2875,8
1789464388.4685,2088,2876,8
1789464388.4742908,2151,2879,8
1789464388.4750159,2091,2878,8
1789464388.4753878,2092,2877,8
1789464388.477898,2094,2876,8
1789464388.479451,2070,2877,8
1789464388.482636,2042,2877,8
1789464388.48274,2066,2875,8
1789464388.485326,2082,2876,8
1789464388.486618,2103,2875,8
1789464388.489165,2019,2874,8
1789464388.4904509,2025,2873,8
1789464388.492994,2119,2877,8
1789464388.495593,2124,2876,8
1789464388.496788,2040,2875,8
1789464388.499087,1973,2874,8
1789464388.500397,2089,2876,8
1789464388.502614,2094,2875,8
1789464388.505153,2016,2875,8
1789464388.506439,2040,2874,8
1789464388.508748,2177,2877,8
1789464388.510816,2157,2876,8
1789464388.513115,2084,2876,8
1789464388.5151758,2058,2877,8
1789464388.516466,2098,2876,8
1789464388.518535,2108,2875,8
1789464388.521077,2097,2876,8
1789464388.523387,2038,2876,8
1789464388.528398,2085,2876,8
1789464388.5287218,2107,2875,8
1789464388.528843,2041,2876,8
1789464388.531605,2016,2875,8
1789464388.5330229,2046,2874,8
1789464388.5363631,2097,2875,8
1789464388.536513,2111,2876,8
1789464388.539309,2088,2875,8
1789464388.540404,2076,2877,8
1789464388.542954,2119,2876,8
1789464388.545204,2096,2875,8
1789464388.546491,2044,2875,8
1789464388.548627,2038,2873,8
1789464388.550932,2091,2876,8
1789464388.553235,2110,2876,8
1789464388.555549,2099,2875,8
1789464388.5566049,2043,2875,8
1789464388.558903,2084,2876,8
1789464388.561444,2086,2875,8
1789464388.562492,2054,2875,8
1789464388.56479,2066,2876,8
1789464388.567339,2089,2875,8
1789464388.568534,2104,2876,8
1789464388.571074,2084,2876,8
1789464388.5731862,2040,2874,8
1789464388.574477,2086,2877,8
1789464388.577015,2127,2875,8
1789464388.582675,2091,2876,8
1789464388.583136,2007,2875,8
1789464388.583206,2062,2875,8
1789464388.584639,2096,2876,8
1789464388.5875561,2095,2875,8
1789464388.5891688,2076,2876,8
1789464388.5912619,2093,2877,8
1789464388.5930932,2123,2876,8
1789464388.594389,2096,2876,8
1789464388.5969338,2038,2875,8
1789464388.598277,2044,2875,8
1789464388.600584,2113,2878,8
1789464388.603127,2099,2876,8
1789464388.6044118,2092,2876,8
1789464388.606624,2051,2875,8
1789464388.609171,2128,2877,8
1789464388.610456,2129,2876,8
1789464388.6128798,2086,2875,8
1789464388.6154292,2028,2874,8
1789464388.6164658,2064,2876,8
1789464388.61877,2102,2876,8
1789464388.621073,2099,2876,8
1789464388.622357,2045,2875,8
1789464388.6249,2099,2876,8
1789464388.626261,2116,2876,8
1789464388.628577,2102,2875,8
1789464388.631118,2050,2877,8
1789464388.635378,2061,2874,8
1789464388.636058,2109,2875,8
1789464388.638022,2137,2877,8
1789464388.639494,2080,2875,8
1789464388.641122,2087,2876,8
1789464388.644209,2132,2876,8
1789464388.644313,2103,2876,8
1789464388.6469,2058,2875,8
1789464388.648958,2050,2875,8
1789464388.650269,2101,2876,8
1789464388.652732,2116,2876,8
1789464388.6552808,2076,2875,8
1789464388.6563241,2056,2877,8
1789464388.658632,2116,2875,8
1789464388.66094,2119,2876,8
1789464388.663414,2090,2876,8
1789464388.664703,2035,2876,8
1789464388.667243,2082,2874,8
1789464388.6685271,2111,2876,8
1789464388.6710668,2092,2876,8
1789464388.672351,2038,2875,8
1789464388.674891,2092,2876,8
1789464388.676278,2116,2875,8
1789464388.6788568,2079,2875,8
1789464388.681438,2038,2875,8
1789464388.682722,2079,2877,8
1789464388.684884,2104,2876,8
1789464388.686271,2124,2875,8
1789464388.691527,2076,2875,8
1789464388.691946,2069,2877,8
1789464388.6938272,2133,2875,8
1789464388.695487,2113,2876,8
1789464388.697237,2059,2875,8
1789464388.7008388,2034,2874,8
1789464388.701002,2071,2876,8
1789464388.7027671,2116,2876,8
1789464388.7049239,2065,2876,8
1789464388.706292,2046,2874,8
1789464388.713048,2079,2877,8
1789464388.714221,2107,2876,8
1789464388.714433,2068,2875,8
1789464388.715905,2042,2876,8
1789464388.717949,2083,2874,8
1789464388.7198038,2103,2876,8
1789464388.721728,2098,2876,8
1789464388.7231412,2068,2874,8
1789464388.724243,2114,2877,8
1789464388.726793,2139,2876,8
1789464388.729103,2074,2876,8
1789464388.73122,2050,2876,8
1789464388.732291,2051,2874,8
1789464388.734622,2111,2876,8
1789464388.7371461,2108,2875,8
1789464388.738313,2081,2876,8
1789464388.7406,2071,2875,8
1789464388.742839,2097,2875,8
1789464388.7451708,2092,2876,8
1789464388.746273,2061,2876,8
1789464388.748814,2064,2877,8
1789464388.751112,2088,2874,8
1789464388.752237,2055,2876,8
1789464388.7546098,2067,2876,8
1789464388.757018,2061,2875,8
1789464388.759118,2118,2876,8
1789464388.760245,2142,2876,8
1789464388.762411,2048,2876,8
1789464388.767841,2004,2874,8
1789464388.769717,2065,2875,8
1789464388.7699509,2115,2876,8
1789464388.7717981,2096,2876,8
1789464388.774872,2046,2875,8
1789464388.775088,2101,2876,8
1789464388.7771761,2155,2876,8
1789464388.778665,2098,2876,8
1789464388.780868,2023,2875,8
1789464388.782984,2042,2875,8
1789464388.785354,2109,2876,8
1789464388.7866418,2101,2876,8
1789464388.789184,2089,2875,8
1789464388.790468,2086,2877,8
1789464388.792885,2103,2876,8
1789464388.7941692,2100,2876,8
1789464388.796708,2063,2875,8
1789464388.7991831,2052,2875,8
1789464388.800245,2092,2876,8
1789464388.802361,2105,2876,8
1789464388.804662,2056,2876,8
1789464388.806866,2016,2875,8
1789464388.809172,2082,2877,8
1789464388.810343,2090,2876,8
1789464388.812885,2048,2876,8
1789464388.814173,2012,2874,8
1789464388.816233,2059,2875,8
1789464388.821822,2095,2875,8
1789464388.82224,2062,2876,8
1789464388.8229592,2073,2874,8
1789464388.824339,2093,2876,8
1789464388.826772,2113,2875,8
1789464388.828421,2090,2877,8
1789464388.83073,2035,2876,8
1789464388.832726,2033,2874,8
1789464388.835072,2086,2876,8
1789464388.837226,2103,2876,8
1789464388.838277,2073,2876,8
1789464388.8405812,2070,2877,8
1789464388.842889,2089,2875,8
1789464388.845199,2085,2876,8
1789464388.846482,2053,2876,8
1789464388.849029,2038,2874,8
1789464388.850317,2086,2875,8
1789464388.852608,2116,2876,8
1789464388.8551471,2097,2876,8
1789464388.856195,2054,2875,8
1789464388.858248,2091,2877,8
1789464388.86079,2097,2875,8
1789464388.8621519,2060,2876,8
1789464388.864461,2036,2877,8
1789464388.866529,2051,2875,8
1789464388.8688252,2077,2876,8
1789464388.8708851,2071,2876,8
1789464388.875508,2035,2874,8
1789464388.8759282,2067,2877,8
1789464388.8779368,2138,2876,8
1789464388.879832,2094,2875,8
1789464388.8816278,2094,2875,8
1789464388.883075,2058,2875,8
1789464388.885016,2063,2875,8
1789464388.886419,2052,2875,8
1789464388.88874,2043,2876,8
1789464388.891074,2046,2874,8
1789464388.8921611,2100,2875,8
1789464388.894467,2070,2876,8
1789464388.896775,2014,2876,8
1789464388.899067,2010,2873,8
1789464388.9003499,2112,2876,8
1789464388.902889,2122,2876,8
1789464388.9041731,2150,2878,8
1789464388.906721,2056,2875,8
1789464388.909272,2098,2876,8
1789464388.910321,2124,2875,8
1789464388.912616,2046,2876,8
1789464388.915159,2024,2876,8
1789464388.916449,2047,2874,8
1789464388.918945,2093,2875,8
1789464388.921251,2112,2875,8
1789464388.922535,2069,2875,8
1789464388.925077,2050,2877,8
1789464388.929643,2115,2876,8
1789464388.9303858,2099,2875,8
1789464388.93075,2026,2877,8
1789464388.932369,2055,2874,8
1789464388.935861,2100,2875,8
1789464388.9388108,2093,2876,8
1789464388.938943,2032,2876,8
1789464388.940655,2063,2878,8
1789464388.94297,2070,2877,8
1789464388.9453309,2100,2876,8
1789464388.946622,2065,2875,8
1789464388.9490921,2045,2877,8
1789464388.950376,2103,2878,8
1789464388.952683,2103,2876,8
1789464388.955136,2095,2876,8
1789464388.9564228,2108,2878,8
1789464388.958714,2105,2876,8
1789464388.961262,2093,2875,8
1789464388.9623082,2034,2876,8
1789464388.9643798,2035,2876,8
1789464388.9666939,2076,2876,8
1789464388.9687622,2098,2876,8
1789464388.9710631,2092,2876,8
1789464388.97235,2058,2875,8
1789464388.97489,2089,2877,8
1789464388.977194,2110,2876,8
1789464388.978335,2111,2876,8
1789464388.981938,2045,2877,8
1789464388.9833689,2032,2875,8
1789464388.986075,2094,2876,8
1789464388.986179,2081,2877,8
1789464388.9887118,2062,2876,8
1789464388.9907131,2070,2877,8
1789464388.992672,2116,2875,8
1789464388.995223,2116,2875,8
1789464388.996518,2049,2877,8
1789464388.999063,2018,2874,8
1789464389.000136,2114,2878,8
1789464389.002678,2110,2876,8
1789464389.005218,2080,2876,8
1789464389.006262,2030,2875,8
1789464389.008488,2076,2877,8
1789464389.011033,2096,2875,8
1789464389.012107,2083,2876,8
1789464389.01441,2068,2876,8
1789464389.01696,2073,2874,8
1789464389.01825,2068,2876,8
1789464389.020549,2063,2876,8
1789464389.023089,2023,2875,8
1789464389.024374,2057,2877,8
1789464389.0264452,2102,2875,8
1789464389.029001,2088,2875,8
1789464389.0302908,2015,2877,8
1789464389.035825,2013,2875,8
1789464389.036285,2054,2876,8
1789464389.037046,2116,2876,8
1789464389.039831,2053,2876,8
1789464389.0415528,2075,2876,8
1789464389.042659,2096,2875,8
1789464389.044296,2106,2875,8
1789464389.0470998,2037,2876,8
1789464389.0481422,2015,2874,8
1789464389.050684,2065,2875,8
1789464389.053226,2102,2877,8
1789464389.0544589,2077,2876,8
1789464389.057014,2056,2875,8
1789464389.0583072,2111,2876,8
1789464389.060362,2093,2876,8
1789464389.06245,2083,2875,8
1789464389.0649931,2040,2876,8
1789464389.066176,2058,2876,8
1789464389.068522,2102,2876,8
1789464389.070826,2084,2875,8
1789464389.0731368,2047,2875,8
1789464389.074424,2076,2877,8
1789464389.076728,2126,2877,8
1789464389.078013,2077,2875,8
1789464389.080384,2036,2877,8
1789464389.082828,2030,2874,8
1789464389.0867789,2079,2876,8
1789464389.08722,2110,2876,8
1789464389.088553,2057,2875,8
1789464389.091359,2054,2876,8
1789464389.093107,2097,2875,8
1789464389.094684,2103,2875,8
1789464389.096607,2048,2875,8
1789464389.098026,2026,2874,8
1789464389.100346,2075,2876,8
1789464389.102644,2103,2876,8
1789464389.104023,2084,2876,8
1789464389.106577,2053,2875,8
1789464389.1086562,2104,2876,8
1789464389.1109602,2108,2876,8
1789464389.112229,2048,2876,8
1789464389.11444,2014,2872,8
1789464389.116749,2077,2875,8
1789464389.118025,2095,2875,8
1789464389.120212,2111,2876,8
1789464389.1223192,2054,2875,8
1789464389.1248589,2079,2876,8
1789464389.12615,2104,2875,8
1789464389.128425,2111,2877,8
1789464389.13072,2048,2877,8
1789464389.133009,2009,2874,8
1789464389.137516,2066,2876,8
1789464389.137664,2071,2876,8
1789464389.139619,2053,2876,8
1789464389.141092,2034,2874,8
1789464389.1429179,2103,2875,8
1789464389.144352,2092,2875,8
1789464389.146128,2080,2875,8
1789464389.1486778,2010,2874,8
1789464389.150026,2017,2875,8
1789464389.152583,2069,2876,8
1789464389.1550689,2129,2878,8
1789464389.1563551,2093,2876,8
1789464389.158895,2073,2877,8
1789464389.160963,2099,2875,8
1789464389.1620202,2072,2876,8
1789464389.1645591,2038,2878,8
1789464389.1666932,2100,2875,8
1789464389.1689868,2097,2876,8
1789464389.171306,2053,2876,8
1789464389.17259,2052,2875,8
1789464389.1751108,2039,2876,8
1789464389.176157,2049,2876,8
1789464389.178268,2056,2875,8
1789464389.180577,1977,2874,8
1789464389.182881,1976,2875,8
1789464389.184949,2150,2878,8
1789464389.1871061,2215,2877,8
1789464389.191263,2159,2878,8
1789464389.1917472,2082,2876,8
1789464389.193762,2089,2876,8
1789464389.195667,2071,2876,8
1789464389.197313,2099,2876,8
1789464389.200004,2028,2875,8
1789464389.200216,2046,2875,8
1789464389.202615,2033,2875,8
1789464389.2048142,1998,2875,8
1789464389.206112,2049,2876,8
1789464389.208431,2154,2876,8
1789464389.2106261,2067,2876,8
1789464389.212929,2008,2876,8
1789464389.214025,2085,2877,8
1789464389.216332,2101,2878,8
1789464389.2188768,2126,2878,8
1789464389.220161,2096,2875,8
1789464389.2224672,2118,2878,8
1789464389.2245278,2096,2876,8
1789464389.22683,2077,2878,8
1789464389.2289238,2066,2876,8
1789464389.230211,2059,2877,8
1789464389.232359,2022,2875,8
1789464389.234664,2057,2876,8
1789464389.236963,2064,2876,8
1789464389.238253,1827,2875,8
1789464389.240486,1957,2874,8
1789464389.242878,2272,2878,8
1789464389.246782,2160,2876,8
1789464389.247197,1952,2875,8
1789464389.2489338,1967,2875,8
1789464389.2504902,2144,2878,8
1789464389.253293,2240,2878,8
1789464389.25489,2158,2878,8
1789464389.2570019,1982,2875,8
1789464389.2580621,2076,2877,8
1789464389.260183,2070,2877,8
1789464389.262733,2056,2876,8
1789464389.266867,2103,2878,8
1789464389.267314,2183,2878,8
1789464389.269024,2027,2875,8
1789464389.270804,1916,2875,8
1789464389.273788,1963,2875,8
1789464389.275483,2091,2878,8
1789464389.277308,2140,2877,8
1789464389.2786062,2064,2876,8
1789464389.281156,1978,2877,8
1789464389.282202,1886,2874,8
1789464389.284346,2014,2875,8
1789464389.286859,2195,2879,8
1789464389.288108,2183,2877,8
1789464389.290658,2033,2876,8
1789464389.291948,2098,2877,8
1789464389.294028,2331,2878,8
1789464389.2965739,1997,2877,8
1789464389.298701,1966,2875,8
1789464389.29999,2081,2875,8
1789464389.3022919,2190,2878,8
1789464389.304551,2154,2878,8
1789464389.3070898,2037,2876,8
1789464389.3081448,2153,2877,8
1789464389.310509,2040,2875,8
1789464389.311936,2101,2877,8
1789464389.31449,1934,2875,8
1789464389.316704,1937,2874,8
1789464389.317991,2134,2876,8
1789464389.3202088,2616,2878,8
1789464389.324766,2000,2876,8
1789464389.325529,1895,2874,8
1789464389.327397,1936,2874,8
1789464389.3289752,1947,2874,8
1789464389.331978,1823,2875,8
1789464389.332056,1863,2875,8
1789464389.335156,1931,2874,8
1789464389.3364558,2108,2877,8
1789464389.337944,2626,2878,8
1789464389.340278,1988,2875,8
1789464389.345113,1934,2874,8
1789464389.345866,1978,2874,8
1789464389.346362,2469,2878,8
1789464389.348045,2125,2874,8
1789464389.350807,2102,2875,8
1789464389.352418,2236,2878,8
1789464389.355805,2202,2876,8
1789464389.355893,1933,2875,8
1789464389.3579452,1817,2874,8
1789464389.360259,1820,2875,8
1789464389.362463,2074,2876,8
1789464389.364765,1997,2876,8
1789464389.366053,2391,2877,8
1789464389.368151,2150,2877,8
1789464389.37072,2045,2877,8
1789464389.372009,1846,2873,8
1789464389.374138,2116,2876,8
1789464389.376205,2448,2879,8
1789464389.3785138,2391,2878,8
1789464389.380725,2181,2878,8
1789464389.383038,1896,2876,8
1789464389.3843231,1973,2875,8
1789464389.38644,1943,2875,8
1789464389.388733,1927,2874,8
1789464389.390016,1645,2874,8
1789464389.3925362,2132,2877,8
1789464389.394829,2595,2878,8
1789464389.39848,2085,2877,8
1789464389.3992698,1783,2875,8
1789464389.400788,2056,2875,8
1789464389.402714,1826,2876,8
1789464389.404236,1696,2875,8
1789464389.406972,2295,2878,8
1789464389.4089742,1589,2873,8
1789464389.4100218,781,2873,8
1789464389.412566,2568,2877,8
1789464389.413884,3773,2882,8
1789464389.4164312,2822,2878,8
1789464389.4187572,2113,2877,8
1789464389.419887,1658,2875,8
1789464389.4224288,2049,2876,8
1789464389.424504,2775,2878,8
1789464389.426579,2750,2877,8
1789464389.427926,1980,2875,8
1789464389.4299881,1543,2873,8
1789464389.432529,1278,2874,8
1789464389.433873,1950,2875,8
1789464389.436182,1922,2875,8
1789464389.438488,2367,2878,8
1789464389.440785,2641,2878,8
1789464389.4420679,1843,2874,8
1789464389.444396,1457,2874,8
1789464389.446938,2326,2877,8
1789464389.447994,2281,2878,8
1789464389.452838,2077,2877,8
1789464389.4536629,2322,2877,8
1789464389.4553769,2525,2879,8
1789464389.457547,2101,2874,8
1789464389.46016,1716,2875,8
1789464389.460316,2315,2877,8
1789464389.4619951,2266,2878,8
1789464389.464772,1762,2873,8
1789464389.466065,2123,2877,8
1789464389.4685152,2325,2878,8
1789464389.470827,1972,2874,8
1789464389.472113,2053,2875,8
1789464389.474428,2221,2878,8
1789464389.476941,2146,2875,8
1789464389.4779918,1954,2875,8
1789464389.480532,1983,2874,8
1789464389.482622,2114,2877,8
1789464389.483913,1996,2877,8
1789464389.486208,1840,2874,8
1789464389.4882638,2010,2875,8
1789464389.490408,2022,2875,8
1789464389.4927151,2142,2877,8
1789464389.4950202,2275,2877,8
1789464389.496304,2065,2876,8
1789464389.4985971,1269,2874,8
1789464389.500892,1626,2874,8
1789464389.502188,2506,2878,8
1789464389.508302,2230,2877,8
1789464389.508747,2027,2876,8
1789464389.509163,2252,2878,8
1789464389.510688,2346,2878,8
1789464389.512251,2195,2878,8
1789464389.5151381,1900,2875,8
1789464389.516914,2091,2875,8
1789464389.518543,2068,2874,8
1789464389.520621,1732,2875,8
1789464389.5218291,1962,2874,8
1789464389.52438,2141,2877,8
1789464389.5298162,2058,2877,8
1789464389.530095,2194,2877,8
1789464389.531148,2193,2876,8
1789464389.5328681,2046,2875,8
1789464389.534442,2164,2876,8
1789464389.53625,2085,2876,8
1789464389.538956,2112,2878,8
1789464389.540004,1874,2873,8
1789464389.5423071,1883,2873,8
1789464389.54475,1937,2874,8
1789464389.5460339,2088,2877,8
1789464389.54814,2067,2874,8
1789464389.550442,1972,2875,8
1789464389.551767,2140,2877,8
1789464389.55406,2308,2878,8
1789464389.5566,1867,2874,8
1789464389.55789,1951,2875,8
1789464389.560429,2371,2877,8
1789464389.562736,2434,2878,8
1789464389.5640252,1999,2874,8
1789464389.566335,1938,2875,8
1789464389.568639,2227,2878,8
1789464389.5699232,2008,2875,8
1789464389.572463,1929,2875,8
1789464389.574728,2006,2875,8
1789464389.5759501,1911,2874,8
1789464389.580162,1670,2874,8
1789464389.580588,2189,2876,8
1789464389.582069,2643,2877,8
1789464389.58528,1962,2874,8
1789464389.588243,1803,2874,8
1789464389.588363,2318,2877,8
1789464389.590018,2427,2878,8
1789464389.592565,2191,2876,8
1789464389.593868,1878,2874,8
1789464389.596427,2124,2876,8
1789464389.600645,2188,2877,8
1789464389.601054,2281,2877,8
1789464389.602376,2002,2875,8
1789464389.603816,1829,2874,8
1789464389.606706,1593,2874,8
1789464389.6085372,2004,2875,8
1789464389.610118,2557,2878,8
1789464389.612564,2256,2876,8
1789464389.613781,1751,2873,8
1789464389.61633,1459,2874,8
1789464389.618384,1916,2874,8
1789464389.620745,2336,2878,8
1789464389.621781,2470,2878,8
1789464389.624085,2283,2877,8
1789464389.626575,2234,2877,8
1789464389.627858,2023,2878,8
1789464389.630396,1916,2874,8
1789464389.632704,2114,2875,8
1789464389.633756,2398,2878,8
1789464389.635809,2341,2878,8
1789464389.6381109,1997,2875,8
1789464389.640651,2042,2877,8
1789464389.641942,1984,2877,8
1789464389.644483,1715,2874,8
1789464389.6457741,1828,2875,8
1789464389.648024,2222,2878,8
1789464389.6506722,2179,2878,8
1789464389.654752,2021,2874,8
1789464389.655195,1959,2873,8
1789464389.6574059,1934,2875,8
1789464389.658793,2067,2875,8
1789464389.660737,2128,2877,8
1789464389.662189,2213,2877,8
1789464389.664103,2100,2877,8
1789464389.666848,1676,2874,8
1789464389.667954,2141,2878,8
1789464389.6705122,2103,2878,8
1789464389.672588,2111,2879,8
1789464389.673813,2108,2877,8
1789464389.675871,2181,2876,8
1789464389.678425,2386,2877,8
1789464389.679771,2253,2878,8
1789464389.682073,2013,2875,8
1789464389.6843672,1737,2876,8
1789464389.68692,1998,2875,8
1789464389.68821,2335,2877,8
1789464389.690272,2314,2878,8
1789464389.692582,2032,2877,8
1789464389.693753,2023,2877,8
1789464389.696301,1883,2874,8
1789464389.698719,1808,2875,8
1789464389.700008,2116,2876,8
1789464389.7024372,2347,2878,8
1789464389.704758,2202,2876,8
1789464389.708585,2001,2877,8
1789464389.709821,2070,2876,8
1789464389.710219,2082,2876,8
1789464389.713464,2125,2878,8
1789464389.715028,2135,2878,8
1789464389.718261,2076,2875,8
1789464389.718462,2100,2876,8
1789464389.720402,1979,2875,8
1789464389.7217531,1969,2874,8
1789464389.7240682,1854,2873,8
1789464389.7297091,1986,2877,8
1789464389.73047,2100,2876,8
1789464389.731435,1991,2874,8
1789464389.7332668,2135,2878,8
1789464389.734795,2094,2875,8
1789464389.738058,2058,2876,8
1789464389.738273,2004,2875,8
1789464389.739914,2052,2877,8
1789464389.7424629,2290,2878,8
1789464389.743753,2209,2875,8
1789464389.746177,2102,2875,8
1789464389.748717,1876,2874,8
1789464389.750005,2077,2875,8
1789464389.752311,2238,2879,8
1789464389.754621,2097,2875,8
1789464389.7559118,2019,2875,8
1789464389.75845,1992,2876,8
1789464389.759664,2130,2877,8
1789464389.761966,2050,2876,8
1789464389.764514,2050,2877,8
1789464389.7668219,2014,2875,8
1789464389.76811,1882,2876,8
1789464389.770412,1852,2875,8
1789464389.771696,2206,2878,8
1789464389.774105,2298,2877,8
1789464389.776654,2180,2877,8
1789464389.7779431,2101,2876,8
1789464389.783068,2131,2877,8
1789464389.783178,2054,2875,8
1789464389.785383,2179,2877,8
1789464389.7872572,2114,2877,8
1789464389.7899232,1936,2875,8
1789464389.7900548,1942,2875,8
1789464389.7921221,1972,2877,8
1789464389.794878,2129,2876,8
1789464389.796166,2059,2876,8
1789464389.798483,2119,2876,8
1789464389.799624,2272,2877,8
1789464389.803515,2293,2879,8
1789464389.805203,2121,2875,8
1789464389.806884,1945,2875,8
1789464389.809365,2130,2876,8
1789464389.811291,2201,2876,8
1789464389.813285,2040,2877,8
1789464389.8145761,2048,2876,8
1789464389.815864,1969,2874,8
1789464389.817944,2127,2876,8
1789464389.820322,2181,2876,8
1789464389.821686,2048,2876,8
1789464389.8241029,2008,2875,8
1789464389.8266501,2100,2877,8
1789464389.827693,1993,2876,8
1789464389.830234,1947,2875,8
1789464389.8326411,2041,2876,8
1789464389.833691,2237,2877,8
1789464389.8359869,2197,2878,8
1789464389.838284,1838,2876,8
1789464389.839658,2078,2875,8
1789464389.842209,2307,2878,8
1789464389.844762,2150,2876,8
1789464389.846055,2120,2875,8
1789464389.848601,2007,2876,8
1789464389.849752,2035,2875,8
1789464389.8522902,2167,2876,8
1789464389.856291,2147,2876,8
1789464389.8566358,2052,2875,8
1789464389.8591611,2047,2877,8
1789464389.860749,2005,2876,8
1789464389.863332,2041,2876,8
1789464389.865579,2072,2876,8
1789464389.865821,2028,2875,8
1789464389.868468,2081,2876,8
1789464389.8697531,2075,2876,8
1789464389.8720598,2081,2876,8
1789464389.874291,2082,2877,8
1789464389.875652,2112,2876,8
1789464389.878199,2057,2876,8
1789464389.880507,2032,2875,8
1789464389.8817909,1971,2875,8
1789464389.884337,2070,2877,8
1789464389.9212642,2141,2875,8
1789464389.921333,2079,2877,8
1789464389.9213681,2059,2875,8
1789464389.921397,2167,2877,8
1789464389.921424,2159,2875,8
1789464389.92145,2091,2876,8
1789464389.921503,2026,2876,8
1789464389.921539,2066,2874,8
1789464389.921568,2094,2876,8
1789464389.9215958,2112,2876,8
1789464389.921629,2042,2875,8
1789464389.921655,2057,2877,8
1789464389.9216828,2116,2876,8
1789464389.9217112,2000,2875,8
1789464389.921737,2011,2877,8
1789464389.9217641,2076,2878,8
1789464389.921791,2128,2877,8
1789464389.921817,2092,2875,8
1789464389.921846,2084,2875,8
1789464389.927392,2077,2877,8
1789464389.927698,2127,2877,8
1789464389.927853,2113,2875,8
1789464389.930368,2052,2876,8
1789464389.931697,2025,2874,8
1789464389.934277,2067,2874,8
1789464389.935638,2123,2876,8
1789464389.938185,2116,2876,8
1789464389.940423,2075,2877,8
1789464389.941709,2063,2876,8
1789464389.94425,2052,2875,8
1789464389.94641,2044,2874,8
1789464389.947695,2032,2876,8
1789464389.950005,2073,2874,8
1789464389.9523041,2111,2879,8
1789464389.9536378,2097,2875,8
1789464389.9561799,2062,2875,8
1789464389.958727,2078,2877,8
1789464389.960012,2108,2876,8
1789464389.962411,2090,2876,8
1789464389.965888,2067,2877,8
1789464389.966611,2015,2875,8
1789464389.968672,2021,2876,8
1789464389.9701009,2072,2876,8
1789464389.973268,2072,2875,8
1789464389.975544,2074,2877,8
1789464389.97569,2092,2875,8
1789464389.9782941,2122,2875,8
1789464389.9796212,2114,2876,8
1789464389.9821599,2116,2877,8
1789464389.9858859,2161,2877,8
1789464389.986603,2104,2877,8
1789464389.988259,2082,2876,8
1789464389.9899352,2088,2877,8
1789464389.992739,2106,2877,8
1789464389.995025,2109,2876,8
1789464389.997001,2065,2876,8
1789464389.9981198,2022,2875,8
1789464390.000664,2054,2874,8
1789464390.001951,2060,2877,8
1789464390.0044942,2059,2876,8
1789464390.005661,2007,2874,8
1789464390.0082078,2069,2877,8
1789464390.010632,2185,2875,8
1789464390.011679,2127,2876,8
1789464390.013986,2044,2877,8
1789464390.016161,2080,2877,8
1789464390.018709,2109,2876,8
1789464390.0199208,2142,2876,8
1789464390.022042,2098,2876,8
1789464390.024584,2086,2878,8
1789464390.025894,2149,2876,8
1789464390.027955,2136,2876,8
1789464390.030081,2047,2875,8
1789464390.0326211,2024,2874,8
1789464390.033904,2066,2875,8
1789464390.0361059,2106,2875,8
1789464390.0399842,2109,2876,8
1789464390.0410721,2038,2875,8
1789464390.042413,2089,2877,8
1789464390.044022,2071,2876,8
1789464390.046793,2061,2876,8
1789464390.048685,2037,2876,8
1789464390.050443,2068,2874,8
1789464390.051735,2101,2876,8
1789464390.054049,2107,2876,8
1789464390.0566,2077,2875,8
1789464390.0606441,2096,2877,8
1789464390.0610812,2123,2875,8
1789464390.0626361,2099,2877,8
1789464390.0641081,2035,2877,8
1789464390.06587,2039,2874,8
1789464390.0688288,2097,2875,8
1789464390.0707462,2112,2877,8
1789464390.0720608,2092,2876,8
1789464390.0743701,2055,2877,8
1789464390.0756621,2108,2875,8
1789464390.078204,2115,2875,8
1789464390.079499,2081,2876,8
1789464390.082046,2054,2877,8
1789464390.084586,2081,2875,8
1789464390.0858712,2121,2875,8
1789464390.0884109,2095,2876,8
1789464390.089695,2055,2875,8
1789464390.092148,2094,2877,8
1789464390.09352,2103,2876,8
1789464390.096069,2070,2875,8
1789464390.098141,2046,2875,8
1789464390.100447,2054,2875,8
1789464390.101509,2102,2875,8
1789464390.103671,2125,2878,8
1789464390.1062112,2077,2874,8
1789464390.108356,2072,2876,8
1789464390.109482,2109,2875,8
1789464390.11391,2084,2876,8
1789464390.114036,2059,2876,8
1789464390.117036,2025,2875,8
1789464390.118528,2078,2876,8
1789464390.120137,2102,2875,8
1789464390.122147,2067,2875,8
1789464390.123648,2027,2875,8
1789464390.1257658,2117,2876,8
1789464390.1283169,2136,2875,8
1789464390.129621,2104,2875,8
1789464390.133597,2047,2876,8
1789464390.133698,2057,2874,8
1789464390.135691,2107,2876,8
1789464390.138546,2091,2876,8
1789464390.14204,2060,2875,8
1789464390.142196,2109,2877,8
1789464390.1437252,2105,2876,8
1789464390.146039,2081,2876,8
1789464390.1483462,2050,2877,8
1789464390.149632,2075,2878,8
1789464390.15193,2108,2875,8
1789464390.154471,2079,2876,8
1789464390.155756,2067,2876,8
1789464390.1582952,2057,2877,8
1789464390.1595788,2113,2876,8
1789464390.1616561,2060,2876,8
1789464390.1641989,2070,2876,8
1789464390.166508,2050,2877,8
1789464390.167794,2109,2877,8
1789464390.170099,2101,2876,8
1789464390.172391,2087,2876,8
1789464390.173528,2081,2878,8
1789464390.1758342,2109,2876,8
1789464390.178139,2091,2877,8
1789464390.1795561,2066,2876,8
1789464390.182102,2032,2877,8
1789464390.186232,2065,2875,8
1789464390.186938,2100,2875,8
1789464390.1889112,2103,2876,8
1789464390.190503,2060,2876,8
1789464390.1922948,2099,2877,8
1789464390.195412,2136,2877,8
1789464390.195672,2112,2876,8
1789464390.198177,2050,2875,8
1789464390.200248,2071,2878,8
1789464390.201547,2098,2876,8
1789464390.2036679,2108,2876,8
1789464390.205971,2075,2875,8
1789464390.208512,2083,2877,8
1789464390.209739,2123,2876,8
1789464390.2122822,2105,2875,8
1789464390.213572,2068,2876,8
1789464390.215633,2039,2873,8
1789464390.217937,2080,2874,8
1789464390.2204769,2107,2876,8
1789464390.221764,2086,2876,8
1789464390.224305,2075,2877,8
1789464390.226356,2128,2875,8
1789464390.2284229,2096,2875,8
1789464390.229708,2055,2875,8
1789464390.231998,2036,2877,8
1789464390.234539,2082,2875,8
1789464390.235585,2128,2875,8
1789464390.2408772,2108,2876,8
1789464390.240963,2036,2875,8
1789464390.243191,2069,2877,8
1789464390.2449338,2150,2875,8
1789464390.2475781,2139,2876,8
1789464390.247804,2067,2876,8
1789464390.2496252,2035,2875,8
1789464390.2524621,2095,2875,8
1789464390.253519,2110,2875,8
1789464390.255826,2062,2876,8
1789464390.257941,2069,2876,8
1789464390.2602549,2099,2875,8
1789464390.261409,2065,2875,8
1789464390.263484,2011,2876,8
1789464390.265543,2010,2874,8
1789464390.267612,2068,2876,8
1789464390.270153,2107,2876,8
1789464390.272459,2071,2876,8
1789464390.2737422,2049,2875,8
1789464390.276284,2095,2877,8
1789464390.277406,2101,2875,8
1789464390.279713,2083,2877,8
1789464390.282015,2041,2876,8
1789464390.284072,2076,2874,8
1789464390.286229,2088,2876,8
1789464390.287515,2104,2875,8
1789464390.2900622,2052,2874,8
1789464390.294344,2081,2876,8
1789464390.294407,2094,2875,8
1789464390.29625,2090,2875,8
1789464390.298029,2068,2875,8
1789464390.2997692,2059,2875,8
1789464390.3029618,2088,2876,8
1789464390.304569,2071,2877,8
1789464390.305624,2060,2876,8
1789464390.3076868,2044,2875,8
1789464390.3102279,2105,2878,8
1789464390.3123221,2092,2876,8
1789464390.3134139,2048,2875,8
1789464390.315965,2034,2874,8
1789464390.3185081,2090,2875,8
1789464390.31966,2087,2874,8
1789464390.3219619,2072,2875,8
1789464390.324354,2060,2875,8
1789464390.325523,2125,2875,8
1789464390.327599,2118,2875,8
1789464390.330142,2075,2875,8
1789464390.332441,2056,2876,8
1789464390.333493,2069,2874,8
1789464390.335788,2070,2875,8
1789464390.3379462,2058,2875,8
1789464390.340254,2015,2875,8
1789464390.341538,2057,2876,8
1789464390.343665,2080,2876,8
1789464390.3475971,2047,2876,8
1789464390.3477068,2015,2876,8
1789464390.3506691,2041,2875,8
1789464390.3520372,2089,2875,8
1789464390.353569,2105,2877,8
1789464390.356703,2078,2876,8
1789464390.357759,2087,2876,8
1789464390.360301,2142,2876,8
1789464390.361383,2135,2875,8
