timestamp,ch1,ch2,label
1789464416.560262,2093,2876,9
1789464416.562656,2073,2875,9
1789464416.5640671,2107,2877,9
1789464416.5662851,2113,2877,9
1789464416.567945,2076,2876,9
1789464416.56963,2045,2876,9
1789464416.571612,2055,2875,9
1789464416.57392,2099,2876,9
1789464416.575208,2100,2875,9
1789464416.577767,2059,2876,9
1789464416.579061,2079,2877,9
1789464416.5816052,2114,2876,9
1789464416.5840309,2118,2876,9
1789464416.5853171,2023,2876,9
1789464416.587858,2040,2875,9
1789464416.5891478,2073,2876,9
1789464416.591688,2108,2876,9
1789464416.593979,2072,2877,9
1789464416.595264,2049,2875,9
1789464416.597806,2104,2875,9
1789464416.599005,2112,2875,9
1789464416.6028008,2057,2875,9
1789464416.604985,2043,2877,9
1789464416.605205,2069,2876,9
1789464416.607907,2115,2878,9
1789464416.609496,2108,2876,9
1789464416.611957,2046,2874,9
1789464416.613247,2085,2878,9
1789464416.615353,2105,2876,9
1789464416.617663,2089,2875,9
1789464416.619735,2035,2876,9
1789464416.6220338,2062,2874,9
1789464416.623318,2106,2877,9
1789464416.62537,2089,2876,9
1789464416.627923,2043,2876,9
1789464416.6292129,2075,2877,9
1789464416.631521,2122,2878,9
1789464416.633587,2087,2876,9
1789464416.635892,2059,2876,9
1789464416.63695,2045,2874,9
1789464416.642188,2115,2878,9
1789464416.642272,2092,2876,9
1789464416.6443698,2075,2876,9
1789464416.646294,2061,2875,9
1789464416.649274,2107,2877,9
1789464416.650124,2114,2876,9
1789464416.652081,2062,2876,9
1789464416.6533709,2034,2877,9
1789464416.655682,2073,2875,9
1789464416.6569731,2108,2877,9
1789464416.659034,2102,2876,9
1789464416.6611042,2071,2876,9
1789464416.6631858,2101,2877,9
1789464416.66526,2112,2876,9
1789464416.667487,2076,2875,9
1789464416.670043,2043,2876,9
1789464416.671328,2053,2875,9
1789464416.673671,2083,2875,9
1789464416.674965,2100,2876,9
1789464416.6775072,2061,2876,9
1789464416.679567,2071,2876,9
1789464416.6844218,2096,2877,9
1789464416.684874,2094,2876,9
1789464416.685305,2048,2876,9
1789464416.6884081,2036,2874,9
1789464416.691062,2078,2876,9
1789464416.6912372,2092,2877,9
1789464416.6937249,2084,2875,9
1789464416.695016,2075,2878,9
1789464416.697319,2097,2876,9
1789464416.6998699,2074,2876,9
1789464416.701157,2065,2876,9
1789464416.7036989,2026,2874,9
1789464416.704983,2061,2876,9
1789464416.707524,2083,2877,9
1789464416.708976,2081,2876,9
1789464416.711294,2040,2875,9
1789464416.713366,2084,2878,9
1789464416.7155561,2113,2875,9
1789464416.716894,2078,2877,9
1789464416.719188,2048,2876,9
1789464416.7243369,2059,2874,9
1789464416.72475,2083,2876,9
1789464416.726769,2103,2876,9
1789464416.726939,2060,2875,9
1789464416.729883,2082,2877,9
1789464416.731609,2103,2876,9
1789464416.7329879,2083,2875,9
1789464416.735546,2043,2877,9
1789464416.736918,2034,2875,9
1789464416.739487,2079,2876,9
1789464416.745255,2085,2876,9
1789464416.745951,2062,2877,9
1789464416.747458,2043,2875,9
1789464416.74769,2119,2876,9
1789464416.749109,2110,2876,9
1789464416.7518709,2073,2876,9
1789464416.754359,2029,2876,9
1789464416.755421,2072,2875,9
1789464416.7579782,2081,2876,9
1789464416.75927,2081,2875,9
1789464416.761577,2062,2875,9
1789464416.7628648,2068,2877,9
1789464416.7649338,2107,2876,9
1789464416.767474,2062,2876,9
1789464416.769851,2040,2877,9
1789464416.77115,2051,2875,9
1789464416.773215,2108,2876,9
1789464416.775518,2114,2876,9
1789464416.776865,2064,2876,9
1789464416.7792242,2067,2877,9
1789464416.784259,2119,2877,9
1789464416.784895,2099,2876,9
1789464416.785003,2053,2877,9
1789464416.788043,2040,2874,9
1789464416.790377,2077,2875,9
1789464416.792396,2096,2877,9
1789464416.793695,2070,2877,9
1789464416.794881,2057,2874,9
1789464416.7972639,2111,2877,9
1789464416.799579,2131,2875,9
1789464416.804566,2050,2875,9
1789464416.80497,2033,2876,9
1789464416.8050392,2074,2876,9
1789464416.808179,2087,2877,9
1789464416.8097222,2080,2877,9
1789464416.810915,2057,2876,9
1789464416.81322,2079,2877,9
1789464416.815285,2105,2875,9
1789464416.817348,2080,2875,9
1789464416.8196921,2041,2876,9
1789464416.82098,2030,2874,9
1789464416.82328,2075,2875,9
1789464416.825616,2075,2876,9
1789464416.8277261,2066,2875,9
1789464416.829011,2076,2877,9
1789464416.831302,2126,2876,9
1789464416.83362,2114,2876,9
1789464416.834908,2062,2876,9
1789464416.837204,2053,2877,9
1789464416.841318,2106,2876,9
1789464416.841998,2110,2877,9
1789464416.843431,2094,2876,9
1789464416.847599,2071,2877,9
1789464416.8477492,2103,2875,9
1789464416.850222,2106,2876,9
1789464416.851521,2051,2875,9
1789464416.853601,2042,2876,9
1789464416.854887,2099,2877,9
1789464416.8574028,2117,2875,9
1789464416.861078,2084,2876,9
1789464416.8611782,2049,2874,9
1789464416.86429,2087,2877,9
1789464416.8659961,2097,2875,9
1789464416.867212,2070,2876,9
1789464416.86959,2039,2876,9
1789464416.87078,2052,2875,9
1789464416.873142,2095,2876,9
1789464416.875387,2095,2876,9
1789464416.877884,2078,2876,9
1789464416.878929,2077,2877,9
1789464416.8814669,2117,2875,9
1789464416.882752,2107,2876,9
1789464416.885292,2054,2875,9
1789464416.887837,2039,2875,9
1789464416.8890612,2081,2876,9
1789464416.891362,2100,2876,9
1789464416.8939478,2069,2877,9
1789464416.89825,2068,2876,9
1789464416.8983622,2090,2877,9
1789464416.900158,2105,2876,9
1789464416.9016068,2055,2876,9
1789464416.903397,2061,2877,9
1789464416.906806,2055,2875,9
1789464416.9068758,2093,2876,9
1789464416.9094322,2100,2876,9
1789464416.910778,2065,2875,9
1789464416.913316,2073,2876,9
1789464416.9153721,2105,2877,9
1789464416.917439,2074,2877,9
1789464416.9196959,2032,2876,9
1789464416.9208078,2035,2875,9
1789464416.923359,2077,2877,9
1789464416.925704,2100,2877,9
1789464416.926771,2062,2875,9
1789464416.928836,2070,2877,9
1789464416.930895,2105,2875,9
1789464416.935782,2110,2875,9
1789464416.936198,2024,2875,9
1789464416.937732,2033,2874,9
1789464416.939161,2077,2876,9
1789464416.942505,2101,2875,9
1789464416.9442618,2073,2876,9
1789464416.945317,2040,2875,9
1789464416.947638,2098,2877,9
1789464416.948745,2096,2875,9
1789464416.9512289,2070,2876,9
1789464416.953589,2042,2877,9
1789464416.954824,2062,2875,9
1789464416.956898,2100,2876,9
1789464416.959311,2094,2876,9
1789464416.961618,2062,2875,9
1789464416.9628859,2077,2877,9
1789464416.964947,2116,2875,9
1789464416.9672399,2092,2876,9
1789464416.9694998,2032,2876,9
1789464416.9707851,2045,2876,9
1789464416.972851,2099,2875,9
1789464416.9778829,2094,2876,9
1789464416.978014,2073,2877,9
1789464416.979978,2070,2876,9
1789464416.98178,2117,2875,9
1789464416.98417,2100,2877,9
1789464416.986492,2052,2876,9
1789464416.987594,2029,2874,9
1789464416.98888,2089,2876,9
1789464416.991555,2088,2875,9
1789464416.992846,2065,2876,9
1789464416.9980001,2039,2875,9
1789464416.998374,2108,2877,9
1789464417.000292,2091,2875,9
1789464417.002062,2061,2875,9
1789464417.004321,2036,2876,9
1789464417.006666,2066,2875,9
1789464417.006884,2095,2876,9
1789464417.009129,2092,2876,9
1789464417.011447,2053,2875,9
1789464417.013767,2080,2878,9
1789464417.0148082,2111,2875,9
1789464417.017109,2085,2876,9
1789464417.0196512,2056,2877,9
1789464417.020751,2057,2875,9
1789464417.023052,2086,2876,9
1789464417.025399,2098,2877,9
1789464417.027699,2075,2875,9
1789464417.0288808,2079,2877,9
1789464417.031026,2127,2876,9
1789464417.0347788,2099,2875,9
1789464417.035548,2044,2876,9
1789464417.037077,2014,2875,9
1789464417.0394921,2086,2876,9
1789464417.041207,2089,2876,9
1789464417.043821,2090,2876,9
1789464417.0448902,2034,2874,9
1789464417.047606,2108,2876,9
1789464417.048897,2121,2877,9
1789464417.051208,2071,2876,9
1789464417.055037,2037,2876,9
1789464417.0557172,2066,2875,9
1789464417.057249,2092,2875,9
1789464417.059031,2102,2876,9
1789464417.062159,2053,2874,9
1789464417.063787,2070,2876,9
1789464417.065082,2111,2876,9
1789464417.067163,2099,2876,9
1789464417.069473,2041,2875,9
1789464417.071682,2048,2875,9
1789464417.0727282,2081,2875,9
1789464417.0752041,2090,2876,9
1789464417.077294,2072,2875,9
1789464417.0795891,2049,2877,9
1789464417.080649,2100,2874,9
1789464417.0829508,2102,2875,9
1789464417.0852532,2039,2876,9
1789464417.087361,2026,2874,9
1789464417.088765,2084,2875,9
1789464417.092542,2122,2876,9
1789464417.093229,2068,2875,9
1789464417.094761,2046,2874,9
1789464417.097491,2056,2876,9
1789464417.0988429,2076,2877,9
1789464417.1013381,2034,2876,9
1789464417.1026292,2017,2876,9
1789464417.1050408,2067,2875,9
1789464417.10737,2104,2875,9
1789464417.109559,2096,2876,9
1789464417.11307,2036,2876,9
1789464417.1134112,2106,2876,9
1789464417.1149561,2161,2876,9
1789464417.117661,2106,2876,9
1789464417.119057,2028,2875,9
1789464417.1214452,1976,2875,9
1789464417.123641,2069,2876,9
1789464417.124928,2090,2876,9
1789464417.12748,2064,2876,9
1789464417.128772,2091,2877,9
1789464417.1313138,2163,2876,9
1789464417.132752,2104,2876,9
1789464417.135047,2045,2875,9
1789464417.13759,2032,2874,9
1789464417.1388779,2107,2876,9
1789464417.141422,2141,2876,9
1789464417.142711,2095,2876,9
1789464417.1450958,2042,2875,9
1789464417.149152,2042,2876,9
1789464417.149801,2073,2876,9
1789464417.151138,2022,2876,9
1789464417.153964,2011,2873,9
1789464417.157496,2039,2875,9
1789464417.157527,2101,2877,9
1789464417.1598248,2124,2879,9
1789464417.1611142,2047,2875,9
1789464417.1636639,2040,2876,9
1789464417.1648571,2088,2875,9
1789464417.167398,2093,2877,9
1789464417.1697102,2051,2877,9
1789464417.1707578,2076,2878,9
1789464417.173054,2096,2876,9
1789464417.1753678,2107,2876,9
1789464417.176664,2052,2876,9
1789464417.179206,2060,2878,9
1789464417.181746,2116,2877,9
1789464417.185743,2179,2876,9
1789464417.186431,2091,2876,9
1789464417.1888351,2007,2874,9
1789464417.189966,2064,2875,9
1789464417.191892,2090,2876,9
1789464417.193055,2049,2876,9
1789464417.195443,2032,2875,9
1789464417.197751,2105,2876,9
1789464417.198904,2117,2877,9
1789464417.201223,2065,2875,9
1789464417.203527,2041,2877,9
1789464417.204677,2101,2878,9
1789464417.206986,2132,2877,9
1789464417.2095392,2144,2879,9
1789464417.2106502,2083,2875,9
1789464417.212946,2037,2878,9
1789464417.2150002,2101,2877,9
1789464417.2172968,2094,2877,9
1789464417.222313,2072,2876,9
1789464417.222684,2008,2874,9
1789464417.223291,2056,2876,9
1789464417.226133,2090,2876,9
1789464417.228516,2071,2876,9
1789464417.228724,2097,2878,9
1789464417.231167,2129,2877,9
1789464417.233726,2177,2876,9
1789464417.2350159,2039,2875,9
1789464417.237201,1975,2875,9
1789464417.239388,2075,2876,9
1789464417.2407548,2082,2876,9
1789464417.243056,2071,2875,9
1789464417.245599,2047,2875,9
1789464417.2468889,2069,2875,9
1789464417.249449,2120,2876,9
1789464417.251565,2087,2876,9
1789464417.252852,2022,2875,9
1789464417.255156,2023,2874,9
1789464417.2577012,2099,2876,9
1789464417.261387,2111,2876,9
1789464417.262028,2034,2875,9
1789464417.2637298,2058,2876,9
1789464417.2656288,2102,2876,9
1789464417.2679942,2114,2876,9
1789464417.270703,2060,2876,9
1789464417.2707882,2110,2877,9
1789464417.2730901,2078,2876,9
1789464417.2753868,2066,2875,9
1789464417.277457,2067,2876,9
1789464417.279773,2027,2875,9
1789464417.281065,2093,2877,9
1789464417.283127,2105,2876,9
1789464417.285428,2070,2875,9
1789464417.286718,2061,2877,9
1789464417.289022,2119,2878,9
1789464417.291563,2127,2875,9
1789464417.292852,2131,2876,9
1789464417.295147,2091,2876,9
1789464417.299712,2055,2877,9
1789464417.3000698,2085,2875,9
1789464417.3018181,2082,2876,9
1789464417.3035252,2068,2876,9
1789464417.3060539,2121,2877,9
1789464417.308703,2036,2874,9
1789464417.308825,2070,2875,9
1789464417.310953,2127,2878,9
1789464417.313268,2127,2877,9
1789464417.314566,2102,2876,9
1789464417.3166342,2078,2876,9
1789464417.319177,1986,2876,9
1789464417.32147,2029,2875,9
1789464417.322762,2100,2875,9
1789464417.3250759,2108,2876,9
1789464417.327126,2092,2876,9
1789464417.329195,2074,2877,9
1789464417.330545,2105,2876,9
1789464417.33285,2106,2875,9
1789464417.338389,2076,2875,9
1789464417.338783,1929,2874,9
1789464417.339487,2018,2874,9
1789464417.342261,2213,2879,9
1789464417.34379,2084,2875,9
1789464417.344974,1867,2875,9
1789464417.3477812,2020,2874,9
1789464417.3488379,2149,2877,9
1789464417.351155,2097,2876,9
1789464417.352515,2081,2876,9
1789464417.3548212,2110,2876,9
1789464417.3571358,2158,2878,9
1789464417.3594398,2176,2878,9
1789464417.360513,2130,2877,9
1789464417.3626509,2136,2878,9
1789464417.365197,2244,2877,9
1789464417.366532,2081,2876,9
1789464417.369081,2063,2876,9
1789464417.3716302,2027,2875,9
1789464417.3726752,2017,2875,9
1789464417.3775911,2010,2875,9
1789464417.3776572,2069,2875,9
1789464417.3794298,1989,2875,9
1789464417.381261,2076,2876,9
1789464417.384887,2038,2877,9
1789464417.385039,2018,2876,9
1789464417.386892,2067,2876,9
1789464417.389445,2100,2878,9
1789464417.390739,2088,2875,9
1789464417.3928142,2145,2878,9
1789464417.3948789,2082,2878,9
1789464417.397181,2143,2877,9
1789464417.398517,2150,2876,9
1789464417.401067,2104,2877,9
1789464417.4033768,2012,2876,9
1789464417.4054441,1960,2875,9
1789464417.406531,2123,2875,9
1789464417.408593,2134,2878,9
1789464417.410783,2065,2875,9
1789464417.413332,2060,2877,9
1789464417.417384,2114,2877,9
1789464417.4177222,2027,2876,9
1789464417.4195359,2063,2877,9
1789464417.4210272,1986,2875,9
1789464417.4236941,2091,2875,9
1789464417.4251509,2183,2878,9
1789464417.426808,2108,2877,9
1789464417.42887,1979,2873,9
1789464417.4314299,2129,2876,9
1789464417.4327319,2166,2877,9
1789464417.435283,2065,2877,9
1789464417.437409,2003,2875,9
1789464417.438698,2059,2875,9
1789464417.4409978,2127,2878,9
1789464417.443294,2050,2875,9
1789464417.444587,2019,2875,9
1789464417.4466538,2137,2876,9
1789464417.44895,2136,2877,9
1789464417.451255,2114,2876,9
1789464417.452544,2082,2876,9
1789464417.457962,2093,2875,9
1789464417.4591181,2066,2875,9
1789464417.45926,2011,2875,9
1789464417.460576,2056,2875,9
1789464417.463604,2166,2876,9
1789464417.465069,2162,2877,9
1789464417.4676511,1970,2877,9
1789464417.468697,1972,2874,9
1789464417.47089,1925,2874,9
1789464417.47348,1969,2876,9
1789464417.474546,2150,2876,9
1789464417.477095,2083,2878,9
1789464417.479147,2059,2877,9
1789464417.481456,2043,2875,9
1789464417.482522,2108,2877,9
1789464417.485075,2091,2876,9
1789464417.487124,2085,2877,9
1789464417.4893749,2144,2876,9
1789464417.490664,2145,2875,9
1789464417.492987,2098,2875,9
1789464417.496723,2007,2875,9
1789464417.4968169,2051,2876,9
1789464417.500009,2098,2875,9
1789464417.5015922,2082,2876,9
1789464417.50317,2003,2874,9
1789464417.504651,2083,2875,9
1789464417.5072489,2057,2875,9
1789464417.509569,2128,2879,9
1789464417.510703,2091,2877,9
1789464417.5130901,2035,2877,9
1789464417.515401,1969,2873,9
1789464417.516692,2168,2878,9
1789464417.519259,2311,2878,9
1789464417.520555,2081,2878,9
1789464417.523104,2022,2875,9
1789464417.525408,2254,2878,9
1789464417.526697,1990,2875,9
1789464417.528998,1967,2876,9
1789464417.531562,2065,2876,9
1789464417.536187,1997,2875,9
1789464417.536622,1995,2876,9
1789464417.5374131,2050,2876,9
1789464417.538843,2065,2878,9
1789464417.541861,2154,2879,9
1789464417.5437188,2066,2875,9
1789464417.545333,1873,2875,9
1789464417.547188,1772,2876,9
1789464417.5492501,2019,2873,9
1789464417.55132,2384,2877,9
1789464417.5526268,2222,2876,9
1789464417.555181,2117,2876,9
1789464417.557486,2093,2877,9
1789464417.558552,2073,2875,9
1789464417.560867,2194,2876,9
1789464417.563416,2108,2876,9
1789464417.564712,1927,2875,9
1789464417.567298,2013,2876,9
1789464417.5696099,2237,2877,9
1789464417.5709,2024,2875,9
1789464417.573204,2016,2877,9
1789464417.5788732,2101,2878,9
1789464417.579324,2173,2875,9
1789464417.580446,2193,2876,9
1789464417.5815291,2261,2879,9
1789464417.583199,2137,2878,9
1789464417.586047,1943,2877,9
1789464417.587589,1905,2873,9
1789464417.589505,1797,2874,9
1789464417.5908139,1960,2875,9
1789464417.593285,2123,2875,9
1789464417.594578,2150,2877,9
1789464417.597183,2165,2878,9
1789464417.5995011,2304,2876,9
1789464417.6007931,2153,2876,9
1789464417.603112,1904,2874,9
1789464417.605658,1699,2875,9
1789464417.606709,1949,2876,9
1789464417.6090848,2131,2875,9
1789464417.611392,2191,2878,9
1789464417.6126888,2237,2877,9
1789464417.6150038,2175,2877,9
1789464417.617069,2109,2876,9
1789464417.621082,2124,2877,9
1789464417.621533,2057,2875,9
1789464417.62353,2069,2875,9
1789464417.6251671,2186,2875,9
1789464417.626807,2078,2877,9
1789464417.629504,1961,2873,9
1789464417.631464,2009,2876,9
1789464417.632525,2006,2876,9
1789464417.6345952,1917,2874,9
1789464417.6369128,1801,2875,9
1789464417.6392279,2225,2879,9
1789464417.641532,2332,2879,9
1789464417.642582,2161,2878,9
1789464417.64489,1947,2875,9
1789464417.64744,2054,2877,9
1789464417.6484962,2117,2877,9
1789464417.6508071,2092,2877,9
1789464417.653116,2250,2877,9
1789464417.654405,2212,2878,9
1789464417.656467,2102,2876,9
1789464417.658716,2117,2878,9
1789464417.662546,2038,2874,9
1789464417.663245,2040,2878,9
1789464417.664704,1925,2874,9
1789464417.6676018,2046,2876,9
1789464417.669177,2062,2877,9
1789464417.670861,2076,2876,9
1789464417.673559,2085,2876,9
1789464417.67462,2068,2874,9
1789464417.677176,2157,2877,9
1789464417.6794891,2117,2877,9
1789464417.680722,2120,2876,9
1789464417.683025,2195,2877,9
1789464417.685333,2131,2877,9
1789464417.686622,2016,2874,9
1789464417.689167,2046,2875,9
1789464417.6912189,2065,2875,9
1789464417.692513,2068,2875,9
1789464417.694829,1991,2876,9
1789464417.6971421,2082,2877,9
1789464417.699291,2114,2876,9
1789464417.703927,2163,2876,9
1789464417.704041,2111,2877,9
1789464417.705985,2101,2877,9
1789464417.707894,2084,2875,9
1789464417.708971,2043,2876,9
1789464417.710531,2008,2874,9
1789464417.713815,2051,2876,9
1789464417.715117,2079,2877,9
1789464417.7164102,2083,2876,9
1789464417.718967,2055,2876,9
1789464417.721268,2028,2875,9
1789464417.722412,2077,2875,9
1789464417.7247329,2126,2875,9
1789464417.7270532,2065,2876,9
1789464417.72911,2097,2877,9
1789464417.731182,2149,2876,9
1789464417.733494,2047,2876,9
1789464417.734624,2051,2876,9
1789464417.7369118,2015,2874,9
1789464417.739465,2058,2877,9
1789464417.7405188,2080,2875,9
1789464417.744677,2034,2876,9
1789464417.745473,2024,2875,9
1789464417.747238,2117,2876,9
1789464417.748605,2164,2876,9
1789464417.751633,2175,2876,9
1789464417.753203,2051,2876,9
1789464417.754817,1944,2873,9
1789464417.757375,2077,2876,9
1789464417.758667,2154,2876,9
1789464417.761225,2080,2874,9
1789464417.762418,2055,2877,9
1789464417.764968,2082,2876,9
1789464417.767516,2044,2876,9
1789464417.768555,2041,2877,9
1789464417.771103,2074,2876,9
1789464417.7734091,2105,2876,9
1789464417.7744598,2126,2876,9
1789464417.776758,2018,2875,9
1789464417.779305,2093,2878,9
1789464417.780407,2125,2876,9
1789464417.786241,2110,2874,9
1789464417.7866812,2073,2876,9
1789464417.787086,2045,2875,9
1789464417.7887208,2048,2876,9
1789464417.791775,2111,2876,9
1789464417.793272,2086,2876,9
1789464417.794888,2056,2874,9
1789464417.796761,2063,2877,9
1789464417.799325,2089,2877,9
1789464417.800437,2042,2876,9
1789464417.802752,1918,2873,9
1789464417.8053088,2081,2875,9
1789464417.806409,2165,2878,9
1789464417.808463,2159,2878,9
1789464417.810775,2094,2878,9
1789464417.813322,2055,2876,9
1789464417.81461,2112,2876,9
1789464417.816916,2101,2875,9
1789464417.819459,2041,2877,9
1789464417.8205628,2017,2875,9
1789464417.8231108,2075,2876,9
1789464417.828115,2139,2879,9
1789464417.829588,2065,2876,9
1789464417.831407,2010,2873,9
1789464417.83246,2107,2877,9
1789464417.833216,2165,2877,9
1789464417.834744,2117,2876,9
1789464417.838217,2014,2875,9
1789464417.839286,2065,2875,9
1789464417.840586,2084,2876,9
1789464417.842648,2016,2875,9
1789464417.8449652,2079,2877,9
1789464417.8475142,2135,2877,9
1789464417.8485692,2103,2875,9
1789464417.850878,2115,2877,9
1789464417.853428,2029,2877,9
1789464417.8544698,2038,2876,9
1789464417.8567739,2119,2876,9
1789464417.859322,2060,2876,9
1789464417.860613,2112,2878,9
1789464417.862916,1995,2873,9
1789464417.8652139,2053,2877,9
1789464417.870691,2143,2875,9
1789464417.871543,2085,2877,9
1789464417.871948,2050,2876,9
1789464417.873363,2146,2877,9
1789464417.8748531,2107,2876,9
1789464417.87697,2065,2875,9
1789464417.879922,2096,2877,9
1789464417.881942,2136,2876,9
1789464417.882993,2085,2877,9
1789464417.8853061,2017,2875,9
1789464417.886601,2041,2877,9
1789464417.888982,2090,2875,9
1789464417.891049,2083,2876,9
1789464417.89335,2033,2876,9
1789464417.894397,2050,2876,9
1789464417.8964539,2140,2876,9
1789464417.898514,2173,2876,9
1789464417.900822,2087,2876,9
1789464417.9033668,2008,2876,9
1789464417.90466,2041,2874,9
1789464417.906726,2077,2876,9
1789464417.909034,2109,2876,9
1789464417.914167,2044,2876,9
1789464417.914898,2012,2875,9
1789464417.915301,2104,2876,9
1789464417.917665,2124,2875,9
1789464417.919431,2058,2876,9
1789464417.9211001,2051,2877,9
1789464417.922826,2130,2877,9
1789464417.924434,2139,2876,9
1789464417.926989,2103,2875,9
1789464417.929047,2007,2875,9
1789464417.931354,2062,2877,9
1789464417.932651,2114,2875,9
1789464417.9349601,2060,2876,9
1789464417.937269,2048,2875,9
1789464417.9383209,2084,2876,9
1789464417.940882,2084,2876,9
1789464417.942283,2072,2876,9
1789464417.94483,2053,2875,9
1789464417.947129,2102,2878,9
1789464417.948278,2107,2876,9
1789464417.9508328,2085,2876,9
1789464417.9531362,2073,2875,9
1789464417.957394,2077,2876,9
1789464417.9581,2105,2874,9
1789464417.958859,2141,2876,9
1789464417.961795,2082,2876,9
1789464417.963307,2054,2875,9
1789464417.964906,2131,2878,9
1789464417.966605,2112,2875,9
1789464417.968617,2042,2876,9
1789464417.970926,2005,2874,9
1789464417.973253,2083,2875,9
1789464417.974556,2064,2876,9
1789464417.976815,2127,2876,9
1789464417.9793642,2099,2879,9
1789464417.98066,2122,2876,9
1789464417.9830248,2133,2876,9
1789464417.98514,2078,2876,9
1789464417.986409,2004,2873,9
1789464417.9887109,2037,2876,9
1789464417.9912581,2081,2876,9
1789464417.9923148,2095,2876,9
1789464417.994373,2036,2875,9
1789464417.996923,2068,2878,9
1789464418.001534,2113,2876,9
1789464418.0020108,2129,2877,9
1789464418.003714,2044,2877,9
1789464418.0055192,2071,2878,9
1789464418.007047,2097,2877,9
1789464418.0086699,2097,2877,9
1789464418.01227,2062,2875,9
1789464418.0123708,2073,2877,9
1789464418.014924,2125,2877,9
1789464418.016255,2082,2875,9
1789464418.018811,2023,2875,9
1789464418.021121,2001,2874,9
1789464418.022413,2061,2875,9
1789464418.024789,2105,2876,9
1789464418.0270898,2071,2876,9
1789464418.0283809,2047,2875,9
1789464418.030719,2076,2877,9
1789464418.03328,2116,2877,9
1789464418.034571,2088,2875,9
1789464418.0368798,2064,2877,9
1789464418.039192,2081,2876,9
1789464418.040277,2097,2875,9
1789464418.044543,2060,2876,9
1789464418.04559,2081,2875,9
1789464418.047255,2031,2877,9
1789464418.048722,2038,2876,9
1789464418.052104,2072,2876,9
1789464418.0537999,2065,2876,9
1789464418.055691,2072,2877,9
1789464418.0568068,2096,2874,9
1789464418.059119,2139,2878,9
1789464418.061205,2095,2876,9
1789464418.062499,2104,2877,9
1789464418.064801,2140,2876,9
1789464418.067345,2107,2875,9
1789464418.068641,2045,2875,9
1789464418.070946,2018,2875,9
1789464418.0732632,2077,2876,9
1789464418.0745559,2108,2876,9
1789464418.076859,2085,2876,9
1789464418.0794082,2060,2876,9
1789464418.080708,2110,2876,9
1789464418.083255,2140,2876,9
1789464418.087847,2074,2876,9
1789464418.088595,2034,2877,9
1789464418.0889971,2037,2874,9
1789464418.0922701,2068,2876,9
1789464418.092754,2082,2876,9
1789464418.0952551,2054,2875,9
1789464418.096887,2067,2877,9
1789464418.098495,2115,2876,9
1789464418.100575,2083,2875,9
1789464418.102891,2029,2876,9
1789464418.104285,2056,2875,9
1789464418.106612,2109,2876,9
1789464418.108927,2107,2875,9
1789464418.111232,2085,2876,9
1789464418.112285,2062,2876,9
1789464418.114845,2106,2875,9
1789464418.117161,2103,2876,9
1789464418.1182468,2061,2875,9
1789464418.12031,2015,2875,9
1789464418.122715,2072,2876,9
1789464418.125144,2093,2876,9
1789464418.126271,2081,2875,9
1789464418.132444,2040,2874,9
1789464418.13676,2102,2877,9
1789464418.138206,2130,2875,9
1789464418.140185,2075,2875,9
1789464418.140453,2058,2876,9
1789464418.1423008,2052,2874,9
1789464418.142494,2083,2876,9
1789464418.1441998,2096,2876,9
1789464418.144778,2070,2875,9
1789464418.14705,2075,2877,9
1789464418.149235,2117,2876,9
1789464418.1506171,2088,2876,9
1789464418.153208,2050,2876,9
1789464418.154437,2064,2878,9
1789464418.156517,2112,2876,9
1789464418.1590881,2134,2876,9
1789464418.161432,2073,2876,9
1789464418.162496,2063,2877,9
1789464418.164581,2120,2876,9
1789464418.1667142,2104,2876,9
1789464418.168959,2042,2875,9
1789464418.1702652,2033,2874,9
1789464418.1723368,2082,2876,9
1789464418.177815,2121,2876,9
1789464418.178637,2092,2876,9
1789464418.180314,2048,2876,9
1789464418.1823628,2087,2876,9
1789464418.183408,2123,2876,9
1789464418.1860092,2057,2875,9
1789464418.1877959,2049,2877,9
1789464418.190028,2076,2877,9
1789464418.190145,2093,2875,9
1789464418.19223,2117,2876,9
1789464418.194795,2055,2876,9
1789464418.19615,2088,2877,9
1789464418.1984692,2121,2876,9
1789464418.2005372,2101,2877,9
1789464418.202847,2062,2876,9
1789464418.204947,2028,2875,9
1789464418.206246,2096,2876,9
1789464418.208328,2121,2875,9
1789464418.2106612,2076,2875,9
1789464418.2129762,2141,2878,9
1789464418.214292,2108,2875,9
1789464418.216883,2134,2876,9
1789464418.2181818,2063,2875,9
1789464418.2237692,2017,2873,9
1789464418.224263,2071,2875,9
1789464418.224391,2068,2875,9
1789464418.226562,2075,2874,9
1789464418.228971,2069,2878,9
1789464418.23383,2101,2875,9
1789464418.234074,2123,2875,9
1789464418.23429,2075,2876,9
1789464418.237109,2064,2877,9
1789464418.238416,2092,2875,9
1789464418.244341,2126,2875,9
1789464418.244838,2123,2876,9
1789464418.2449348,2071,2874,9
1789464418.246928,2081,2877,9
1789464418.2484212,2142,2876,9
1789464418.251749,2118,2874,9
1789464418.253533,2047,2876,9
1789464418.255163,2041,2874,9
1789464418.25647,2113,2875,9
1789464418.258788,2129,2877,9
1789464418.2601721,2054,2876,9
1789464418.262315,2059,2876,9
1789464418.2646248,2109,2875,9
1789464418.266931,2148,2876,9
1789464418.268163,2085,2876,9
1789464418.270278,2035,2874,9
1789464418.272898,2101,2876,9
1789464418.2741919,2131,2875,9
1789464418.2765062,2109,2875,9
1789464418.27882,2066,2875,9
1789464418.2801652,2102,2876,9
1789464418.28233,2104,2875,9
1789464418.2885141,2067,2876,9
1789464418.288971,2031,2877,9
1789464418.289391,2067,2875,9
1789464418.291167,2129,2876,9
1789464418.292983,2169,2878,9
1789464418.294883,2117,2877,9
1789464418.296235,2075,2876,9
1789464418.299728,2149,2876,9
1789464418.3010361,2089,2876,9
1789464418.302159,2049,2876,9
1789464418.304238,2048,2874,9
1789464418.306813,2076,2875,9
1789464418.3091252,2080,2876,9
1789464418.310424,2086,2875,9
1789464418.312979,2053,2876,9
1789464418.315299,2132,2876,9
1789464418.316352,2121,2875,9
1789464418.318662,2072,2876,9
1789464418.3212118,2057,2876,9
1789464418.32226,2075,2875,9
1789464418.3245702,2110,2876,9
1789464418.326879,2085,2876,9
1789464418.329199,2056,2874,9
1789464418.333258,2052,2876,9
1789464418.334002,2103,2877,9
1789464418.335531,2108,2876,9
1789464418.337315,2023,2877,9
1789464418.339006,2062,2876,9
1789464418.340363,2092,2876,9
1789464418.343841,2100,2876,9
1789464418.345139,2049,2876,9
1789464418.346196,2076,2877,9
1789464418.348502,2125,2876,9
1789464418.350749,2105,2876,9
1789464418.353318,2033,2876,9
1789464418.354609,2054,2875,9
1789464418.356916,2090,2876,9
1789464418.358208,2109,2876,9
1789464418.360513,2076,2877,9
1789464418.362926,2035,2875,9
1789464418.364154,2126,2876,9
1789464418.366703,2160,2876,9
1789464418.3690119,2072,2875,9
1789464418.3701508,2035,2873,9
1789464418.372304,2112,2876,9
1789464418.3773298,2132,2876,9
1789464418.378156,2123,2875,9
1789464418.379634,2070,2877,9
1789464418.381442,2117,2877,9
1789464418.382946,2096,2876,9
1789464418.3845718,2110,2875,9
1789464418.388198,2077,2876,9
1789464418.388236,2045,2874,9
1789464418.390559,2089,2876,9
1789464418.393143,2100,2876,9
1789464418.394206,2097,2877,9
1789464418.396346,2074,2878,9
1789464418.398914,2118,2876,9
1789464418.401223,2136,2876,9
1789464418.4022772,2105,2877,9
1789464418.404584,2043,2876,9
1789464418.4066591,2077,2876,9
1789464418.4089742,2119,2876,9
1789464418.410273,2094,2875,9
1789464418.4128299,2079,2877,9
1789464418.415136,2117,2876,9
1789464418.416192,2098,2876,9
1789464418.421451,2073,2875,9
1789464418.421557,2052,2878,9
1789464418.424008,2107,2874,9
1789464418.425937,2136,2876,9
1789464418.4275048,2129,2875,9
1789464418.4307919,2064,2875,9
1789464418.43093,2102,2875,9
1789464418.4327948,2135,2876,9
1789464418.4340942,2080,2876,9
1789464418.436408,2048,2876,9
1789464418.4389062,2052,2875,9
1789464418.4402099,2098,2876,9
1789464418.4427578,2087,2876,9
1789464418.444065,2074,2875,9
1789464418.446614,2073,2876,9
1789464418.449164,2144,2875,9
1789464418.450219,2107,2875,9
1789464418.4527638,2062,2876,9
1789464418.4540548,2080,2876,9
1789464418.45612,2114,2875,9
1789464418.458666,2124,2876,9
1789464418.46074,2111,2876,9
1789464418.4660962,2057,2874,9
1789464418.466495,2103,2878,9
1789464418.467718,2127,2876,9
1789464418.469853,2068,2875,9
1789464418.47254,2027,2876,9
1789464418.474218,2069,2875,9
1789464418.474415,2107,2876,9
1789464418.4763992,2099,2876,9
1789464418.478472,2077,2876,9
1789464418.481028,2094,2876,9
1789464418.4823391,2117,2876,9
1789464418.4846148,2087,2876,9
1789464418.486913,2026,2876,9
1789464418.488054,2052,2875,9
1789464418.490226,2097,2876,9
1789464418.4928482,2110,2876,9
1789464418.494941,2063,2876,9
1789464418.4962418,2069,2876,9
1789464418.498302,2105,2876,9
1789464418.500452,2097,2876,9
1789464418.503009,2040,2876,9
1789464418.5043058,2023,2874,9
1789464418.5101,2081,2876,9
1789464418.5108852,2099,2876,9
1789464418.5113,2089,2876,9
1789464418.5141308,2046,2874,9
1789464418.514862,2107,2878,9
1789464418.5173461,2109,2875,9
1789464418.5190651,2076,2875,9
1789464418.520967,2055,2876,9
1789464418.522051,2092,2874,9
1789464418.524601,2115,2876,9
1789464418.526916,2096,2875,9
1789464418.528217,2037,2875,9
1789464418.530761,2081,2876,9
1789464418.5329778,2104,2877,9
1789464418.5340421,2088,2875,9
1789464418.536588,2014,2876,9
1789464418.538891,2062,2875,9
1789464418.541034,2078,2876,9
1789464418.542327,2096,2877,9
1789464418.544592,2044,2875,9
1789464418.5459998,2061,2877,9
1789464418.5483022,2098,2875,9
1789464418.553478,2104,2875,9
1789464418.553935,2030,2876,9
1789464418.5543392,2033,2875,9
1789464418.556163,2072,2875,9
1789464418.559077,2092,2876,9
1789464418.560996,2088,2875,9
1789464418.5627131,2057,2874,9
1789464418.564655,2104,2877,9
1789464418.566967,2110,2877,9
1789464418.5681422,2060,2876,9
1789464418.570452,2029,2876,9
1789464418.573042,2069,2875,9
1789464418.5740879,2100,2875,9
1789464418.576397,2102,2875,9
1789464418.5787039,2045,2875,9
1789464418.580009,2101,2876,9
1789464418.58256,2106,2876,9
1789464418.584874,2074,2875,9
1789464418.587177,2044,2876,9
1789464418.5882208,2046,2875,9
1789464418.590355,2078,2876,9
1789464418.5926569,2093,2877,9
1789464418.5982568,2040,2875,9
1789464418.598763,2068,2878,9
1789464418.599882,2099,2876,9
1789464418.602925,2078,2876,9
1789464418.6033459,2057,2876,9
1789464418.606164,2043,2874,9
1789464418.606333,2088,2877,9
1789464418.6098611,2111,2876,9
1789464418.611189,2092,2875,9
1789464418.612246,2073,2877,9
1789464418.614551,2098,2875,9
1789464418.616874,2103,2875,9
1789464418.618942,2081,2876,9
1789464418.620043,2043,2876,9
1789464418.622595,2064,2876,9
1789464418.62515,2086,2876,9
1789464418.626234,2085,2876,9
1789464418.628783,2044,2875,9
1789464418.630081,2097,2877,9
1789464418.632612,2111,2876,9
1789464418.634675,2069,2876,9
1789464418.6360261,2036,2876,9
1789464418.6381912,2039,2875,9
1789464418.643023,2077,2875,9
1789464418.6434639,2078,2876,9
1789464418.645479,2060,2876,9
1789464418.6472042,2058,2876,9
1789464418.648714,2114,2876,9
1789464418.650281,2092,2876,9
1789464418.653722,2046,2876,9
1789464418.6547892,2035,2875,9
1789464418.656082,2100,2877,9
1789464418.658197,2107,2876,9
1789464418.660774,2092,2876,9
1789464418.6620831,2045,2875,9
1789464418.664633,2099,2877,9
1789464418.667186,2107,2876,9
1789464418.66848,2073,2876,9
1789464418.670783,2031,2876,9
1789464418.6728342,2089,2878,9
1789464418.674125,2110,2876,9
1789464418.6766772,2107,2876,9
1789464418.679065,2070,2876,9
1789464418.6801112,2103,2876,9
1789464418.68242,2120,2876,9
1789464418.687026,2093,2874,9
1789464418.687485,2052,2875,9
1789464418.689173,2067,2877,9
1789464418.690665,2089,2875,9
1789464418.693973,2074,2877,9
1789464418.69414,2065,2875,9
1789464418.697529,2074,2878,9
1789464418.698603,2101,2877,9
1789464418.700841,2094,2876,9
1789464418.7019432,2048,2876,9
1789464418.7042701,2037,2875,9
1789464418.7065852,2085,2875,9
1789464418.707923,2106,2874,9
1789464418.7102342,2081,2875,9
1789464418.712311,2040,2876,9
1789464418.714869,2083,2877,9
1789464418.71592,2110,2875,9
1789464418.718476,2043,2876,9
1789464418.721034,2024,2876,9
1789464418.72209,2076,2875,9
1789464418.724402,2095,2876,9
1789464418.726727,2082,2876,9
1789464418.731065,2073,2875,9
1789464418.7314508,2095,2877,9
1789464418.733172,2121,2876,9
1789464418.7353878,2056,2875,9
1789464418.7369332,2013,2876,9
1789464418.7396638,2059,2875,9
1789464418.741271,2117,2878,9
1789464418.742573,2119,2876,9
1789464418.744918,2052,2876,9
1789464418.7462752,2046,2875,9
1789464418.748369,2130,2877,9
1789464418.750449,2136,2876,9
1789464418.752548,2064,2875,9
1789464418.754619,2014,2874,9
1789464418.756682,2075,2875,9
1789464418.758772,2106,2876,9
1789464418.7600782,2075,2876,9
1789464418.762157,2054,2874,9
1789464418.764471,2094,2876,9
1789464418.766537,2104,2875,9
1789464418.768849,2067,2875,9
1789464418.770133,2044,2876,9
1789464418.775685,2076,2875,9
1789464418.776542,2082,2877,9
1789464418.777473,2101,2876,9
1789464418.778906,2053,2875,9
1789464418.78042,2086,2876,9
1789464418.784199,2123,2876,9
1789464418.785933,2102,2876,9
1789464418.786162,2037,2875,9
1789464418.78914,2039,2874,9
1789464418.7903922,2090,2875,9
1789464418.7926998,2107,2876,9
1789464418.7950249,2073,2875,9
1789464418.796074,2070,2876,9
1789464418.798344,2097,2877,9
1789464418.8008928,2098,2875,9
1789464418.801945,2049,2875,9
1789464418.804493,2037,2873,9
1789464418.8067148,2079,2875,9
1789464418.808012,2111,2875,9
1789464418.810328,2080,2876,9
1789464418.812879,2065,2878,9
1789464418.813931,2130,2876,9
1789464418.816065,2131,2876,9
1789464418.822674,2058,2876,9
1789464418.822836,2029,2877,9
1789464418.8236318,2045,2875,9
1789464418.82636,2074,2876,9
1789464418.8267908,2093,2876,9
1789464418.8288891,2043,2874,9
1789464418.831917,2088,2877,9
1789464418.8339388,2118,2877,9
1789464418.8344052,2084,2875,9
1789464418.83701,2071,2877,9
1789464418.838088,2054,2875,9
1789464418.84041,2115,2875,9
1789464418.842896,2090,2876,9
1789464418.843969,2057,2876,9
1789464418.846525,2039,2875,9
1789464418.847913,2099,2876,9
1789464418.850464,2091,2875,9
1789464418.853018,2035,2875,9
1789464418.8543098,2028,2875,9
1789464418.85686,2100,2876,9
1789464418.857913,2109,2877,9
1789464418.860221,2098,2875,9
1789464418.862773,2040,2875,9
1789464418.863861,2100,2877,9
1789464418.869097,2125,2877,9
1789464418.869971,2071,2875,9
1789464418.871829,2046,2877,9
1789464418.874036,2057,2875,9
1789464418.874837,2091,2875,9
1789464418.880693,2109,2875,9
1789464418.880932,2058,2876,9
1789464418.881044,2071,2877,9
1789464418.8821068,2100,2876,9
1789464418.8841841,2074,2875,9
1789464418.886265,2033,2875,9
1789464418.888347,2023,2874,9
1789464418.8904471,2090,2876,9
1789464418.892522,2116,2877,9
1789464418.89461,2080,2876,9
1789464418.897145,2065,2877,9
1789464418.8982751,2115,2876,9
1789464418.9006999,2113,2875,9
1789464418.902045,2052,2877,9
1789464418.904159,2037,2875,9
1789464418.9067829,2065,2876,9
1789464418.907966,2096,2876,9
1789464418.910364,2099,2876,9
1789464418.916426,2042,2875,9
1789464418.9166238,2117,2876,9
1789464418.917973,2120,2875,9
1789464418.9183218,2092,2874,9
1789464418.920295,2055,2877,9
1789464418.925369,2099,2877,9
1789464418.92575,2143,2878,9
1789464418.925903,2144,2878,9
1789464418.928478,2062,2874,9
1789464418.930627,2057,2877,9
1789464418.938519,2095,2877,9
1789464418.941037,2077,2875,9
1789464418.9420118,2024,2877,9
1789464418.942861,2022,2874,9
1789464418.943347,2058,2875,9
1789464418.946744,2106,2875,9
1789464418.94721,2036,2875,9
1789464418.947478,2036,2874,9
1789464418.9495502,2111,2877,9
1789464418.950947,2129,2876,9
1789464418.952265,2049,2876,9
1789464418.954614,2026,2874,9
1789464418.955775,2068,2875,9
1789464418.9579031,2109,2876,9
1789464418.960032,2111,2879,9
1789464418.962286,2043,2875,9
1789464418.9638011,2098,2877,9
1789464418.966014,2108,2876,9
1789464418.96821,2080,2876,9
1789464418.9703062,2078,2874,9
1789464418.972634,2060,2875,9
1789464418.9737751,2088,2876,9
1789464418.975878,2081,2876,9
1789464418.977951,2089,2878,9
1789464418.980788,2176,2877,9
1789464418.984904,2040,2876,9
1789464418.986488,2018,2876,9
1789464418.988518,2041,2877,9
1789464418.9908469,2037,2875,9
1789464418.991746,2074,2876,9
1789464418.994412,2111,2876,9
1789464418.9961631,2101,2878,9
1789464418.996377,2030,2877,9
1789464418.9985821,2024,2876,9
1789464419.00092,2090,2877,9
1789464419.001996,2065,2876,9
1789464419.006151,2046,2875,9
1789464419.006994,2069,2876,9
1789464419.009291,2115,2878,9
1789464419.0112052,2110,2877,9
1789464419.012461,2076,2876,9
1789464419.014744,2091,2876,9
1789464419.016568,2105,2876,9
1789464419.0186,1998,2873,9
1789464419.0198998,2058,2878,9
1789464419.022049,2129,2878,9
1789464419.0242481,2154,2877,9
1789464419.026558,2191,2878,9
1789464419.028631,2049,2877,9
1789464419.0297868,2046,2875,9
1789464419.032095,2093,2878,9
1789464419.034379,2047,2877,9
1789464419.036997,2101,2877,9
1789464419.038055,2108,2878,9
1789464419.040606,2120,2877,9
1789464419.0426939,2104,2877,9
1789464419.043782,2185,2878,9
1789464419.046332,2105,2877,9
1789464419.048566,2051,2875,9
1789464419.053889,2100,2877,9
1789464419.054003,2057,2875,9
1789464419.054873,1941,2873,9
1789464419.056375,1971,2874,9
1789464419.0584111,1811,2875,9
1789464419.060011,1923,2874,9
1789464419.063296,2049,2877,9
1789464419.065482,2270,2876,9
1789464419.066545,2202,2876,9
1789464419.06784,2234,2877,9
1789464419.0701618,2221,2877,9
1789464419.0727391,2170,2878,9
1789464419.074037,2137,2875,9
1789464419.0763462,2171,2877,9
1789464419.0788329,2064,2874,9
1789464419.07988,2099,2876,9
1789464419.082438,2113,2877,9
1789464419.084755,2157,2875,9
1789464419.085802,1996,2877,9
1789464419.088356,2040,2875,9
1789464419.090674,2129,2876,9
1789464419.091968,2124,2875,9
1789464419.094282,2114,2878,9
1789464419.100888,2103,2876,9
1789464419.101365,2116,2875,9
1789464419.101844,2085,2876,9
1789464419.103439,2100,2877,9
1789464419.105531,2059,2878,9
1789464419.10746,2037,2876,9
1789464419.108869,2158,2878,9
1789464419.110525,2152,2877,9
1789464419.1127,2171,2877,9
1789464419.1140091,2116,2876,9
1789464419.1165318,2134,2876,9
1789464419.118877,2122,2876,9
1789464419.1201842,2163,2877,9
1789464419.1225019,2163,2878,9
1789464419.1247292,2156,2877,9
1789464419.125793,2002,2875,9
1789464419.128109,1979,2875,9
1789464419.130232,2075,2878,9
1789464419.132542,2104,2877,9
1789464419.133837,1820,2874,9
1789464419.13609,1912,2874,9
1789464419.1386418,2130,2878,9
1789464419.139783,2283,2878,9
1789464419.142234,2288,2878,9
1789464419.147584,2160,2877,9
1789464419.148412,2108,2877,9
1789464419.1484952,2220,2878,9
1789464419.150346,2212,2877,9
1789464419.151875,2040,2876,9
1789464419.155352,2002,2875,9
1789464419.1571069,2008,2874,9
1789464419.159158,2025,2875,9
1789464419.160225,1983,2876,9
1789464419.162538,1983,2875,9
1789464419.164628,2103,2878,9
1789464419.165928,2135,2876,9
1789464419.168479,1988,2874,9
1789464419.169811,1994,2876,9
1789464419.17212,2029,2876,9
1789464419.17467,2050,2875,9
1789464419.175838,2109,2878,9
1789464419.1783848,2086,2877,9
1789464419.1806989,2050,2876,9
1789464419.1817448,2125,2876,9
1789464419.184296,2199,2877,9
1789464419.186358,2198,2879,9
1789464419.18867,2190,2879,9
1789464419.193459,2127,2879,9
1789464419.194288,1980,2875,9
1789464419.194752,2007,2875,9
1789464419.1964831,2047,2875,9
1789464419.198303,2084,2877,9
1789464419.1998951,2075,2876,9
1789464419.203205,2033,2876,9
1789464419.204886,1949,2874,9
1789464419.2061892,2054,2875,9
1789464419.208496,2111,2875,9
1789464419.209795,2104,2875,9
1789464419.212106,2043,2875,9
1789464419.214655,1923,2874,9
1789464419.215945,2100,2875,9
1789464419.2180102,2188,2876,9
1789464419.2205591,2054,2876,9
1789464419.2218502,2012,2874,9
1789464419.22415,2243,2878,9
1789464419.2266939,2195,2879,9
1789464419.227746,2113,2878,9
1789464419.252696,1990,2875,9
1789464419.25487,1985,2874,9
1789464419.254911,2123,2875,9
1789464419.254945,2126,2877,9
1789464419.254978,2033,2876,9
1789464419.255009,2028,2874,9
1789464419.2550411,1913,2875,9
1789464419.255073,2048,2875,9
1789464419.255106,2229,2877,9
1789464419.255137,2420,2878,9
1789464419.255169,2263,2877,9
1789464419.255202,2064,2877,9
1789464419.255234,1948,2874,9
1789464419.258589,1888,2875,9
1789464419.26232,2013,2876,9
1789464419.26451,2018,2875,9
1789464419.264548,2077,2878,9
1789464419.2645812,2154,2877,9
1789464419.270014,1954,2875,9
1789464419.2702029,2097,2877,9
1789464419.270334,2146,2878,9
1789464419.2725701,2180,2877,9
1789464419.273706,2210,2878,9
1789464419.276064,2153,2875,9
1789464419.2777002,2074,2875,9
1789464419.280821,2091,2877,9
1789464419.2856572,2034,2877,9
1789464419.2866628,2050,2877,9
1789464419.286838,2034,2875,9
1789464419.2888908,2021,2874,9
1789464419.290855,2030,2875,9
1789464419.292369,2056,2876,9
1789464419.294113,2077,2876,9
1789464419.295883,2075,2879,9
1789464419.298024,2193,2876,9
1789464419.3005812,2116,2876,9
1789464419.305707,1872,2875,9
1789464419.3065338,1983,2875,9
1789464419.306966,2137,2876,9
1789464419.309851,2171,2877,9
1789464419.310678,2116,2876,9
1789464419.312327,2100,2876,9
1789464419.31375,2119,2877,9
1789464419.317306,2174,2876,9
1789464419.3183591,2075,2877,9
1789464419.319656,2086,2877,9
1789464419.322212,2074,2875,9
1789464419.3242838,2078,2874,9
1789464419.325691,2144,2875,9
1789464419.328019,1886,2874,9
1789464419.3300889,1955,2874,9
1789464419.332396,2205,2876,9
1789464419.333695,2030,2876,9
1789464419.33624,1957,2873,9
1789464419.338552,2312,2878,9
1789464419.339711,2303,2878,9
1789464419.3422568,2088,2876,9
1789464419.344411,2243,2879,9
1789464419.345703,2154,2878,9
1789464419.3513029,1995,2874,9
1789464419.351746,1877,2874,9
1789464419.352175,1959,2874,9
1789464419.353697,2239,2877,9
1789464419.3572009,2215,2877,9
1789464419.3601642,1979,2874,9
1789464419.3604128,1998,2875,9
1789464419.362423,2020,2874,9
1789464419.3647301,2134,2877,9
1789464419.366024,2178,2876,9
1789464419.3683488,2065,2876,9
1789464419.3704178,1981,2876,9
1789464419.371712,2028,2876,9
1789464419.374012,2046,2874,9
1789464419.376323,1859,2875,9
1789464419.3783839,1951,2876,9
1789464419.3804522,2236,2878,9
1789464419.382516,2245,2877,9
1789464419.383805,2108,2876,9
1789464419.3863502,2071,2877,9
1789464419.387674,2048,2877,9
1789464419.390046,2064,2875,9
1789464419.394849,2074,2877,9
1789464419.395722,2100,2876,9
1789464419.3958259,2072,2875,9
1789464419.399262,2120,2878,9
1789464419.400488,2126,2876,9
1789464419.4024608,2038,2877,9
1789464419.404076,1960,2874,9
1789464419.406052,2061,2875,9
1789464419.408371,2095,2876,9
1789464419.4096498,2130,2876,9
1789464419.412212,2091,2875,9
1789464419.4147651,2017,2873,9
1789464419.415942,2073,2876,9
1789464419.418638,2129,2877,9
1789464419.419942,2031,2876,9
1789464419.4224179,2063,2877,9
1789464419.424729,2117,2875,9
1789464419.426019,2113,2876,9
1789464419.428566,2070,2876,9
1789464419.429856,2039,2876,9
1789464419.4329128,2094,2877,9
1789464419.434484,2126,2875,9
1789464419.4496799,2055,2876,9
1789464419.449761,2048,2876,9
1789464419.449827,2037,2875,9
1789464419.4498932,2113,2877,9
1789464419.449991,2134,2876,9
1789464419.450065,2023,2874,9
1789464419.45013,2092,2877,9
1789464419.450191,2100,2876,9
1789464419.451642,2009,2874,9
1789464419.454315,2012,2875,9
1789464419.4556859,2000,2874,9
1789464419.458291,2080,2876,9
1789464419.4596548,1969,2876,9
1789464419.46225,2013,2877,9
1789464419.4636412,2173,2877,9
1789464419.4662971,2121,2877,9
1789464419.467647,2091,2877,9
1789464419.470487,2058,2876,9
1789464419.471856,2093,2878,9
1789464419.4744582,2144,2878,9
1789464419.475788,2110,2875,9
1789464419.478384,2113,2876,9
1789464419.479724,2090,2878,9
1789464419.489346,2146,2877,9
1789464419.491505,2088,2876,9
1789464419.494011,2038,2876,9
1789464419.4963799,1941,2873,9
1789464419.4981272,2149,2877,9
1789464419.498704,2158,2880,9
1789464419.498751,2096,2875,9
1789464419.498785,2052,2875,9
1789464419.4988182,2056,2877,9
1789464419.500176,2096,2876,9
1789464419.506266,2077,2876,9
1789464419.509619,2109,2877,9
1789464419.514068,2062,2874,9
1789464419.517761,2133,2879,9
1789464419.518077,2146,2877,9
1789464419.519993,1974,2875,9
1789464419.520639,2046,2875,9
1789464419.5207171,2218,2877,9
1789464419.520787,2182,2877,9
1789464419.5208871,2035,2876,9
1789464419.522295,1969,2874,9
1789464419.523777,2008,2875,9
1789464419.5264452,2112,2875,9
1789464419.52781,2064,2874,9
1789464419.5304341,2074,2878,9
1789464419.531774,2067,2876,9
1789464419.534967,2087,2876,9
1789464419.536386,2006,2876,9
1789464419.537747,2006,2874,9
1789464419.5404181,2086,2875,9
1789464419.541764,2101,2877,9
1789464419.544368,2158,2879,9
1789464419.54572,2099,2877,9
1789464419.5483232,2128,2878,9
1789464419.54966,2121,2877,9
1789464419.552274,2043,2877,9
1789464419.5578701,2026,2875,9
1789464419.559423,2077,2876,9
1789464419.561715,2111,2875,9
1789464419.562049,2081,2876,9
1789464419.564041,2028,2874,9
1789464419.565403,2069,2876,9
1789464419.5662951,2134,2876,9
1789464419.570925,2087,2877,9
1789464419.573517,2030,2877,9
1789464419.573649,2062,2876,9
1789464419.573725,2101,2876,9
1789464419.5762408,2069,2876,9
1789464419.5844831,2083,2875,9
1789464419.5886788,2055,2877,9
1789464419.59116,2129,2876,9
1789464419.593487,2039,2877,9
1789464419.594164,1983,2874,9
1789464419.5947351,1980,2875,9
1789464419.596927,2061,2876,9
1789464419.5975192,2178,2878,9
1789464419.597588,2166,2876,9
1789464419.597651,2085,2877,9
1789464419.5977259,2143,2876,9
1789464419.600363,2140,2874,9
1789464419.6017401,2034,2876,9
1789464419.604662,2034,2874,9
1789464419.606061,2122,2879,9
1789464419.608751,2161,2879,9
1789464419.6101718,2066,2875,9
1789464419.611553,2007,2875,9
1789464419.614253,2056,2877,9
1789464419.615638,2088,2876,9
1789464419.61827,2096,2877,9
1789464419.619839,2074,2878,9
1789464419.622494,2062,2876,9
1789464419.623862,2048,2875,9
1789464419.6263309,2036,2876,9
1789464419.6276941,2046,2875,9
1789464419.6301289,2033,2877,9
1789464419.631538,2079,2877,9
1789464419.637575,2122,2877,9
1789464419.6408849,2054,2877,9
1789464419.643683,2032,2875,9
1789464419.6444008,2123,2877,9
1789464419.644932,2106,2875,9
1789464419.646442,2063,2876,9
1789464419.6503081,2044,2874,9
1789464419.650453,2119,2877,9
1789464419.6507142,2111,2876,9
1789464419.653472,2090,2876,9
1789464419.65357,2044,2876,9
1789464419.6561291,2076,2876,9
1789464419.66346,2105,2877,9
1789464419.666024,2079,2875,9
1789464419.6664052,2060,2876,9
1789464419.6693802,2089,2876,9
1789464419.675393,1995,2875,9
1789464419.6757498,2038,2875,9
1789464419.6762292,2136,2875,9
1789464419.676789,2139,2877,9
1789464419.677152,2107,2878,9
1789464419.678987,2104,2876,9
1789464419.679643,2083,2875,9
1789464419.679708,2049,2875,9
1789464419.6823318,2133,2877,9
1789464419.683677,2140,2876,9
1789464419.6862988,2051,2875,9
1789464419.687677,1980,2873,9
1789464419.690303,2063,2875,9
1789464419.691648,2065,2876,9
1789464419.694272,2071,2876,9
1789464419.695634,2100,2877,9
1789464419.698352,2116,2876,9
1789464419.699696,2114,2877,9
1789464419.702143,2114,2876,9
1789464419.703545,2093,2878,9
1789464419.70616,2027,2874,9
1789464419.707547,2051,2876,9
1789464419.7101572,2096,2877,9
1789464419.7115111,2059,2875,9
1789464419.714118,2065,2877,9
1789464419.722925,2112,2875,9
1789464419.723197,2123,2875,9
1789464419.725046,2047,2877,9
1789464419.727493,2017,2875,9
1789464419.728585,2056,2876,9
1789464419.7311502,2077,2875,9
1789464419.733771,2099,2877,9
1789464419.734136,2091,2877,9
1789464419.7346718,2087,2876,9
1789464419.737352,2076,2877,9
1789464419.7376041,2047,2875,9
1789464419.737675,2017,2875,9
1789464419.740129,2093,2875,9
1789464419.741579,2043,2876,9
1789464419.747351,2098,2876,9
1789464419.748394,2126,2878,9
1789464419.7484999,2106,2877,9
1789464419.7507782,2084,2876,9
1789464419.754272,2079,2876,9
1789464419.754826,2042,2878,9
1789464419.757177,2102,2878,9
1789464419.759431,2095,2877,9
1789464419.7596538,2078,2876,9
1789464419.762159,2052,2875,9
1789464419.763545,2125,2877,9
1789464419.766133,2126,2876,9
1789464419.768476,2001,2875,9
1789464419.7697852,2011,2877,9
1789464419.772106,2025,2875,9
1789464419.77444,2109,2875,9
1789464419.77575,2093,2877,9
1789464419.7783198,2050,2876,9
1789464419.7796211,2055,2877,9
1789464419.782179,2128,2875,9
1789464419.7834811,2127,2877,9
1789464419.7860138,2069,2876,9
1789464419.788573,2022,2875,9
1789464419.789873,2108,2877,9
1789464419.7924302,2109,2876,9
1789464419.793748,2099,2875,9
1789464419.7958431,2049,2874,9
1789464419.7980878,2085,2877,9
1789464419.8025339,2084,2876,9
1789464419.8026721,2060,2875,9
1789464419.805621,2028,2873,9
1789464419.80588,2076,2875,9
1789464419.808678,2084,2876,9
1789464419.809998,2075,2876,9
1789464419.812115,2061,2874,9
1789464419.814175,2074,2877,9
1789464419.8161888,2115,2875,9
1789464419.817502,2093,2876,9
1789464419.819819,2057,2876,9
1789464419.82557,2050,2875,9
1789464419.826078,2079,2877,9
1789464419.8266308,2082,2876,9
1789464419.828351,2077,2875,9
1789464419.8306072,2026,2875,9
1789464419.832444,2090,2876,9
1789464419.836488,2085,2876,9
1789464419.836735,2061,2876,9
1789464419.839019,2019,2874,9
1789464419.8401,2061,2874,9
1789464419.841438,2071,2877,9
1789464419.844005,2068,2875,9
1789464419.846098,2040,2874,9
1789464419.8474329,2087,2877,9
1789464419.8499908,2075,2876,9
1789464419.8513868,2046,2875,9
1789464419.853942,2027,2876,9
1789464419.8564968,2062,2875,9
1789464419.857558,2106,2875,9
1789464419.859875,2075,2876,9
1789464419.862439,2051,2875,9
1789464419.863491,2067,2876,9
1789464419.866047,2088,2876,9
1789464419.867415,2054,2876,9
1789464419.8694851,2012,2875,9
1789464419.8717911,2017,2875,9
1789464419.87665,2063,2876,9
1789464419.877208,2089,2876,9
1789464419.8795068,2024,2877,9
1789464419.879788,2032,2875,9
1789464419.8826182,2075,2876,9
1789464419.8851242,2078,2876,9
1789464419.88713,2040,2875,9
1789464419.889348,1995,2873,9
1789464419.889555,2038,2875,9
1789464419.8918679,2068,2876,9
1789464419.897551,2048,2877,9
1789464419.898039,2026,2876,9
1789464419.898182,2051,2876,9
1789464419.9001012,2065,2877,9
1789464419.901738,2029,2876,9
1789464419.905493,2008,2873,9
1789464419.9073951,2020,2876,9
1789464419.9075131,2081,2876,9
1789464419.909896,2083,2876,9
1789464419.9122791,2031,2874,9
1789464419.913389,2041,2877,9
1789464419.9155421,2063,2875,9
1789464419.9180841,2039,2876,9
1789464419.9201732,2003,2878,9
1789464419.921472,1992,2875,9
1789464419.923906,2040,2876,9
1789464419.926445,2045,2876,9
1789464419.927746,2041,2876,9
1789464419.930069,2031,2875,9
1789464419.9313889,2077,2875,9
1789464419.9337332,2062,2876,9
1789464419.9363031,2000,2876,9
1789464419.9373581,1998,2874,9
1789464419.939979,2012,2876,9
1789464419.9425979,2062,2876,9
1789464419.9516811,2059,2876,9
1789464419.954668,2022,2875,9
1789464419.954871,2093,2876,9
1789464419.962243,2128,2876,9
1789464419.965018,2071,2876,9
1789464419.965076,1998,2874,9
1789464419.965135,2036,2875,9
1789464419.965179,2072,2876,9
1789464419.9652338,2065,2876,9
1789464419.9653,1994,2875,9
1789464419.965353,2041,2877,9
1789464419.965397,2078,2876,9
1789464419.967791,2051,2875,9
1789464419.9814599,2049,2877,9
1789464419.986835,2024,2875,9
1789464419.991054,2030,2876,9
1789464419.9932108,2068,2877,9
1789464419.9940228,2048,2876,9
1789464419.994145,2012,2874,9
1789464419.9942532,2081,2876,9
1789464419.9943821,2082,2876,9
1789464419.994504,2024,2875,9
1789464419.994585,2011,2875,9
1789464419.994653,2063,2875,9
1789464419.9947221,2111,2876,9
1789464419.994786,2079,2875,9
1789464419.996186,2038,2875,9
1789464419.997609,2110,2876,9
1789464420.00031,2129,2877,9
1789464420.001442,2039,2875,9
1789464420.004021,2009,2874,9
1789464420.0062668,2046,2875,9
1789464420.007615,2083,2876,9
1789464420.0101361,2075,2876,9
1789464420.012395,2051,2875,9
1789464420.0137222,2055,2876,9
1789464420.015947,2085,2875,9
1789464420.018592,2064,2877,9
1789464420.0200489,2029,2876,9
1789464420.021489,2031,2875,9
1789464420.0238988,2083,2876,9
1789464420.0266619,2074,2875,9
1789464420.027953,2039,2874,9
1789464420.030423,2026,2875,9
1789464420.037029,2076,2876,9
1789464420.040533,2079,2875,9
1789464420.043181,2031,2877,9
1789464420.0451698,2023,2874,9
1789464420.0505888,2089,2875,9
1789464420.05132,2115,2876,9
1789464420.05361,2106,2877,9
1789464420.053888,2053,2875,9
1789464420.054065,2088,2877,9
1789464420.0541508,2097,2875,9
1789464420.054223,2057,2876,9
1789464420.054325,2038,2876,9
1789464420.055489,2066,2875,9
1789464420.058041,2089,2875,9
1789464420.065669,2073,2876,9
1789464420.0660899,2065,2875,9
1789464420.068653,2105,2877,9
1789464420.069918,2096,2875,9
1789464420.0705311,2091,2876,9
1789464420.0747268,2053,2876,9
1789464420.0777159,2040,2875,9
1789464420.078069,2091,2875,9
1789464420.0781171,2107,2875,9
1789464420.078155,2043,2876,9
1789464420.07933,2051,2877,9
1789464420.08198,2080,2876,9
1789464420.083361,2115,2876,9
1789464420.085521,2082,2876,9
1789464420.0882938,2094,2876,9
1789464420.089749,2081,2876,9
1789464420.092127,2087,2875,9
1789464420.093448,2085,2875,9
1789464420.0960279,2062,2875,9
1789464420.097334,2118,2876,9
1789464420.099654,2125,2876,9
1789464420.102199,2063,2875,9
1789464420.103504,2027,2875,9
1789464420.105831,2019,2875,9
1789464420.108149,2107,2876,9
1789464420.109468,2131,2876,9
1789464420.116849,2054,2875,9
1789464420.1195729,2087,2877,9
1789464420.122742,2110,2876,9
1789464420.1238909,2073,2875,9
1789464420.1245198,2040,2876,9
1789464420.1292422,2013,2875,9
1789464420.1297228,2142,2880,9
1789464420.130091,2153,2879,9
1789464420.130435,2089,2876,9
1789464420.130838,2024,2875,9
1789464420.133215,2076,2877,9
1789464420.133585,2087,2877,9
1789464420.136191,2048,2875,9
1789464420.137554,2028,2874,9
1789464420.1422231,2053,2874,9
1789464420.14355,2087,2876,9
1789464420.1445482,2139,2877,9
1789464420.146498,2098,2877,9
1789464420.14899,2070,2877,9
1789464420.153327,2118,2876,9
1789464420.155803,2033,2877,9
1789464420.1565812,1994,2875,9
1789464420.157096,2031,2875,9
1789464420.159468,2073,2876,9
1789464420.159807,2052,2876,9
1789464420.1622021,2040,2875,9
1789464420.163558,2167,2877,9
1789464420.1660109,2154,2876,9
1789464420.168305,2076,2877,9
1789464420.1696901,2042,2877,9
1789464420.17232,2024,2875,9
1789464420.1736739,2080,2877,9
1789464420.175261,2040,2876,9
1789464420.177879,2077,2879,9
1789464420.1792698,2055,2877,9
1789464420.181889,2088,2877,9
1789464420.1843042,2111,2876,9
1789464420.185627,2066,2877,9
1789464420.188904,2042,2875,9
1789464420.1902342,2106,2875,9
1789464420.191703,2146,2878,9
1789464420.194421,2088,2874,9
1789464420.2030342,2006,2873,9
1789464420.204854,2063,2877,9
1789464420.2050729,2119,2875,9
1789464420.2077398,2094,2875,9
1789464420.212448,2056,2877,9
1789464420.216671,2062,2874,9
1789464420.2176309,2108,2876,9
1789464420.217682,2094,2876,9
1789464420.217751,2058,2875,9
1789464420.217799,2095,2876,9
1789464420.217839,2134,2876,9
1789464420.217877,2084,2876,9
1789464420.219546,2062,2876,9
1789464420.229364,1988,2875,9
1789464420.231839,2094,2876,9
1789464420.2330701,2089,2876,9
1789464420.233772,2053,2876,9
1789464420.2350268,2019,2874,9
1789464420.237529,2104,2877,9
1789464420.2398899,2102,2877,9
1789464420.240343,2081,2876,9
1789464420.2407308,2040,2874,9
1789464420.241123,2086,2876,9
1789464420.241885,2103,2876,9
1789464420.2444239,2088,2875,9
1789464420.245826,2062,2874,9
1789464420.2472918,2096,2876,9
1789464420.249791,2085,2875,9
1789464420.252446,2081,2875,9
1789464420.253578,2043,2875,9
1789464420.256133,2079,2875,9
1789464420.257324,2120,2875,9
1789464420.259802,2122,2875,9
1789464420.26244,2043,2876,9
1789464420.263891,2067,2876,9
1789464420.265311,2112,2876,9
1789464420.267976,2089,2876,9
1789464420.269464,2069,2876,9
1789464420.272087,2028,2874,9
1789464420.27348,2086,2875,9
1789464420.275914,2116,2876,9
1789464420.278074,2095,2875,9
1789464420.2801511,2039,2875,9
1789464420.286464,2099,2877,9
1789464420.287125,2079,2874,9
1789464420.289134,2063,2876,9
1789464420.289448,2040,2876,9
1789464420.291302,2070,2875,9
1789464420.292377,2094,2876,9
1789464420.293581,2085,2876,9
1789464420.2981849,2065,2875,9
1789464420.298563,2106,2877,9
1789464420.301118,2112,2876,9
1789464420.301396,2078,2875,9
1789464420.3035688,2026,2876,9
1789464420.306145,2050,2874,9
1789464420.307441,2087,2876,9
1789464420.313008,2076,2875,9
1789464420.314065,2056,2876,9
1789464420.320255,2069,2876,9
1789464420.322152,2088,2876,9
1789464420.322336,2085,2876,9
1789464420.324678,2051,2875,9
1789464420.324943,2030,2875,9
1789464420.3251781,2087,2877,9
1789464420.325419,2098,2876,9
1789464420.327321,2095,2875,9
1789464420.329653,2087,2878,9
1789464420.3317518,2119,2876,9
1789464420.3340878,2150,2875,9
1789464420.335395,2077,2877,9
1789464420.337513,2050,2876,9
1789464420.3398452,2081,2875,9
1789464420.3419242,2107,2876,9
1789464420.3446138,2132,2878,9
1789464420.345919,2086,2877,9
1789464420.3482702,2112,2878,9
1789464420.349374,2118,2876,9
1789464420.351939,2109,2876,9
1789464420.3540218,2091,2877,9
1789464420.3553312,2114,2877,9
1789464420.357901,2145,2879,9
1789464420.359238,2137,2878,9
1789464420.361335,2087,2874,9
1789464420.367956,2125,2878,9
1789464420.368479,2153,2877,9
1789464420.369432,2149,2876,9
1789464420.371417,2072,2876,9
1789464420.371543,2082,2877,9
1789464420.375772,2132,2877,9
1789464420.3784919,2145,2878,9
1789464420.3787751,2118,2877,9
1789464420.3808908,2076,2877,9
1789464420.383446,2135,2876,9
1789464420.3836532,2160,2877,9
1789464420.3859708,2099,2876,9
1789464420.3933408,2047,2876,9
1789464420.3951948,2089,2875,9
1789464420.397237,2079,2874,9
1789464420.397386,2113,2875,9
1789464420.39949,2039,2875,9
1789464420.402147,2094,2876,9
1789464420.404586,2100,2876,9
1789464420.404927,2105,2876,9
1789464420.4052281,2035,2876,9
1789464420.4055848,2050,2875,9
1789464420.4077382,2117,2875,9
1789464420.4101372,2085,2876,9
1789464420.411445,2052,2874,9
1789464420.413783,2059,2876,9
1789464420.41593,2091,2875,9
1789464420.417238,2087,2877,9
1789464420.419323,2041,2875,9
1789464420.421652,2035,2874,9
1789464420.423979,2086,2876,9
1789464420.426128,2116,2876,9
1789464420.4274309,2075,2875,9
1789464420.429527,2063,2878,9
1789464420.4318578,2104,2876,9
1789464420.4339359,2105,2876,9
1789464420.435238,2056,2876,9
1789464420.437313,2032,2877,9
1789464420.439636,2076,2875,9
1789464420.441966,2105,2875,9
1789464420.447582,2088,2875,9
1789464420.448106,2060,2875,9
1789464420.448642,2096,2877,9
1789464420.450998,2124,2875,9
1789464420.4529421,2044,2875,9
1789464420.455345,2036,2876,9
1789464420.457532,2042,2875,9
1789464420.459432,2077,2875,9
1789464420.4597828,2089,2876,9
1789464420.4617448,2085,2876,9
1789464420.464334,2069,2876,9
1789464420.465638,2125,2875,9
1789464420.470863,2106,2875,9
1789464420.470978,2072,2875,9
1789464420.471523,2048,2875,9
1789464420.475955,2087,2877,9
1789464420.4773371,2111,2875,9
1789464420.477906,2050,2875,9
1789464420.4806468,2036,2875,9
1789464420.4827049,2125,2877,9
1789464420.484747,2119,2875,9
1789464420.4858408,2052,2876,9
1789464420.487958,2031,2877,9
1789464420.489268,2051,2876,9
1789464420.4918568,2124,2876,9
1789464420.494217,2097,2876,9
1789464420.495287,2045,2876,9
1789464420.497618,2062,2876,9
1789464420.500183,2055,2875,9
1789464420.5015,2018,2875,9
1789464420.5038238,1967,2874,9
1789464420.505188,2083,2877,9
1789464420.507596,2091,2874,9
1789464420.510089,2099,2876,9
1789464420.5114,2209,2877,9
1789464420.513525,2113,2876,9
1789464420.515658,2134,2876,9
1789464420.5179882,2100,2876,9
1789464420.525887,2036,2876,9
1789464420.528333,2058,2874,9
1789464420.5287108,2066,2875,9
1789464420.531013,1976,2876,9
1789464420.531596,1995,2876,9
1789464420.532154,2057,2877,9
1789464420.532869,2169,2876,9
1789464420.5375621,2159,2876,9
1789464420.537689,2090,2877,9
1789464420.537882,2043,2874,9
1789464420.540441,2024,2874,9
1789464420.5415301,2116,2875,9
1789464420.543875,2192,2878,9
1789464420.5491378,2100,2876,9
1789464420.5502012,2019,2875,9
1789464420.552097,2064,2876,9
1789464420.5522518,2095,2877,9
1789464420.554883,2119,2877,9
1789464420.556534,2132,2877,9
1789464420.5605178,2168,2879,9
1789464420.5607119,2091,2875,9
1789464420.563091,2021,2875,9
1789464420.5632792,2059,2877,9
1789464420.565621,2086,2875,9
1789464420.568049,2064,2875,9
1789464420.569367,2023,2876,9
1789464420.571452,2022,2875,9
1789464420.573783,2034,2875,9
1789464420.575865,2101,2877,9
1789464420.577964,2086,2875,9
1789464420.5802932,2105,2876,9
1789464420.581599,2130,2876,9
1789464420.583669,2107,2876,9
1789464420.585856,2067,2877,9
1789464420.5880709,2047,2877,9
1789464420.589182,2100,2874,9
1789464420.5912588,2028,2876,9
1789464420.593333,1961,2876,9
1789464420.595658,2007,2874,9
1789464420.597883,2116,2876,9
1789464420.6037052,2062,2877,9
1789464420.6047528,2020,2876,9
1789464420.606696,2076,2877,9
1789464420.607032,2112,2878,9
1789464420.609486,2174,2879,9
1789464420.611122,2190,2879,9
1789464420.6125581,2129,2878,9
1789464420.6167629,2113,2877,9
1789464420.6172428,2119,2877,9
1789464420.6175392,2096,2877,9
1789464420.619361,2073,2877,9
1789464420.621713,1962,2874,9
1789464420.6287282,2016,2875,9
1789464420.629706,2093,2876,9
1789464420.6302989,2078,2875,9
1789464420.631837,2022,2874,9
1789464420.6321511,2108,2877,9
1789464420.6353989,2138,2875,9
1789464420.6364028,2073,2877,9
1789464420.638453,2025,2873,9
1789464420.640385,2060,2874,9
1789464420.642952,2039,2876,9
1789464420.644266,2084,2877,9
1789464420.6456141,2072,2875,9
1789464420.647702,2084,2877,9
1789464420.650284,2144,2876,9
1789464420.651366,2123,2876,9
1789464420.653449,2062,2877,9
1789464420.6560159,2021,2874,9
1789464420.658369,2101,2876,9
1789464420.659677,2101,2876,9
1789464420.662238,2059,2875,9
1789464420.6635368,1984,2874,9
1789464420.666092,2076,2876,9
1789464420.6672199,2075,2876,9
1789464420.669543,2090,2876,9
1789464420.6718562,2051,2878,9
1789464420.6739259,2076,2875,9
1789464420.676237,2089,2875,9
1789464420.6772962,2073,2876,9
1789464420.6830132,2061,2875,9
1789464420.683957,2059,2877,9
1789464420.6841118,1979,2877,9
1789464420.686273,1991,2876,9
1789464420.688123,2014,2876,9
1789464420.6896791,2103,2878,9
1789464420.6922162,2104,2877,9
1789464420.694164,2000,2876,9
1789464420.696119,1995,2876,9
1789464420.6974342,2157,2878,9
1789464420.699753,2334,2875,9
1789464420.705015,2227,2877,9
1789464420.705934,2068,2875,9
1789464420.706524,2064,2873,9
1789464420.708669,2197,2879,9
1789464420.710943,2144,2876,9
1789464420.7114189,2041,2875,9
1789464420.714667,1892,2875,9
1789464420.7164428,2042,2876,9
1789464420.718476,2098,2876,9
1789464420.719551,2020,2876,9
1789464420.7217212,1917,2874,9
1789464420.724143,2024,2875,9
1789464420.725206,2032,2874,9
1789464420.727555,2081,2876,9
1789464420.730119,2200,2877,9
1789464420.731421,2313,2878,9
1789464420.733938,2165,2876,9
1789464420.7350469,2022,2876,9
1789464420.73737,2117,2877,9
1789464420.7396889,2188,2878,9
1789464420.741049,1981,2876,9
1789464420.7436092,1952,2875,9
1789464420.745939,1986,2876,9
1789464420.7472482,2094,2877,9
1789464420.749808,2185,2875,9
1789464420.7511091,2100,2877,9
1789464420.753551,2105,2876,9
1789464420.7588842,2015,2874,9
1789464420.75931,2167,2876,9
1789464420.759767,2056,2876,9
1789464420.761399,2031,2875,9
1789464420.763885,1896,2876,9
1789464420.767026,2117,2876,9
1789464420.767154,2155,2877,9
1789464420.770972,1997,2876,9
1789464420.7712011,1974,2878,9
1789464420.773762,2077,2876,9
1789464420.778539,2210,2876,9
1789464420.77899,2302,2879,9
1789464420.779412,2098,2875,9
1789464420.781389,1946,2875,9
1789464420.783979,2058,2875,9
1789464420.7867782,2082,2876,9
1789464420.788534,2062,2875,9
1789464420.790724,2045,2878,9
1789464420.791789,2149,2878,9
1789464420.793089,2114,2876,9
1789464420.795406,2143,2876,9
1789464420.797736,2113,2877,9
1789464420.800053,2093,2876,9
1789464420.801358,2095,2875,9
1789464420.803915,1931,2872,9
1789464420.805217,1927,2874,9
1789464420.807531,1869,2875,9
1789464420.809994,2059,2876,9
1789464420.811054,2293,2878,9
1789464420.813616,2210,2878,9
1789464420.815936,2123,2877,9
1789464420.8170161,2053,2876,9
1789464420.8194802,2053,2877,9
1789464420.822046,2122,2878,9
1789464420.8231199,2053,2876,9
1789464420.827898,2112,2875,9
1789464420.82884,2101,2875,9
1789464420.831203,2034,2875,9
1789464420.831403,2042,2876,9
1789464420.8338182,2020,2877,9
1789464420.836868,1986,2876,9
1789464420.8388102,1959,2874,9
1789464420.841129,2071,2876,9
1789464420.8411992,2059,2875,9
1789464420.84376,2103,2876,9
1789464420.848636,1994,2876,9
1789464420.8491242,2056,2877,9
1789464420.850017,2078,2875,9
1789464420.851805,2195,2877,9
1789464420.853776,2061,2877,9
1789464420.8551419,2110,2878,9
1789464420.8573272,2268,2878,9
1789464420.859197,2099,2876,9
1789464420.8614058,1959,2876,9
1789464420.863731,2035,2875,9
1789464420.866045,2048,2876,9
1789464420.867119,2008,2876,9
1789464420.8694432,2038,2875,9
1789464420.8717492,1972,2875,9
1789464420.873049,2102,2878,9
1789464420.875294,2210,2877,9
1789464420.877791,2184,2877,9
1789464420.880105,2081,2878,9
1789464420.881402,2082,2877,9
1789464420.8837278,2119,2876,9
1789464420.885042,2152,2878,9
1789464420.887359,2122,2878,9
1789464420.889426,2068,2876,9
1789464420.891979,2024,2875,9
1789464420.897137,2037,2875,9
1789464420.897268,2109,2878,9
1789464420.898109,2044,2876,9
1789464420.89993,2069,2876,9
1789464420.9024372,2088,2875,9
1789464420.903767,2092,2878,9
1789464420.9061298,2044,2877,9
1789464420.90786,1966,2875,9
1789464420.9099321,2119,2878,9
1789464420.911232,2113,2878,9
1789464420.913409,2154,2878,9
1789464420.91774,2170,2877,9
1789464420.918188,2104,2877,9
1789464420.919918,2119,2877,9
1789464420.921817,2008,2874,9
1789464420.923122,1998,2874,9
1789464420.925,1971,2875,9
1789464420.928766,1913,2875,9
1789464420.93012,1955,2875,9
1789464420.931189,2261,2877,9
1789464420.933381,2279,2876,9
1789464420.93582,2088,2876,9
1789464420.936933,2108,2878,9
1789464420.939243,2165,2878,9
1789464420.941795,2142,2875,9
1789464420.9428961,2151,2876,9
1789464420.945448,2017,2876,9
1789464420.947704,1978,2875,9
1789464420.9490051,1978,2877,9
1789464420.951555,1997,2875,9
1789464420.953873,1972,2875,9
1789464420.95492,2025,2874,9
1789464420.957472,2150,2878,9
1789464420.963625,2152,2879,9
1789464420.964074,2205,2877,9
1789464420.9644868,2172,2878,9
1789464420.966156,2120,2877,9
1789464420.967703,2102,2876,9
1789464420.969269,2142,2876,9
1789464420.971482,2044,2877,9
1789464420.973236,2015,2875,9
1789464420.9750311,2060,2875,9
1789464420.977589,2061,2875,9
1789464420.979828,2045,2875,9
1789464420.9811468,2182,2877,9
1789464420.98371,2121,2876,9
1789464420.9850051,2013,2875,9
1789464420.987494,1956,2874,9
1789464420.990083,1986,2875,9
1789464420.991384,2086,2876,9
1789464420.993473,2190,2877,9
1789464420.995786,2102,2877,9
1789464420.9970849,2131,2876,9
1789464420.999399,2152,2877,9
1789464421.001718,2043,2876,9
1789464421.0030122,2048,2876,9
1789464421.0053198,2052,2875,9
1789464421.01068,2160,2878,9
1789464421.0110989,2086,2875,9
1789464421.01192,2094,2877,9
1789464421.013572,2001,2874,9
1789464421.015476,1982,2877,9
1789464421.0187242,1956,2874,9
1789464421.02052,2134,2877,9
1789464421.022534,2053,2877,9
1789464421.023594,1974,2874,9
1789464421.026029,2110,2875,9
1789464421.027332,2091,2875,9
1789464421.0298848,2062,2878,9
1789464421.031177,2011,2878,9
1789464421.0336058,2110,2875,9
1789464421.0349262,2153,2877,9
1789464421.0372338,2074,2877,9
1789464421.039535,2069,2875,9
1789464421.041617,2086,2876,9
1789464421.0439308,2097,2876,9
1789464421.044982,2075,2875,9
1789464421.047294,2077,2877,9
1789464421.049404,2080,2876,9
1789464421.055008,1787,2873,9
1789464421.055764,1739,2874,9
1789464421.0558689,2188,2878,9
1789464421.0576682,2341,2879,9
1789464421.059456,2167,2878,9
1789464421.062407,2070,2878,9
1789464421.064054,2058,2877,9
1789464421.0656252,2174,2877,9
1789464421.066921,2077,2874,9
1789464421.068994,2012,2876,9
1789464421.071306,2049,2875,9
1789464421.07344,2039,2875,9
1789464421.075747,2129,2877,9
1789464421.0768929,2110,2877,9
1789464421.079011,2057,2877,9
1789464421.081079,2141,2877,9
1789464421.0836291,2201,2877,9
1789464421.084897,2103,2878,9
1789464421.0872,2085,2874,9
1789464421.0895019,2035,2876,9
1789464421.0916889,1976,2876,9
1789464421.092979,1929,2874,9
1789464421.099356,2050,2877,9
1789464421.100181,2122,2876,9
1789464421.101696,2210,2877,9
1789464421.101811,2212,2876,9
1789464421.10324,2112,2878,9
1789464421.108032,2122,2877,9
1789464421.1083012,2122,2875,9
1789464421.109888,2090,2874,9
1789464421.1115048,2027,2875,9
1789464421.1136699,1954,2873,9
1789464421.114963,2092,2876,9
1789464421.1172779,2119,2877,9
1789464421.1196082,2026,2876,9
1789464421.1209002,2030,2874,9
1789464421.123203,2047,2876,9
1789464421.125503,2064,2876,9
1789464421.1275651,2094,2876,9
1789464421.1288571,2075,2877,9
1789464421.130929,2097,2876,9
1789464421.13324,2076,2876,9
1789464421.135542,2069,2876,9
1789464421.1376529,2037,2874,9
1789464421.138813,2007,2875,9
1789464421.143198,2109,2876,9
1789464421.143616,2111,2878,9
1789464421.145833,1994,2875,9
1789464421.147597,2055,2877,9
1789464421.149434,2121,2876,9
1789464421.1523242,2086,2876,9
1789464421.15428,2062,2876,9
1789464421.155485,1952,2874,9
1789464421.157797,2153,2878,9
1789464421.158848,2161,2878,9
1789464421.16117,2042,2875,9
1789464421.163635,2043,2877,9
1789464421.1649249,2134,2876,9
1789464421.16723,2141,2876,9
1789464421.1695402,2051,2878,9
1789464421.170828,2008,2875,9
1789464421.172926,2137,2878,9
1789464421.175481,2169,2878,9
1789464421.177561,2102,2877,9
1789464421.178858,2068,2877,9
1789464421.1814039,2092,2876,9
1789464421.18735,2088,2877,9
1789464421.1877491,2108,2876,9
1789464421.188246,2062,2877,9
1789464421.190169,2019,2874,9
1789464421.191892,1968,2876,9
1789464421.193748,1999,2876,9
1789464421.195179,2033,2875,9
1789464421.196925,2122,2877,9
1789464421.19972,2188,2877,9
1789464421.201013,2082,2876,9
1789464421.203562,2054,2876,9
1789464421.204861,2124,2878,9
1789464421.207175,2070,2876,9
1789464421.209482,2146,2875,9
1789464421.210817,2106,2877,9
1789464421.213119,2015,2873,9
1789464421.215173,2044,2876,9
1789464421.217485,2082,2877,9
1789464421.219553,2047,2877,9
1789464421.221868,2031,2874,9
1789464421.222919,2060,2875,9
1789464421.2254689,2076,2875,9
1789464421.226794,2079,2877,9
1789464421.2309818,1990,2876,9
1789464421.231711,2024,2877,9
1789464421.233382,2152,2877,9
1789464421.2362869,2141,2876,9
1789464421.23776,2101,2876,9
1789464421.239511,2076,2874,9
1789464421.241388,2118,2875,9
1789464421.243943,2059,2876,9
1789464421.245235,2049,2875,9
1789464421.247552,2096,2876,9
1789464421.248842,2115,2876,9
1789464421.2513878,2049,2876,9
1789464421.253626,2054,2875,9
1789464421.2549162,2086,2878,9
1789464421.257215,2083,2876,9
1789464421.259765,2121,2876,9
1789464421.2608142,2089,2875,9
1789464421.26336,2041,2875,9
1789464421.265928,2086,2876,9
1789464421.267216,2127,2876,9
1789464421.272311,2089,2875,9
1789464421.2733219,1995,2874,9
1789464421.273729,1964,2875,9
1789464421.275137,2047,2876,9
1789464421.2782211,2095,2876,9
1789464421.279892,2098,2877,9
1789464421.281513,2093,2876,9
1789464421.283267,2127,2875,9
1789464421.28582,2124,2875,9
1789464421.2871182,2035,2877,9
1789464421.289631,2047,2875,9
1789464421.29093,2108,2876,9
1789464421.2934752,2158,2876,9
1789464421.2947671,2049,2874,9
1789464421.297313,2014,2874,9
1789464421.2998579,2152,2876,9
1789464421.300908,2105,2876,9
1789464421.303207,2081,2875,9
1789464421.3055239,2045,2877,9
1789464421.306819,2044,2875,9
1789464421.309366,2053,2876,9
1789464421.3116329,2014,2876,9
1789464421.312923,2089,2879,9
1789464421.318909,2111,2876,9
1789464421.3190699,2112,2876,9
1789464421.320947,2014,2875,9
1789464421.320988,2074,2877,9
1789464421.323555,2137,2878,9
1789464421.326606,2134,2876,9
1789464421.328279,2106,2876,9
1789464421.330302,2085,2876,9
1789464421.331598,2085,2877,9
1789464421.332895,2085,2877,9
1789464421.335226,2080,2876,9
1789464421.337535,2023,2875,9
1789464421.339843,2049,2874,9
1789464421.341137,2074,2876,9
1789464421.343199,2126,2876,9
1789464421.345435,2083,2876,9
1789464421.346729,2095,2877,9
1789464421.349032,2084,2876,9
1789464421.351577,2057,2875,9
1789464421.352635,1990,2876,9
1789464421.354932,1970,2874,9
1789464421.357246,2085,2876,9
1789464421.3616729,2164,2879,9
1789464421.362476,2170,2877,9
1789464421.3643131,2037,2874,9
1789464421.365843,2072,2876,9
1789464421.3670652,2012,2876,9
1789464421.369486,2088,2876,9
1789464421.371299,2070,2878,9
1789464421.373277,2118,2877,9
1789464421.3756092,2147,2877,9
1789464421.376909,2101,2875,9
1789464421.379464,2079,2874,9
1789464421.380786,2129,2878,9
1789464421.383054,2160,2877,9
1789464421.3856,2128,2876,9
1789464421.386888,1992,2874,9
1789464421.38912,1965,2875,9
1789464421.39167,2046,2875,9
1789464421.3929589,2109,2876,9
1789464421.395408,2101,2878,9
1789464421.3967009,2088,2877,9
1789464421.398999,2075,2876,9
1789464421.4013062,2111,2877,9
1789464421.4059079,2054,2877,9
1789464421.406394,2040,2875,9
1789464421.408149,2054,2876,9
1789464421.409887,2058,2876,9
1789464421.411092,2115,2878,9
1789464421.4128509,2087,2877,9
1789464421.416231,2078,2875,9
1789464421.417292,2093,2875,9
1789464421.41871,2120,2878,9
1789464421.421026,2037,2874,9
1789464421.423579,2059,2876,9
1789464421.4246662,2033,2877,9
1789464421.427213,2055,2875,9
1789464421.4297569,2078,2877,9
1789464421.431047,2083,2876,9
1789464421.433592,2070,2875,9
1789464421.434881,2108,2877,9
1789464421.437427,2119,2877,9
1789464421.439735,2028,2875,9
1789464421.441026,2022,2876,9
1789464421.443572,2071,2876,9
1789464421.447691,2100,2876,9
1789464421.447781,2106,2876,9
1789464421.450049,2149,2875,9
1789464421.451705,2098,2875,9
1789464421.4530408,2070,2877,9
1789464421.4547179,2061,2874,9
1789464421.458088,2080,2875,9
1789464421.4592,2121,2876,9
1789464421.4615061,2115,2875,9
1789464421.463888,2054,2877,9
1789464421.4651892,2023,2876,9
1789464421.467492,2059,2876,9
1789464421.4698062,2047,2876,9
1789464421.4710941,2063,2878,9
1789464421.473392,2035,2876,9
1789464421.4754539,2140,2876,9
1789464421.477754,2140,2878,9
1789464421.478799,2041,2875,9
1789464421.481109,2089,2877,9
1789464421.483176,2090,2876,9
1789464421.4857368,2093,2876,9
1789464421.489862,2052,2877,9
1789464421.490239,2047,2875,9
1789464421.491966,2100,2876,9
1789464421.493705,2117,2874,9
1789464421.495241,2117,2877,9
1789464421.4983392,2080,2877,9
1789464421.499868,2089,2875,9
1789464421.500993,2109,2876,9
1789464421.503304,2063,2877,9
1789464421.50463,1998,2875,9
1789464421.506952,2079,2876,9
1789464421.509504,2078,2876,9
1789464421.510638,2072,2876,9
1789464421.5127099,2019,2874,9
1789464421.515239,2071,2876,9
1789464421.5172899,2115,2875,9
1789464421.5195,2059,2876,9
1789464421.520619,2016,2873,9
1789464421.522934,2060,2876,9
1789464421.5250392,2120,2876,9
1789464421.527714,2098,2875,9
1789464421.531518,2029,2875,9
1789464421.5319219,2040,2876,9
1789464421.5336041,2095,2876,9
1789464421.5353322,2089,2877,9
1789464421.536789,2039,2876,9
1789464421.539814,2057,2875,9
1789464421.541625,2092,2877,9
1789464421.542928,2106,2876,9
1789464421.5454762,2074,2876,9
1789464421.546772,2065,2876,9
1789464421.549094,2084,2876,9
1789464421.551393,2086,2877,9
1789464421.552683,2043,2875,9
1789464421.555229,2034,2874,9
1789464421.557775,2062,2876,9
1789464421.558965,2082,2876,9
1789464421.5615082,2064,2876,9
1789464421.562808,2038,2875,9
1789464421.5651798,2108,2878,9
1789464421.567731,2103,2875,9
1789464421.5690188,2049,2877,9
1789464421.574153,2043,2876,9
1789464421.5749068,2070,2876,9
1789464421.575,2115,2876,9
1789464421.577813,2084,2876,9
1789464421.57956,2048,2875,9
1789464421.582272,2064,2878,9
1789464421.584147,2110,2876,9
1789464421.5854442,2089,2876,9
1789464421.5875049,2072,2875,9
1789464421.589864,2042,2874,9
1789464421.59116,2102,2876,9
1789464421.593462,2111,2876,9
1789464421.594752,2065,2876,9
1789464421.5971708,2085,2876,9
1789464421.598557,2105,2876,9
1789464421.601103,2105,2875,9
1789464421.60365,2056,2876,9
1789464421.604705,2006,2875,9
1789464421.606922,2053,2876,9
1789464421.609466,2097,2875,9
1789464421.610755,2044,2876,9
1789464421.615127,2058,2875,9
1789464421.615922,2107,2876,9
1789464421.61764,2115,2876,9
1789464421.6193888,2048,2875,9
1789464421.621114,2022,2877,9
1789464421.623853,2054,2875,9
1789464421.625802,2091,2876,9
1789464421.627108,2105,2875,9
1789464421.6294432,2078,2876,9
1789464421.630761,2070,2876,9
1789464421.633141,2104,2875,9
1789464421.634517,2086,2875,9
1789464421.637047,2028,2876,9
1789464421.6393569,2031,2874,9
1789464421.640625,2086,2877,9
1789464421.6429398,2088,2876,9
1789464421.645259,2072,2876,9
1789464421.6475708,2059,2878,9
1789464421.648622,2102,2875,9
1789464421.650923,2117,2876,9
1789464421.652985,2071,2875,9
1789464421.6586869,2051,2875,9
1789464421.659229,2117,2877,9
1789464421.659641,2106,2876,9
1789464421.662026,2098,2875,9
1789464421.664124,2077,2877,9
1789464421.665452,2110,2877,9
1789464421.667139,2117,2876,9
1789464421.6690078,2060,2875,9
1789464421.6714408,2018,2875,9
1789464421.6727371,2084,2874,9
1789464421.675055,2152,2878,9
1789464421.6776068,2112,2876,9
1789464421.6789,2052,2874,9
1789464421.6812139,2083,2877,9
1789464421.682553,2126,2876,9
1789464421.68463,2151,2876,9
1789464421.687069,2062,2876,9
1789464421.68959,2004,2875,9
1789464421.69088,2023,2877,9
1789464421.693206,2085,2876,9
1789464421.695273,2060,2875,9
1789464421.700999,2032,2874,9
1789464421.70206,2081,2876,9
1789464421.70315,2082,2876,9
1789464421.703249,2070,2875,9
1789464421.7046652,2034,2874,9
1789464421.707592,2106,2875,9
1789464421.709182,2123,2876,9
1789464421.7110772,2102,2876,9
1789464421.713642,2062,2876,9
1789464421.714944,2128,2877,9
1789464421.717508,2105,2877,9
1789464421.7187982,2104,2877,9
1789464421.721347,2052,2876,9
1789464421.722636,2050,2875,9
1789464421.725187,2079,2876,9
1789464421.727253,2107,2875,9
1789464421.728544,2071,2875,9
1789464421.731088,2070,2876,9
1789464421.7333918,2120,2875,9
1789464421.734679,2078,2875,9
1789464421.737223,2019,2875,9
1789464421.738585,2017,2874,9
1789464421.7426891,2092,2876,9
1789464421.743497,2076,2876,9
1789464421.744838,2068,2876,9
1789464421.747902,2033,2875,9
1789464421.749509,2094,2877,9
1789464421.751102,2086,2875,9
1789464421.75267,2110,2876,9
1789464421.754784,2116,2876,9
1789464421.756908,2144,2877,9
1789464421.759219,2083,2875,9
1789464421.7613142,2057,2875,9
1789464421.762608,2018,2875,9
1789464421.765155,2092,2877,9
1789464421.767394,2116,2875,9
1789464421.76854,2067,2876,9
1789464421.771086,2002,2875,9
1789464421.77363,2005,2875,9
1789464421.7746718,2067,2876,9
1789464421.776972,2107,2875,9
1789464421.779517,2074,2876,9
1789464421.7809339,2068,2877,9
1789464421.784436,2103,2875,9
1789464421.7852108,2074,2876,9
1789464421.7868218,2027,2876,9
1789464421.789603,2025,2874,9
1789464421.791394,2085,2876,9
1789464421.7929971,2153,2878,9
1789464421.794988,2093,2876,9
1789464421.797293,2041,2875,9
1789464421.798594,2078,2878,9
1789464421.801152,2076,2876,9
1789464421.803283,2049,2876,9
1789464421.805481,2012,2874,9
1789464421.806769,2024,2875,9
1789464421.8088288,2070,2875,9
1789464421.811376,2091,2876,9
1789464421.812525,2047,2875,9
1789464421.814786,2104,2878,9
1789464421.8173308,2120,2876,9
1789464421.818524,2088,2876,9
1789464421.8206022,2030,2877,9
1789464421.8258848,2056,2875,9
1789464421.826324,2084,2876,9
1789464421.828207,2101,2876,9
1789464421.829924,2075,2876,9
1789464421.831331,2106,2877,9
1789464421.832884,2112,2877,9
1789464421.836171,2084,2876,9
1789464421.837475,2051,2875,9
1789464421.838536,2047,2874,9
1789464421.8408399,2106,2876,9
1789464421.843154,2114,2876,9
1789464421.844525,2081,2876,9
1789464421.8467,2045,2873,9
1789464421.848762,2101,2877,9
1789464421.851307,2134,2875,9
1789464421.853537,2037,2876,9
1789464421.854583,2035,2874,9
1789464421.856652,2078,2876,9
1789464421.8591979,2120,2876,9
1789464421.8613918,2114,2876,9
1789464421.862686,2074,2878,9
1789464421.8685062,2112,2876,9
1789464421.868622,2162,2875,9
1789464421.86874,2073,2875,9
1789464421.871669,2041,2875,9
1789464421.873559,2064,2875,9
1789464421.87517,2121,2876,9
1789464421.876715,2106,2875,9
1789464421.8794901,2047,2874,9
1789464421.880783,2072,2876,9
1789464421.883361,2120,2875,9
1789464421.885462,2098,2875,9
1789464421.8867562,2052,2877,9
1789464421.889306,2012,2875,9
1789464421.891618,2077,2876,9
1789464421.8927748,2088,2876,9
1789464421.895082,2069,2877,9
1789464421.8976269,2048,2876,9
1789464421.898669,2083,2876,9
1789464421.901147,2099,2875,9
1789464421.9024599,2041,2876,9
1789464421.904887,2023,2874,9
1789464421.909943,2063,2877,9
1789464421.910665,2071,2876,9
1789464421.9110909,2060,2876,9
1789464421.9125261,2036,2875,9
1789464421.915426,2085,2877,9
1789464421.917265,2089,2875,9
1789464421.91891,2085,2875,9
1789464421.921491,2051,2876,9
1789464421.922781,2060,2875,9
1789464421.9253519,2138,2878,9
1789464421.926412,2090,2876,9
1789464421.928482,2064,2875,9
1789464421.9307892,2065,2877,9
1789464421.933333,2116,2876,9
1789464421.934619,2073,2875,9
1789464421.936927,2052,2876,9
1789464421.939472,2050,2874,9
1789464421.9405272,2059,2876,9
1789464421.943069,2097,2875,9
1789464421.9443998,2071,2876,9
1789464421.946713,2058,2877,9
1789464421.951276,2109,2876,9
1789464421.951392,2102,2876,9
1789464421.953321,2073,2876,9
1789464421.954654,2015,2876,9
1789464421.9575932,2071,2876,9
1789464421.9590368,2100,2876,9
1789464421.9608362,2088,2876,9
1789464421.963129,2041,2875,9
1789464421.9644191,2109,2877,9
1789464421.966988,2104,2875,9
1789464421.969586,2072,2876,9
1789464421.9706361,2045,2877,9
1789464421.972773,2039,2875,9
1789464421.974828,2088,2876,9
1789464421.976898,2101,2876,9
1789464421.979445,2059,2874,9
1789464421.980497,2058,2876,9
1789464421.982629,2131,2876,9
1789464421.984927,2088,2876,9
1789464421.987058,2062,2875,9
1789464421.991334,2039,2875,9
1789464421.991436,2088,2875,9
1789464421.9934049,2144,2877,9
1789464421.994817,2114,2878,9
1789464421.997859,2036,2875,9
1789464421.999385,2100,2876,9
1789464422.001166,2106,2876,9
1789464422.0024588,2101,2876,9
1789464422.004698,2043,2877,9
1789464422.007251,2079,2875,9
1789464422.009592,2079,2875,9
1789464422.0106418,2106,2874,9
1789464422.0131872,2073,2875,9
1789464422.014475,2094,2876,9
1789464422.016722,2123,2875,9
1789464422.019016,2077,2876,9
1789464422.0213141,2054,2877,9
1789464422.022604,2064,2874,9
1789464422.025147,2116,2876,9
1789464422.026434,2132,2876,9
1789464422.0312672,2097,2877,9
1789464422.0316858,2080,2877,9
1789464422.0334988,2128,2876,9
1789464422.034925,2092,2876,9
1789464422.03652,2091,2877,9
1789464422.039258,2034,2875,9
1789464422.041038,2091,2876,9
1789464422.042408,2125,2875,9
1789464422.044585,2105,2875,9
1789464422.046853,2072,2877,9
1789464422.0489159,2118,2876,9
1789464422.05122,2126,2876,9
1789464422.053526,2080,2875,9
1789464422.054722,2064,2878,9
1789464422.057024,2083,2876,9
1789464422.059573,2123,2876,9
1789464422.060627,2101,2876,9
1789464422.062934,2063,2875,9
1789464422.0654762,2093,2876,9
1789464422.066766,2112,2876,9
1789464422.0709739,2109,2876,9
1789464422.071698,2066,2875,9
1789464422.073546,2063,2875,9
1789464422.0754108,2102,2876,9
1789464422.077897,2108,2875,9
1789464422.0792909,2068,2876,9
1789464422.0812721,2078,2876,9
1789464422.082567,2128,2875,9
1789464422.084631,2121,2876,9
1789464422.086947,2068,2875,9
1789464422.089497,2030,2874,9
1789464422.0907269,2089,2876,9
1789464422.093278,2113,2875,9
1789464422.0945652,2080,2876,9
1789464422.096995,2067,2878,9
1789464422.0993001,2115,2877,9
1789464422.100398,2105,2875,9
1789464422.102759,2058,2876,9
1789464422.105066,2035,2877,9
1789464422.107566,2064,2875,9
1789464422.111019,2119,2876,9
1789464422.1117592,2104,2876,9
1789464422.1135201,2044,2875,9
1789464422.115422,2084,2877,9
1789464422.1168342,2135,2875,9
1789464422.119293,2083,2876,9
1789464422.1207669,2039,2877,9
1789464422.123074,2035,2875,9
1789464422.1251688,2111,2875,9
1789464422.127488,2119,2876,9
1789464422.128783,2071,2875,9
1789464422.13126,2069,2876,9
1789464422.13255,2110,2877,9
1789464422.135096,2097,2875,9
1789464422.137534,2042,2875,9
1789464422.138826,2035,2875,9
1789464422.1413708,2051,2875,9
1789464422.1424189,2087,2877,9
1789464422.144969,2084,2875,9
1789464422.1509151,2043,2874,9
1789464422.1513019,2111,2876,9
1789464422.151389,2102,2875,9
1789464422.153277,2066,2875,9
1789464422.1551309,2036,2876,9
1789464422.1574872,2063,2875,9
1789464422.159091,2087,2875,9
1789464422.160937,2097,2875,9
1789464422.163123,2042,2875,9
1789464422.1644218,2076,2876,9
1789464422.166974,2111,2876,9
1789464422.1693509,2088,2875,9
1789464422.170638,2036,2875,9
1789464422.1729522,2060,2875,9
1789464422.175019,2110,2876,9
1789464422.1763132,2071,2876,9
1789464422.1786182,2069,2876,9
1789464422.180684,2079,2876,9
1789464422.18299,2121,2876,9
1789464422.184277,2063,2876,9
1789464422.1865752,2036,2876,9
1789464422.190891,2037,2873,9
1789464422.191277,2101,2876,9
1789464422.193258,2075,2876,9
1789464422.194966,2079,2875,9
1789464422.196543,2036,2874,9
1789464422.1990201,2117,2877,9
1789464422.200844,2118,2875,9
1789464422.203392,2091,2876,9
1789464422.204685,2002,2874,9
1789464422.207262,2082,2875,9
1789464422.208472,2104,2876,9
1789464422.210567,2103,2876,9
1789464422.212866,2051,2875,9
1789464422.2154188,2080,2876,9
1789464422.2164679,2109,2876,9
1789464422.218517,2082,2875,9
1789464422.2210581,2028,2876,9
1789464422.2233589,2041,2875,9
1789464422.224407,2114,2877,9
1789464422.22695,2105,2876,9
1789464422.2308512,2063,2876,9
1789464422.231251,2058,2876,9
1789464422.2332768,2136,2876,9
1789464422.23508,2115,2876,9
1789464422.23747,2073,2875,9
1789464422.238893,2033,2874,9
1789464422.2406652,2089,2876,9
1789464422.243001,2107,2876,9
1789464422.244295,2098,2875,9
1789464422.2466009,2065,2876,9
1789464422.249059,2088,2876,9
1789464422.250347,2111,2876,9
1789464422.252892,2062,2876,9
1789464422.25527,2051,2876,9
1789464422.256314,2068,2875,9
1789464422.258616,2087,2876,9
1789464422.260913,2110,2875,9
1789464422.263211,2084,2878,9
1789464422.26426,2069,2876,9
1789464422.266573,2124,2876,9
1789464422.271252,2098,2876,9
1789464422.272015,2045,2877,9
1789464422.274674,2059,2875,9
1789464422.274763,2115,2877,9
1789464422.276355,2101,2876,9
1789464422.2792451,2048,2875,9
1789464422.280871,2055,2877,9
1789464422.282944,2142,2875,9
1789464422.285383,2086,2875,9
1789464422.286678,2054,2876,9
1789464422.2887318,2038,2875,9
1789464422.2907882,2075,2874,9
1789464422.293107,2097,2875,9
1789464422.294409,2083,2876,9
1789464422.2967172,2031,2874,9
1789464422.2987788,2069,2876,9
1789464422.301093,2075,2876,9
1789464422.303351,2087,2875,9
1789464422.3044,2071,2876,9
1789464422.3069482,2098,2878,9
1789464422.312468,2149,2878,9
1789464422.312875,2117,2874,9
1789464422.3132339,2043,2876,9
1789464422.31519,2066,2877,9
1789464422.316661,2140,2876,9
1789464422.319936,2062,2875,9
1789464422.3213131,1989,2877,9
1789464422.323315,2029,2874,9
1789464422.324634,2075,2877,9
1789464422.326942,2071,2876,9
1789464422.3282418,2031,2876,9
1789464422.330801,2010,2875,9
1789464422.333355,2077,2877,9
1789464422.3346539,2089,2877,9
1789464422.336967,2030,2875,9
1789464422.338263,2026,2877,9
1789464422.340807,2070,2876,9
1789464422.343106,2102,2877,9
1789464422.345254,2121,2879,9
1789464422.34655,2102,2878,9
1789464422.3488462,2083,2877,9
1789464422.35116,2039,2876,9
1789464422.355499,1963,2874,9
1789464422.35598,1963,2874,9
1789464422.358131,1990,2875,9
1789464422.359586,2043,2875,9
1789464422.360884,2080,2875,9
1789464422.362473,1972,2876,9
1789464422.364486,2027,2874,9
1789464422.3679628,2141,2876,9
1789464422.3690372,2049,2876,9
1789464422.371347,1995,2875,9
1789464422.3726552,2033,2875,9
1789464422.375198,2039,2877,9
1789464422.376492,1968,2875,9
1789464422.379023,1974,2875,9
1789464422.380318,2106,2877,9
1789464422.382872,2135,2877,9
1789464422.384962,2042,2874,9
1789464422.3870358,1851,2874,9
1789464422.3883379,1752,2875,9
1789464422.390652,2016,2876,9
1789464422.392725,2142,2878,9
1789464422.3951051,2122,2879,9
1789464422.4004328,2092,2876,9
1789464422.4013782,2093,2877,9
1789464422.402585,2101,2877,9
1789464422.402764,2067,2876,9
1789464422.405791,2077,2875,9
1789464422.407413,2071,2876,9
1789464422.40898,2070,2875,9
1789464422.411075,1992,2874,9
1789464422.412373,1879,2874,9
1789464422.4146738,1912,2874,9
1789464422.417225,2158,2876,9
1789464422.418533,2052,2876,9
1789464422.420875,1987,2874,9
1789464422.4231849,2172,2878,9
1789464422.424475,2074,2876,9
1789464422.4270248,2053,2876,9
1789464422.428318,2025,2875,9
1789464422.4304278,1965,2873,9
1789464422.432916,1872,2874,9
1789464422.434207,2000,2876,9
1789464422.4367518,2058,2875,9
1789464422.4392982,2149,2877,9
1789464422.443243,2152,2877,9
1789464422.443326,2218,2878,9
1789464422.445251,2229,2878,9
1789464422.447058,2150,2878,9
1789464422.448433,2081,2877,9
1789464422.451478,2184,2877,9
1789464422.4533608,2138,2877,9
1789464422.454659,2048,2877,9
1789464422.456971,2036,2875,9
1789464422.459306,2046,2876,9
1789464422.460362,2009,2874,9
1789464422.462668,1997,2875,9
1789464422.464737,2157,2879,9
1789464422.467288,2188,2877,9
1789464422.4684649,1870,2874,9
1789464422.470861,1984,2874,9
1789464422.4722,1877,2875,9
1789464422.474345,1865,2874,9
1789464422.476705,2018,2875,9
1789464422.47901,2110,2879,9
1789464422.48017,2125,2877,9
1789464422.484811,2227,2877,9
1789464422.485282,2202,2877,9
1789464422.487308,2011,2875,9
1789464422.489028,2126,2876,9
1789464422.490726,2290,2879,9
1789464422.493345,2212,2878,9
1789464422.49522,2035,2875,9
1789464422.496522,2089,2877,9
1789464422.499073,2072,2877,9
1789464422.500132,1894,2875,9
1789464422.50268,1834,2874,9
1789464422.505229,2147,2877,9
1789464422.5062778,2207,2877,9
1789464422.5085812,2051,2875,9
1789464422.510863,1993,2875,9
1789464422.512228,1974,2874,9
1789464422.514782,1847,2874,9
1789464422.517055,2030,2875,9
1789464422.518344,2235,2876,9
1789464422.520653,2196,2877,9
1789464422.523262,2089,2878,9
1789464422.526795,2187,2876,9
1789464422.52782,2019,2875,9
1789464422.529228,2073,2876,9
1789464422.5309582,2194,2878,9
1789464422.532217,2193,2877,9
1789464422.5354712,2084,2877,9
1789464422.537311,1942,2873,9
1789464422.5386088,1953,2875,9
1789464422.5411599,2111,2878,9
1789464422.542218,2127,2878,9
1789464422.5443,2076,2877,9
1789464422.546609,1970,2875,9
1789464422.548675,2062,2878,9
1789464422.550977,2106,2877,9
1789464422.552265,1826,2874,9
1789464422.554574,1876,2875,9
1789464422.556709,2468,2879,9
1789464422.558772,2282,2878,9
1789464422.561089,1968,2874,9
1789464422.562195,1995,2875,9
1789464422.5647402,2081,2875,9
1789464422.5695019,2127,2877,9
1789464422.570245,2194,2876,9
1789464422.570642,2180,2877,9
1789464422.572976,2069,2877,9
1789464422.5747252,1998,2877,9
1789464422.57631,2048,2877,9
1789464422.5796869,2057,2875,9
1789464422.580746,2157,2879,9
1789464422.583065,2272,2877,9
1789464422.5841322,2296,2877,9
1789464422.5864398,1966,2874,9
1789464422.588502,1974,2876,9
1789464422.591049,1977,2874,9
1789464422.59234,1973,2874,9
1789464422.594412,2014,2874,9
1789464422.596715,2155,2877,9
1789464422.599259,2053,2876,9
1789464422.600307,2051,2877,9
1789464422.602605,2033,2877,9
1789464422.604908,2132,2877,9
1789464422.606195,2101,2878,9
1789464422.611138,1877,2875,9
1789464422.611521,1883,2875,9
1789464422.613596,2190,2879,9
1789464422.615262,2187,2877,9
1789464422.616779,2188,2878,9
1789464422.618322,2066,2876,9
1789464422.621301,2082,2877,9
1789464422.622591,2110,2878,9
1789464422.624896,2377,2877,9
1789464422.6261692,2202,2877,9
1789464422.628723,2132,2878,9
1789464422.630964,1910,2874,9
1789464422.63226,2086,2876,9
1789464422.634571,2125,2878,9
1789464422.637116,1885,2874,9
1789464422.638405,2035,2875,9
1789464422.64095,1934,2875,9
1789464422.642238,1985,2876,9
1789464422.644703,2066,2875,9
1789464422.646805,2150,2878,9
1789464422.6526341,2072,2878,9
1789464422.653358,1930,2874,9
1789464422.6538088,2026,2877,9
1789464422.655215,2031,2875,9
1789464422.6568499,2258,2878,9
1789464422.658588,2141,2878,9
1789464422.66136,2059,2876,9
1789464422.663358,2116,2876,9
1789464422.6644201,2037,2874,9
1789464422.6667368,2088,2877,9
1789464422.6690052,2029,2873,9
1789464422.670305,1987,2876,9
1789464422.672856,2258,2879,9
1789464422.674146,2269,2876,9
1789464422.6766038,2026,2874,9
1789464422.679151,1896,2876,9
1789464422.680203,2013,2875,9
1789464422.682749,2196,2878,9
1789464422.685267,2128,2876,9
1789464422.686319,2192,2876,9
1789464422.688864,1990,2877,9
1789464422.690152,1845,2874,9
1789464422.6942852,1998,2876,9
1789464422.695065,2099,2875,9
1789464422.697029,2087,2875,9
1789464422.698859,2054,2878,9
1789464422.700326,2194,2876,9
1789464422.703351,2308,2876,9
1789464422.70494,2150,2877,9
1789464422.706236,1782,2874,9
1789464422.708786,2005,2875,9
1789464422.7101,2297,2878,9
1789464422.712173,2370,2878,9
1789464422.7144792,2037,2877,9
1789464422.716789,2051,2877,9
1789464422.718078,1908,2874,9
1789464422.7206242,1900,2875,9
1789464422.722927,2182,2877,9
1789464422.724215,2248,2878,9
1789464422.726759,1976,2875,9
1789464422.729069,1900,2874,9
1789464422.73011,1936,2874,9
1789464422.732405,2065,2877,9
1789464422.736568,2195,2877,9
1789464422.7370062,2120,2877,9
1789464422.7389271,1890,2875,9
1789464422.740266,1957,2874,9
1789464422.743386,2254,2878,9
1789464422.745157,2254,2879,9
1789464422.747091,1846,2874,9
1789464422.74839,1818,2875,9
1789464422.750701,2127,2878,9
1789464422.752067,2426,2878,9
1789464422.7546198,2285,2877,9
1789464422.756844,2088,2878,9
1789464422.758136,2091,2878,9
1789464422.7606552,2091,2874,9
1789464422.7629051,2030,2875,9
1789464422.764044,2065,2875,9
1789464422.766588,2209,2876,9
1789464422.7686532,2096,2876,9
1789464422.7709608,1846,2873,9
1789464422.772251,1756,2875,9
1789464422.774795,1948,2875,9
1789464422.779093,2157,2877,9
1789464422.7795079,2188,2878,9
1789464422.781471,2019,2874,9
1789464422.783236,1896,2874,9
1789464422.7850938,2092,2877,9
1789464422.787955,2336,2877,9
1789464422.788107,2157,2877,9
1789464422.790496,2172,2877,9
1789464422.7926059,2228,2877,9
1789464422.794917,2225,2877,9
1789464422.796222,2061,2875,9
1789464422.798769,2155,2878,9
1789464422.8000581,2164,2879,9
1789464422.802604,2030,2876,9
1789464422.804915,2032,2878,9
1789464422.806205,1991,2874,9
1789464422.808519,1978,2875,9
1789464422.810592,1955,2874,9
1789464422.812901,2014,2875,9
1789464422.81404,2048,2875,9
1789464422.816585,2260,2876,9
1789464422.823329,2177,2876,9
1789464422.8235369,2010,2876,9
1789464422.823682,2014,2877,9
1789464422.82572,2060,2875,9
1789464422.82829,2104,2876,9
1789464422.828496,2147,2879,9
1789464422.8301802,2054,2875,9
1789464422.83297,1952,2875,9
1789464422.8342679,2065,2876,9
1789464422.836576,2047,2875,9
1789464422.839154,1876,2874,9
1789464422.840448,1943,2874,9
1789464422.8430028,2283,2878,9
1789464422.8440561,2281,2879,9
1789464422.8463612,2083,2878,9
1789464422.848908,2073,2878,9
1789464422.8502002,2192,2877,9
1789464422.852524,1996,2875,9
1789464422.85483,2042,2875,9
1789464422.856127,2172,2878,9
1789464422.858187,1973,2874,9
1789464422.8628118,1930,2874,9
1789464422.863272,1973,2874,9
1789464422.865505,2165,2877,9
1789464422.867025,2233,2877,9
1789464422.869128,2062,2878,9
1789464422.8720992,2140,2876,9
1789464422.872311,2140,2878,9
1789464422.874908,2068,2875,9
1789464422.876073,2032,2876,9
1789464422.878135,2133,2877,9
1789464422.880366,2113,2877,9
1789464422.882422,2096,2876,9
1789464422.884969,2137,2876,9
1789464422.886047,2030,2877,9
1789464422.888224,1984,2875,9
1789464422.89077,2081,2876,9
1789464422.8920588,2076,2877,9
1789464422.894604,2094,2875,9
1789464422.897147,2058,2875,9
1789464422.898192,1857,2874,9
1789464422.9005,1968,2873,9
1789464422.905611,2187,2877,9
1789464422.906322,2220,2878,9
1789464422.907085,2124,2876,9
1789464422.908276,2002,2875,9
1789464422.911047,2120,2876,9
1789464422.912589,2237,2877,9
1789464422.91428,2172,2877,9
1789464422.916887,2148,2877,9
1789464422.918207,2010,2876,9
1789464422.920605,1931,2874,9
1789464422.9229288,2086,2877,9
1789464422.924222,2146,2879,9
1789464422.92652,2054,2875,9
1789464422.928828,2051,2876,9
1789464422.930909,2039,2874,9
1789464422.932155,2038,2878,9
1789464422.934525,2069,2877,9
1789464422.9368541,2011,2876,9
1789464422.9379041,2136,2876,9
1789464422.940189,2059,2877,9
1789464422.9426339,2035,2875,9
1789464422.947266,2139,2878,9
1789464422.948531,2126,2878,9
1789464422.950065,2130,2877,9
1789464422.9515991,2166,2878,9
1789464422.953682,2063,2877,9
1789464422.957099,2004,2874,9
1789464422.957344,2050,2876,9
1789464422.959106,2013,2875,9
1789464422.960437,2033,2875,9
1789464422.962613,2026,2875,9
1789464422.963973,2096,2878,9
1789464422.9663758,2104,2875,9
1789464422.96869,2071,2875,9
1789464422.969999,2132,2877,9
1789464422.972202,2110,2877,9
1789464422.9745128,2101,2878,9
1789464422.976633,2029,2875,9
1789464422.97872,2027,2874,9
1789464422.980012,2054,2876,9
1789464422.982361,2132,2876,9
1789464422.984758,2134,2875,9
1789464422.986058,2098,2877,9
1789464422.991008,2053,2876,9
1789464422.9918551,2058,2873,9
1789464422.9919949,2098,2876,9
1789464422.995585,2079,2876,9
1789464422.997067,1960,2876,9
1789464423.000273,2016,2874,9
1789464423.0003772,2121,2877,9
1789464423.002398,2088,2876,9
1789464423.0047529,2066,2877,9
1789464423.006052,2017,2874,9
1789464423.008213,2068,2877,9
1789464423.010567,2137,2877,9
1789464423.0128949,2151,2878,9
1789464423.014206,2102,2877,9
1789464423.016289,2063,2876,9
1789464423.018547,2075,2876,9
1789464423.0199418,2042,2875,9
1789464423.0225012,2025,2875,9
1789464423.024825,2121,2878,9
1789464423.026122,2119,2875,9
1789464423.0282931,2129,2879,9
1789464423.030667,2041,2875,9
1789464423.0357382,2103,2877,9
1789464423.037029,2191,2876,9
1789464423.0375512,2023,2876,9
1789464423.040768,1981,2874,9
1789464423.0412931,2008,2875,9
1789464423.044259,2048,2875,9
1789464423.044367,2016,2874,9
1789464423.0462441,2074,2875,9
1789464423.0479832,2184,2877,9
1789464423.0505521,2213,2876,9
1789464423.052757,2051,2876,9
1789464423.054113,2016,2876,9
1789464423.056659,2031,2875,9
1789464423.058004,2147,2877,9
1789464423.060359,2140,2876,9
1789464423.062809,2042,2874,9
1789464423.063918,2041,2877,9
1789464423.066211,2023,2876,9
1789464423.068513,2015,2876,9
1789464423.0707421,2042,2877,9
1789464423.0728478,1926,2875,9
1789464423.074165,2054,2876,9
1789464423.076666,2266,2880,9
1789464423.081579,2190,2878,9
1789464423.082113,2099,2877,9
1789464423.082573,2116,2876,9
1789464423.084586,2153,2878,9
1789464423.0877419,2080,2877,9
1789464423.089657,2098,2878,9
1789464423.091697,2097,2876,9
1789464423.093409,2095,2875,9
1789464423.094923,2043,2877,9
1789464423.09617,1927,2875,9
1789464423.0984051,2070,2877,9
1789464423.1007528,2137,2875,9
1789464423.102845,2062,2876,9
1789464423.103916,2069,2877,9
1789464423.106356,2085,2877,9
1789464423.108932,1989,2876,9
1789464423.110246,1996,2877,9
1789464423.112555,1979,2875,9
1789464423.113905,2033,2875,9
1789464423.1162639,2183,2877,9
1789464423.118529,2201,2877,9
1789464423.120853,2150,2875,9
1789464423.122493,2043,2876,9
1789464423.1269581,2140,2875,9
1789464423.127486,2144,2876,9
1789464423.1295161,2105,2877,9
1789464423.1313941,2098,2877,9
1789464423.13273,2064,2876,9
1789464423.134924,2043,2877,9
1789464423.136798,2002,2875,9
1789464423.138922,2022,2877,9
1789464423.139998,2052,2875,9
1789464423.142106,2091,2875,9
1789464423.1444402,2095,2875,9
1789464423.147022,2033,2875,9
1789464423.1481102,2023,2874,9
1789464423.1504178,2071,2876,9
1789464423.153064,2102,2876,9
1789464423.1543748,2016,2875,9
1789464423.1567109,2034,2875,9
1789464423.1588,2092,2876,9
1789464423.159908,2078,2876,9
1789464423.162457,2080,2876,9
1789464423.1645179,2072,2878,9
1789464423.166822,2140,2876,9
1789464423.167915,2065,2875,9
1789464423.172647,2038,2876,9
1789464423.173505,2037,2877,9
1789464423.175479,2101,2875,9
1789464423.177407,2124,2876,9
1789464423.179168,2106,2876,9
1789464423.180853,2077,2877,9
1789464423.1827998,2102,2877,9
1789464423.1847308,2105,2876,9
1789464423.186031,2050,2875,9
1789464423.18859,1970,2874,9
1789464423.189831,1976,2875,9
1789464423.192389,2027,2876,9
1789464423.1947,2101,2877,9
1789464423.195803,2086,2879,9
1789464423.198362,2125,2877,9
1789464423.200664,2134,2875,9
1789464423.201807,2136,2877,9
1789464423.2041118,2085,2876,9
1789464423.206228,2090,2874,9
1789464423.208776,2105,2876,9
1789464423.209826,2108,2876,9
1789464423.21214,2062,2875,9
1789464423.217515,2034,2877,9
1789464423.217984,2091,2877,9
1789464423.218085,2076,2874,9
1789464423.220466,2021,2876,9
1789464423.222486,2022,2875,9
1789464423.225426,2096,2877,9
1789464423.227337,2101,2877,9
1789464423.229384,2080,2875,9
1789464423.2306828,2044,2874,9
1789464423.231987,2101,2876,9
1789464423.234057,2131,2876,9
1789464423.236181,2072,2876,9
1789464423.238497,2045,2877,9
1789464423.240812,2080,2875,9
1789464423.242114,2101,2875,9
1789464423.244672,2099,2875,9
1789464423.24597,2059,2875,9
1789464423.248518,2072,2877,9
1789464423.2498088,2130,2875,9
1789464423.252112,2065,2875,9
1789464423.2546601,2002,2877,9
1789464423.2558,2015,2875,9
1789464423.2619898,2097,2876,9
1789464423.262458,2111,2876,9
1789464423.2631931,2082,2876,9
1789464423.2644281,2057,2877,9
1789464423.2674592,2096,2876,9
1789464423.26921,2080,2875,9
1789464423.2710679,2073,2877,9
1789464423.273222,2042,2874,9
1789464423.274522,2170,2879,9
1789464423.2768252,2120,2876,9
1789464423.2781172,2079,2876,9
1789464423.2801862,2079,2877,9
1789464423.282736,2112,2877,9
1789464423.2840261,2122,2875,9
1789464423.286468,2056,2876,9
1789464423.287796,2021,2874,9
1789464423.2901099,2042,2874,9
1789464423.2924218,2091,2876,9
1789464423.294488,2064,2877,9
1789464423.2958028,2047,2875,9
1789464423.297931,2093,2876,9
1789464423.300514,2100,2875,9
1789464423.306277,2093,2874,9
1789464423.3070688,2061,2877,9
1789464423.308259,2037,2875,9
1789464423.308358,2113,2875,9
1789464423.310217,2104,2876,9
1789464423.3132591,2083,2875,9
1789464423.3152902,2074,2876,9
1789464423.317208,2110,2877,9
1789464423.3185081,2114,2876,9
1789464423.32059,2060,2876,9
1789464423.321882,2049,2877,9
1789464423.324485,2086,2876,9
1789464423.3267882,2097,2875,9
1789464423.328079,2079,2875,9
1789464423.330417,2032,2874,9
1789464423.3317811,2079,2875,9
1789464423.334338,2114,2876,9
1789464423.3366468,2067,2876,9
1789464423.3378031,2033,2875,9
1789464423.340353,2046,2875,9
1789464423.3426602,2113,2877,9
1789464423.343951,2059,2876,9
1789464423.3460648,2031,2877,9
1789464423.3500001,2051,2877,9
1789464423.3501031,2090,2876,9
1789464423.3524978,2042,2876,9
1789464423.354323,2022,2876,9
1789464423.3592691,2024,2876,9
1789464423.359376,2099,2876,9
1789464423.361532,2098,2876,9
1789464423.362605,2095,2876,9
1789464423.363895,2062,2877,9
1789464423.365979,2075,2876,9
1789464423.3685372,2100,2876,9
1789464423.37078,2041,2875,9
1789464423.371833,2018,2875,9
1789464423.374381,2074,2876,9
1789464423.376737,2092,2876,9
1789464423.3777852,2095,2876,9
1789464423.380096,2071,2877,9
1789464423.382642,2105,2877,9
1789464423.384945,2105,2877,9
1789464423.386235,2088,2876,9
1789464423.388781,2040,2876,9
1789464423.3900712,2045,2875,9
1789464423.394645,2059,2876,9
1789464423.3954182,2072,2876,9
1789464423.3971899,2014,2875,9
1789464423.3991418,2070,2877,9
1789464423.400417,2134,2876,9
1789464423.402476,2187,2876,9
1789464423.404426,2155,2876,9
1789464423.406544,2015,2876,9
1789464423.408868,2034,2876,9
1789464423.410007,2085,2876,9
1789464423.4125812,2030,2876,9
1789464423.414906,2030,2876,9
1789464423.416211,2096,2876,9
1789464423.4183638,2057,2875,9
1789464423.420574,2020,2875,9
1789464423.4218729,1989,2874,9
1789464423.42419,2073,2876,9
1789464423.426543,2125,2876,9
1789464423.427846,2110,2876,9
1789464423.430259,2081,2874,9
1789464423.43167,2111,2877,9
1789464423.433992,2099,2875,9
1789464423.436068,2054,2876,9
1789464423.441684,2048,2877,9
1789464423.4425092,2092,2878,9
1789464423.442949,2079,2875,9
1789464423.444247,2121,2876,9
1789464423.445754,2075,2876,9
1789464423.449294,2083,2877,9
1789464423.451311,2102,2877,9
1789464423.45359,2111,2876,9
1789464423.45364,2055,2875,9
1789464423.456199,2007,2874,9
1789464423.458765,2086,2876,9
1789464423.460048,2083,2876,9
1789464423.462639,2042,2876,9
1789464423.4641259,2042,2875,9
1789464423.4666271,2104,2877,9
1789464423.467695,2098,2876,9
1789464423.4700081,2058,2876,9
1789464423.472107,2069,2877,9
1789464423.4742138,2098,2875,9
1789464423.476769,2093,2876,9
1789464423.478059,2090,2876,9
1789464423.480614,2081,2875,9
1789464423.4816651,2125,2876,9
1789464423.487915,2141,2876,9
1789464423.488436,2068,2876,9
1789464423.4885278,2040,2875,9
1789464423.490844,2035,2875,9
1789464423.493036,2085,2876,9
1789464423.4949162,2100,2876,9
1789464423.496305,2048,2877,9
1789464423.498395,2052,2877,9
1789464423.500619,2088,2876,9
1789464423.501787,2073,2875,9
1789464423.504079,2025,2875,9
1789464423.5115242,2054,2877,9
1789464423.514953,2115,2875,9
1789464423.557029,2143,2876,9
1789464423.561257,2054,2876,9
1789464423.563256,2089,2877,9
1789464423.579231,2095,2876,9
1789464423.580796,2064,2876,9
1789464423.584255,2003,2875,9
1789464423.588659,1994,2874,9
1789464423.5908182,2037,2875,9
1789464423.591585,2081,2877,9
1789464423.591694,2075,2877,9
1789464423.591868,2067,2875,9
1789464423.5920022,2105,2876,9
1789464423.592043,2144,2876,9
1789464423.592122,2086,2874,9
1789464423.5921578,2031,2876,9
1789464423.592211,2084,2876,9
1789464423.5923588,2164,2877,9
1789464423.592483,2130,2877,9
1789464423.592643,2017,2875,9
1789464423.5927029,2029,2875,9
1789464423.5927649,2128,2876,9
1789464423.592816,2120,2878,9
1789464423.59285,2024,2876,9
1789464423.592928,1994,2873,9
1789464423.592981,2072,2875,9
1789464423.5930262,2089,2877,9
1789464423.593062,2052,2875,9
1789464423.593175,2034,2875,9
1789464423.593236,2135,2876,9
1789464423.5932732,2119,2876,9
1789464423.593427,2072,2876,9
1789464423.5934699,2034,2876,9
1789464423.593554,2108,2878,9
1789464423.5936158,2165,2878,9
1789464423.593651,2070,2875,9
1789464423.593684,2026,2875,9
1789464423.593774,2103,2877,9
1789464423.5938811,2112,2877,9
1789464423.593966,2060,2876,9
1789464423.594007,1991,2873,9
1789464423.59411,2036,2873,9
1789464423.594145,2052,2875,9
1789464423.594199,2085,2877,9
1789464423.5957708,2061,2875,9
1789464423.59826,2090,2877,9
1789464423.600596,2107,2877,9
1789464423.60193,2084,2876,9
1789464423.604246,2059,2876,9
1789464423.606385,2055,2877,9
1789464423.60769,2095,2874,9
1789464423.610003,2107,2876,9
1789464423.612553,2094,2877,9
1789464423.613796,2063,2877,9
1789464423.615864,2101,2877,9
1789464423.618003,2106,2876,9
1789464423.6203141,2082,2875,9
1789464423.6216588,2033,2876,9
1789464423.626027,2050,2875,9
1789464423.626606,2083,2876,9
1789464423.628928,2075,2876,9
1789464423.63091,2054,2875,9
1789464423.632925,2086,2876,9
1789464423.6342962,2102,2876,9
1789464423.636244,2083,2877,9
1789464423.638389,2034,2877,9
1789464423.639793,2043,2875,9
1789464423.642347,2106,2876,9
1789464423.646257,2117,2877,9
1789464423.647031,2067,2875,9
1789464423.648879,2066,2877,9
1789464423.650471,2113,2876,9
1789464423.652629,2117,2876,9
1789464423.6539571,2044,2875,9
1789464423.655926,2035,2875,9
1789464423.658813,2102,2875,9
1789464423.66012,2082,2876,9
1789464423.662684,2076,2876,9
1789464423.66398,2049,2875,9
1789464423.666285,2115,2875,9
1789464423.66758,2100,2876,9
1789464423.669895,2046,2875,9
1789464423.6719701,2027,2878,9
1789464423.674288,2062,2876,9
1789464423.676605,2096,2877,9
1789464423.6778991,2091,2876,9
1789464423.6804469,2061,2876,9
1789464423.68174,2071,2877,9
1789464423.6842518,2088,2877,9
1789464423.686419,2089,2876,9
1789464423.6879349,2038,2875,9
1789464423.692291,2051,2875,9
1789464423.693412,2089,2876,9
1789464423.694688,2101,2876,9
1789464423.696589,2062,2876,9
1789464423.698454,2071,2877,9
1789464423.699957,2121,2876,9
1789464423.701946,2094,2876,9
1789464423.703959,2045,2876,9
1789464423.70627,2032,2875,9
1789464423.708334,2083,2876,9
1789464423.709515,2089,2877,9
1789464423.711831,2080,2876,9
1789464423.714388,2045,2875,9
1789464423.7156851,2096,2877,9
1789464423.7182379,2114,2876,9
1789464423.719535,2038,2875,9
1789464423.72175,2020,2874,9
1789464423.724065,2048,2875,9
1789464423.726618,2107,2877,9
1789464423.727678,2103,2877,9
1789464423.729988,2063,2875,9
1789464423.732539,2100,2878,9
1789464423.73383,2101,2875,9
1789464423.739176,2065,2874,9
1789464423.7396271,2048,2877,9
1789464423.741695,2049,2874,9
1789464423.741834,2088,2876,9
1789464423.745315,2088,2876,9
1789464423.747018,2067,2875,9
1789464423.748791,2046,2877,9
1789464423.75048,2102,2876,9
1789464423.751779,2077,2875,9
1789464423.7538712,2054,2877,9
1789464423.7561972,2070,2877,9
1789464423.7585301,2098,2876,9
1789464423.759588,2098,2876,9
1789464423.762038,2058,2876,9
1789464423.7645912,2044,2874,9
1789464423.7656472,2109,2876,9
1789464423.768196,2113,2875,9
1789464423.770496,2056,2876,9
1789464423.7715461,2038,2877,9
1789464423.7738152,2062,2875,9
1789464423.776126,2083,2876,9
1789464423.778452,2100,2876,9
1789464423.779746,2066,2875,9
1789464423.786062,2077,2877,9
1789464423.788379,2095,2876,9
1789464423.788505,2063,2877,9
1789464423.788713,2019,2875,9
1789464423.790623,2054,2874,9
1789464423.792191,2083,2876,9
1789464423.793953,2092,2876,9
1789464423.795649,2051,2875,9
1789464423.7978618,2040,2875,9
1789464423.800419,2132,2875,9
1789464423.8015099,2108,2875,9
1789464423.805342,2049,2875,9
1789464423.808059,2006,2874,9
1789464423.808226,2066,2875,9
1789464423.810841,2140,2879,9
1789464423.81335,2116,2878,9
1789464423.8151622,2057,2877,9
1789464423.817217,2112,2877,9
1789464423.818388,2125,2877,9
1789464423.819691,2078,2876,9
1789464423.8223202,2043,2877,9
1789464423.823618,2072,2875,9
1789464423.826059,2099,2876,9
1789464423.828369,2090,2875,9
1789464423.829663,2035,2875,9
1789464423.832225,2079,2877,9
1789464423.83429,2111,2876,9
1789464423.836684,2072,2876,9
1789464423.8377368,2045,2877,9
1789464423.8400488,2045,2876,9
1789464423.842605,2071,2876,9
1789464423.843661,2057,2876,9
1789464423.845974,2043,2876,9
1789464423.8487139,2069,2878,9
1789464423.853964,2115,2876,9
1789464423.854505,2089,2876,9
1789464423.85504,2042,2876,9
1789464423.857762,2034,2875,9
1789464423.858596,2100,2876,9
1789464423.8601658,2127,2875,9
1789464423.8616161,2130,2879,9
1789464423.8649778,2045,2874,9
1789464423.866283,2071,2876,9
1789464423.867591,2079,2876,9
1789464423.870614,2065,2876,9
1789464423.8746948,2021,2873,9
1789464423.875193,2059,2876,9
1789464423.876341,2133,2879,9
1789464423.879064,2098,2875,9
1789464423.8809652,2049,2875,9
1789464423.8826098,2064,2876,9
1789464423.8843079,2116,2876,9
1789464423.886645,2092,2875,9
1789464423.887947,2021,2876,9
1789464423.890184,2013,2875,9
1789464423.892596,2093,2876,9
1789464423.893895,2090,2876,9
1789464423.896406,2056,2874,9
1789464423.8977,2057,2876,9
1789464423.900013,2132,2876,9
1789464423.9026382,2108,2875,9
1789464423.903842,2083,2877,9
1789464423.906406,2039,2874,9
1789464423.907701,2053,2875,9
1789464423.9101582,2080,2876,9
1789464423.911535,2112,2878,9
1789464423.914093,2061,2877,9
1789464423.91665,2103,2876,9
1789464423.9180858,2104,2877,9
1789464423.922265,2072,2877,9
1789464423.92317,2059,2876,9
1789464423.9249878,2064,2876,9
1789464423.926977,2080,2876,9
1789464423.928583,2077,2876,9
1789464423.9302962,2052,2875,9
1789464423.931902,2086,2877,9
1789464423.9338949,2096,2875,9
1789464423.936457,2082,2876,9
1789464423.93781,2030,2877,9
1789464423.942129,2051,2875,9
1789464423.942946,2100,2876,9
1789464423.944457,2109,2876,9
1789464423.946205,2062,2875,9
1789464423.9477062,2040,2876,9
1789464423.950835,2134,2876,9
1789464423.952684,2125,2876,9
1789464423.9538538,2053,2876,9
1789464423.9561658,2025,2874,9
1789464423.9574609,2071,2876,9
1789464423.959777,2107,2877,9
1789464423.96208,2090,2876,9
1789464423.9643881,1966,2875,9
1789464423.9667141,2082,2878,9
1789464423.9677708,2109,2876,9
1789464423.97032,2018,2875,9
1789464423.9716108,1989,2874,9
1789464423.973912,2056,2876,9
1789464423.976219,2092,2876,9
1789464423.9785202,2096,2877,9
1789464423.979708,2066,2875,9
1789464423.984826,2086,2877,9
1789464423.985271,2145,2877,9
1789464423.987435,2128,2875,9
1789464423.9876952,2073,2877,9
1789464423.990428,2032,2875,9
1789464423.992255,2073,2876,9
1789464423.993857,2123,2876,9
1789464423.9957418,2062,2875,9
1789464423.998274,1979,2875,9
1789464423.999566,2044,2876,9
1789464424.0018728,2055,2877,9
1789464424.004425,2101,2876,9
1789464424.005718,2086,2877,9
1789464424.0082638,2140,2879,9
1789464424.009554,2105,2876,9
1789464424.011616,2061,2876,9
1789464424.013931,2044,2876,9
1789464424.016242,2096,2876,9
1789464424.017535,2117,2876,9
1789464424.020083,2111,2876,9
1789464424.0223942,2046,2875,9
1789464424.023444,2102,2877,9
1789464424.028926,2116,2878,9
1789464424.029324,2129,2876,9
1789464424.0300531,2028,2875,9
1789464424.03228,1982,2876,9
1789464424.033963,2063,2877,9
1789464424.035864,2059,2875,9
1789464424.039252,2020,2876,9
1789464424.0405738,2103,2878,9
1789464424.04187,2125,2877,9
1789464424.044179,2025,2876,9
1789464424.0454779,1931,2876,9
1789464424.047553,2035,2876,9
1789464424.0500998,2258,2878,9
1789464424.051401,2153,2877,9
1789464424.0537112,2092,2876,9
1789464424.056009,1726,2874,9
1789464424.058321,1944,2875,9
1789464424.059615,2340,2878,9
1789464424.061849,2303,2879,9
1789464424.064397,2190,2878,9
1789464424.0654452,2042,2878,9
1789464424.067743,2021,2877,9
1789464424.07213,2118,2876,9
1789464424.0728772,2158,2876,9
1789464424.074749,2083,2878,9
1789464424.076549,2045,2874,9
1789464424.078023,2027,2875,9
1789464424.079675,1960,2876,9
1789464424.0832691,2063,2877,9
1789464424.083404,2090,2877,9
1789464424.085823,2080,2876,9
1789464424.087898,2105,2877,9
1789464424.0901818,1921,2876,9
1789464424.091417,2077,2875,9
1789464424.0939798,2249,2879,9
1789464424.096291,2220,2878,9
1789464424.0975869,2080,2876,9
1789464424.100151,2215,2877,9
1789464424.1014469,2195,2878,9
1789464424.103895,2104,2877,9
1789464424.1064398,2011,2875,9
1789464424.107732,1982,2876,9
1789464424.11028,1895,2876,9
1789464424.11157,1936,2875,9
1789464424.117086,2104,2877,9
1789464424.117887,2173,2875,9
1789464424.1182961,2025,2876,9
1789464424.121205,2007,2877,9
1789464424.123013,2114,2876,9
1789464424.124474,2181,2878,9
1789464424.1260002,2131,2876,9
1789464424.1276429,2033,2877,9
1789464424.1299589,2011,2875,9
1789464424.1326878,2080,2878,9
1789464424.133983,2186,2876,9
1789464424.136378,2103,2876,9
1789464424.137673,2045,2876,9
1789464424.1399791,2036,2875,9
1789464424.142526,2046,2875,9
1789464424.143816,2026,2876,9
1789464424.146362,2093,2875,9
1789464424.147409,2101,2876,9
1789464424.149715,2066,2875,9
1789464424.152027,2053,2875,9
1789464424.153378,1994,2876,9
1789464424.155551,2073,2877,9
1789464424.1581252,2077,2875,9
1789464424.16223,2065,2876,9
1789464424.1626701,2102,2876,9
1789464424.165313,2081,2878,9
1789464424.166881,2141,2876,9
1789464424.172389,2117,2876,9
1789464424.172554,2065,2875,9
1789464424.1726851,2036,2878,9
1789464424.174377,2069,2876,9
1789464424.175437,2117,2876,9
1789464424.177718,2113,2876,9
1789464424.184431,2027,2874,9
1789464424.185198,2034,2877,9
1789464424.186508,2013,2877,9
1789464424.1866539,1864,2873,9
1789464424.1886332,2052,2877,9
1789464424.189895,2150,2877,9
1789464424.191881,2149,2877,9
1789464424.1935732,2109,2875,9
1789464424.196196,2195,2879,9
1789464424.19749,2127,2877,9
1789464424.199689,2231,2877,9
1789464424.2020328,2047,2875,9
1789464424.204597,2062,2876,9
1789464424.2056909,1867,2874,9
1789464424.2081869,1974,2875,9
1789464424.209429,2117,2876,9
1789464424.211785,2069,2878,9
1789464424.214354,1960,2874,9
1789464424.215452,2061,2877,9
1789464424.2180018,2183,2876,9
1789464424.2205849,2192,2877,9
1789464424.221878,2120,2876,9
1789464424.224187,2103,2876,9
1789464424.225491,1870,2876,9
1789464424.230125,2040,2876,9
1789464424.2302442,2204,2877,9
1789464424.2328682,2140,2877,9
1789464424.234435,2136,2875,9
1789464424.23599,1943,2876,9
1789464424.239842,1981,2874,9
1789464424.2401102,2213,2878,9
1789464424.242008,2263,2878,9
1789464424.243405,2188,2877,9
1789464424.246059,2095,2878,9
