timestamp,ch1,ch2,label
1789466198.570405,2127,2878,0_S
1789466198.572423,2141,2879,0_S
1789466198.572584,2082,2878,0_S
1789466198.572706,2072,2877,0_S
1789466198.575136,2085,2877,0_S
1789466198.5763369,2103,2877,0_S
1789466198.579712,2053,2877,0_S
1789466198.581633,2061,2877,0_S
1789466198.583056,2126,2878,0_S
1789466198.5841238,2140,2879,0_S
1789466198.586487,2097,2878,0_S
1789466198.588834,2073,2876,0_S
1789466198.590153,2080,2877,0_S
1789466198.5925,2123,2878,0_S
1789466198.594569,2098,2879,0_S
1789466198.595984,2021,2877,0_S
1789466198.598309,2096,2877,0_S
1789466198.600835,2129,2877,0_S
1789466198.6020749,2148,2879,0_S
1789466198.6044428,2091,2878,0_S
1789466198.6070058,2070,2877,0_S
1789466198.608075,2099,2877,0_S
1789466198.610417,2096,2878,0_S
1789466198.612604,2025,2876,0_S
1789466198.6140091,2054,2877,0_S
1789466198.6163719,2104,2877,0_S
1789466198.622352,2137,2878,0_S
1789466198.6235561,2105,2878,0_S
1789466198.624164,2056,2877,0_S
1789466198.6251378,2074,2876,0_S
1789466198.626606,2097,2878,0_S
1789466198.629127,2031,2876,0_S
1789466198.631072,2024,2876,0_S
1789466198.633125,2070,2878,0_S
1789466198.636232,2122,2877,0_S
1789466198.6363451,2110,2878,0_S
1789466198.6386912,2091,2877,0_S
1789466198.640001,2079,2877,0_S
1789466198.6453462,2127,2878,0_S
1789466198.6469681,2090,2879,0_S
1789466198.6488168,2060,2877,0_S
1789466198.64899,2101,2877,0_S
1789466198.6512482,2136,2877,0_S
1789466198.652734,2134,2879,0_S
1789466198.655348,2102,2877,0_S
1789466198.6565828,2062,2877,0_S
1789466198.658433,2097,2877,0_S
1789466198.660772,2113,2878,0_S
1789466198.662872,2052,2876,0_S
1789466198.663954,2086,2877,0_S
1789466198.666084,2141,2876,0_S
1789466198.668396,2164,2879,0_S
1789466198.670728,2124,2877,0_S
1789466198.6728199,2086,2877,0_S
1789466198.67395,2098,2877,0_S
1789466198.676034,2123,2877,0_S
1789466198.678517,2038,2877,0_S
1789466198.680789,2081,2877,0_S
1789466198.682091,2120,2877,0_S
1789466198.684511,2132,2879,0_S
1789466198.687082,2139,2878,0_S
1789466198.688386,2081,2877,0_S
1789466198.690948,2063,2877,0_S
1789466198.692248,2058,2878,0_S
1789466198.698447,2051,2876,0_S
1789466198.698588,2032,2876,0_S
1789466198.699669,2087,2877,0_S
1789466198.70206,2141,2879,0_S
1789466198.7021298,2122,2878,0_S
1789466198.7054331,2059,2877,0_S
1789466198.708342,2053,2876,0_S
1789466198.7085361,2051,2878,0_S
1789466198.7119381,2140,2879,0_S
1789466198.7121449,2127,2878,0_S
1789466198.714466,2041,2877,0_S
1789466198.7210188,2068,2877,0_S
1789466198.721601,2077,2878,0_S
1789466198.723827,2081,2878,0_S
1789466198.72419,2094,2877,0_S
1789466198.726017,2046,2876,0_S
1789466198.7266078,2127,2878,0_S
1789466198.7281752,2116,2878,0_S
1789466198.730609,2126,2876,0_S
1789466198.7338922,2137,2876,0_S
1789466198.734105,2094,2877,0_S
1789466198.736328,2070,2877,0_S
1789466198.738467,2022,2875,0_S
1789466198.740795,2074,2877,0_S
1789466198.741914,2138,2877,0_S
1789466198.744096,2042,2878,0_S
1789466198.7461739,2018,2876,0_S
1789466198.748266,2024,2878,0_S
1789466198.750335,2113,2878,0_S
1789466198.752697,2166,2880,0_S
1789466198.754001,2136,2878,0_S
1789466198.7563179,2091,2877,0_S
1789466198.7583969,2133,2877,0_S
1789466198.760726,2119,2877,0_S
1789466198.762021,2052,2876,0_S
1789466198.7643468,2025,2877,0_S
1789466198.766436,2107,2877,0_S
1789466198.7685251,2190,2879,0_S
1789466198.76991,2089,2878,0_S
1789466198.7756019,2000,2876,0_S
1789466198.7772539,2049,2877,0_S
1789466198.7793028,2091,2878,0_S
1789466198.779487,2026,2876,0_S
1789466198.781951,2019,2877,0_S
1789466198.782133,2104,2877,0_S
1789466198.78653,2186,2879,0_S
1789466198.78788,2163,2878,0_S
1789466198.788129,2081,2877,0_S
1789466198.790936,2010,2877,0_S
1789466198.7922618,2051,2878,0_S
1789466198.79487,2111,2879,0_S
1789466198.800508,2176,2879,0_S
1789466198.80161,2471,2881,0_S
1789466198.8027048,2284,2879,0_S
1789466198.802866,2240,2878,0_S
1789466198.8049972,2052,2878,0_S
1789466198.807531,2000,2875,0_S
1789466198.8097641,2024,2876,0_S
1789466198.812247,2071,2876,0_S
1789466198.813304,1830,2876,0_S
1789466198.8162181,1762,2876,0_S
1789466198.816268,1867,2876,0_S
1789466198.818605,1993,2874,0_S
1789466198.8199182,2045,2878,0_S
1789466198.8223119,2092,2878,0_S
1789466198.824886,2144,2878,0_S
1789466198.825963,2397,2879,0_S
1789466198.828532,2329,2879,0_S
1789466198.829965,2130,2879,0_S
1789466198.832049,2134,2876,0_S
1789466198.834615,2020,2877,0_S
1789466198.836906,2034,2876,0_S
1789466198.837974,2203,2877,0_S
1789466198.840298,2462,2879,0_S
1789466198.842616,2440,2877,0_S
1789466198.844939,1805,2875,0_S
1789466198.846245,2029,2877,0_S
1789466198.848757,1779,2877,0_S
1789466198.850063,1814,2877,0_S
1789466198.852392,1894,2875,0_S
1789466198.8549812,1927,2875,0_S
1789466198.856108,1931,2878,0_S
1789466198.8620312,1938,2877,0_S
1789466198.8627598,1989,2877,0_S
1789466198.863327,2024,2875,0_S
1789466198.865133,2218,2879,0_S
1789466198.867615,2327,2879,0_S
1789466198.869476,2488,2879,0_S
1789466198.8716679,2442,2879,0_S
1789466198.873111,2077,2878,0_S
1789466198.8754518,1794,2875,0_S
1789466198.8765209,1968,2876,0_S
1789466198.878685,2132,2878,0_S
1789466198.880167,2060,2877,0_S
1789466198.885377,2199,2879,0_S
1789466198.88591,2081,2877,0_S
1789466198.88604,1977,2876,0_S
1789466198.8883321,2020,2879,0_S
1789466198.891545,1962,2875,0_S
1789466198.894241,2039,2878,0_S
1789466198.895416,2046,2875,0_S
1789466198.8974788,1956,2877,0_S
1789466198.898793,1999,2876,0_S
1789466198.900095,2080,2877,0_S
1789466198.903811,2189,2878,0_S
1789466198.9039161,2116,2878,0_S
1789466198.906263,2480,2878,0_S
1789466198.908824,2387,2878,0_S
1789466198.910121,2135,2879,0_S
1789466198.912686,1958,2876,0_S
1789466198.913989,2292,2879,0_S
1789466198.916543,2167,2876,0_S
1789466198.9179142,2047,2875,0_S
1789466198.920479,1805,2876,0_S
1789466198.922816,2015,2878,0_S
1789466198.924126,2079,2877,0_S
1789466198.926702,1992,2878,0_S
1789466198.9280078,2114,2878,0_S
1789466198.9303539,1963,2877,0_S
1789466198.932964,1845,2876,0_S
1789466198.934266,1966,2877,0_S
1789466198.939975,2160,2879,0_S
1789466198.940525,2099,2878,0_S
1789466198.940673,2038,2877,0_S
1789466198.9432251,2021,2877,0_S
1789466198.945271,2189,2878,0_S
1789466198.9472032,2145,2878,0_S
1789466198.9500349,2157,2876,0_S
1789466198.95137,2074,2877,0_S
1789466198.953463,2139,2877,0_S
1789466198.9547808,2205,2878,0_S
1789466198.956085,2051,2877,0_S
1789466198.958702,1984,2876,0_S
1789466198.963813,2019,2878,0_S
1789466198.964753,2099,2879,0_S
1789466198.9666162,2116,2876,0_S
1789466198.9668522,2457,2880,0_S
1789466198.968642,2235,2879,0_S
1789466198.970547,1903,2875,0_S
1789466198.972965,2016,2875,0_S
1789466198.97456,2089,2878,0_S
1789466198.9767559,2075,2877,0_S
1789466198.9788868,2037,2878,0_S
1789466198.979958,2068,2876,0_S
1789466198.9822788,2072,2877,0_S
1789466198.984852,2025,2876,0_S
1789466198.986161,2041,2876,0_S
1789466198.988731,1996,2877,0_S
1789466198.990828,2195,2878,0_S
1789466198.9919538,2235,2877,0_S
1789466198.994519,2163,2877,0_S
1789466198.9971101,2157,2877,0_S
1789466198.998166,1996,2876,0_S
1789466199.000352,1898,2877,0_S
1789466199.002669,2115,2877,0_S
1789466199.004749,2015,2876,0_S
1789466199.00605,2068,2878,0_S
1789466199.00861,2524,2878,0_S
1789466199.009948,2109,2877,0_S
1789466199.016511,1694,2874,0_S
1789466199.017469,1807,2875,0_S
1789466199.0189471,1970,2877,0_S
1789466199.0191,2117,2877,0_S
1789466199.020674,2214,2879,0_S
1789466199.022609,2126,2878,0_S
1789466199.0252318,2307,2877,0_S
1789466199.02776,2098,2877,0_S
1789466199.030707,1684,2876,0_S
1789466199.030946,1975,2875,0_S
1789466199.032012,2182,2877,0_S
1789466199.034333,2261,2879,0_S
1789466199.0393238,2134,2879,0_S
1789466199.039458,2032,2877,0_S
1789466199.0420349,1968,2877,0_S
1789466199.042304,2047,2877,0_S
1789466199.045486,2350,2878,0_S
1789466199.0482502,2188,2880,0_S
1789466199.0483541,2155,2878,0_S
1789466199.0522392,2162,2877,0_S
1789466199.052431,2206,2879,0_S
1789466199.054762,2228,2878,0_S
1789466199.056065,1807,2875,0_S
1789466199.058399,2547,2879,0_S
1789466199.0609658,2757,2878,0_S
1789466199.0622778,1699,2875,0_S
1789466199.064599,1414,2876,0_S
1789466199.0669172,1859,2876,0_S
1789466199.0682209,2775,2880,0_S
1789466199.070533,2605,2879,0_S
1789466199.0728462,1599,2874,0_S
1789466199.0741491,1857,2877,0_S
1789466199.076711,1760,2876,0_S
1789466199.078012,1617,2876,0_S
1789466199.080574,1967,2877,0_S
1789466199.0826628,2099,2878,0_S
1789466199.0849779,2023,2875,0_S
1789466199.086277,1907,2876,0_S
1789466199.092242,1809,2875,0_S
1789466199.0927832,1967,2877,0_S
1789466199.092893,2150,2878,0_S
1789466199.0954602,2382,2878,0_S
1789466199.097263,2630,2878,0_S
1789466199.098783,2370,2879,0_S
1789466199.1029792,2080,2877,0_S
1789466199.10319,2334,2880,0_S
1789466199.105559,2048,2879,0_S
1789466199.106865,2082,2877,0_S
1789466199.108166,2017,2878,0_S
1789466199.113857,2105,2879,0_S
1789466199.1139772,2018,2875,0_S
1789466199.11534,1878,2876,0_S
1789466199.11714,1715,2877,0_S
1789466199.119036,1784,2877,0_S
1789466199.120915,1984,2876,0_S
1789466199.123211,2160,2878,0_S
1789466199.124983,1843,2877,0_S
1789466199.127011,2270,2877,0_S
1789466199.1283178,2425,2878,0_S
1789466199.1308842,2447,2879,0_S
1789466199.131957,2388,2879,0_S
1789466199.134523,1840,2877,0_S
1789466199.135905,2134,2878,0_S
1789466199.137996,2872,2881,0_S
1789466199.1403148,2521,2879,0_S
1789466199.142874,1565,2874,0_S
1789466199.1440792,993,2876,0_S
1789466199.1464078,1475,2875,0_S
1789466199.14872,1970,2877,0_S
1789466199.1508229,2156,2877,0_S
1789466199.152124,2207,2879,0_S
1789466199.154443,1975,2878,0_S
1789466199.157015,2044,2877,0_S
1789466199.158239,2394,2878,0_S
1789466199.1605382,2127,2877,0_S
1789466199.1673741,1964,2876,0_S
1789466199.167507,2439,2880,0_S
1789466199.16881,2610,2879,0_S
1789466199.17058,2173,2879,0_S
1789466199.1708422,1985,2877,0_S
1789466199.172749,1970,2878,0_S
1789466199.174332,3069,2880,0_S
1789466199.1769972,2734,2879,0_S
1789466199.17887,1641,2876,0_S
1789466199.181393,1516,2877,0_S
1789466199.1824691,1923,2877,0_S
1789466199.184793,1171,2877,0_S
1789466199.190764,1430,2874,0_S
1789466199.191266,2063,2878,0_S
1789466199.193017,1415,2875,0_S
1789466199.193184,1177,2875,0_S
1789466199.195311,1803,2876,0_S
1789466199.197243,2275,2879,0_S
1789466199.199114,2834,2880,0_S
1789466199.2010329,4022,2882,0_S
1789466199.203603,2748,2879,0_S
1789466199.20491,1322,2875,0_S
1789466199.2062101,3236,2882,0_S
1789466199.2085388,1515,2876,0_S
1789466199.210625,893,2875,0_S
1789466199.2129412,1132,2876,0_S
1789466199.214241,1535,2877,0_S
1789466199.216815,1991,2879,0_S
1789466199.217901,1816,2877,0_S
1789466199.220468,1547,2876,0_S
1789466199.22277,1931,2877,0_S
1789466199.2240698,2286,2879,0_S
1789466199.226628,2905,2881,0_S
1789466199.22895,3319,2881,0_S
1789466199.23001,3724,2882,0_S
1789466199.232565,2180,2878,0_S
1789466199.233959,3644,2882,0_S
1789466199.236518,1210,2876,0_S
1789466199.243814,776,2876,0_S
1789466199.244334,1349,2876,0_S
1789466199.2448692,1561,2876,0_S
1789466199.246749,1908,2876,0_S
1789466199.247021,1388,2875,0_S
1789466199.248924,909,2874,0_S
1789466199.2508218,2063,2877,0_S
1789466199.253213,2697,2880,0_S
1789466199.255451,2386,2878,0_S
1789466199.258121,2500,2879,0_S
1789466199.258166,2159,2878,0_S
1789466199.260496,2396,2880,0_S
1789466199.26612,2181,2878,0_S
1789466199.2666318,1635,2875,0_S
1789466199.2670898,1257,2874,0_S
1789466199.2692108,1590,2875,0_S
1789466199.271011,1856,2874,0_S
1789466199.272537,2261,2877,0_S
1789466199.275298,2454,2878,0_S
1789466199.277704,2789,2879,0_S
1789466199.280077,2468,2878,0_S
1789466199.280326,2667,2879,0_S
1789466199.2828958,2139,2879,0_S
1789466199.284203,1842,2876,0_S
1789466199.286766,2102,2877,0_S
1789466199.2880661,2467,2879,0_S
1789466199.2904232,2525,2878,0_S
1789466199.292982,2037,2878,0_S
1789466199.2940469,2152,2878,0_S
1789466199.296118,2357,2879,0_S
1789466199.2986739,2779,2879,0_S
1789466199.3007941,2503,2878,0_S
1789466199.3019571,2400,2879,0_S
1789466199.304513,2491,2879,0_S
1789466199.306634,2918,2879,0_S
1789466199.3079329,2337,2879,0_S
1789466199.3104892,2143,2878,0_S
1789466199.313083,2328,2878,0_S
1789466199.314146,2421,2880,0_S
1789466199.320224,2274,2879,0_S
1789466199.320877,2511,2879,0_S
1789466199.321432,2338,2879,0_S
1789466199.3233159,2277,2879,0_S
1789466199.3255801,2355,2878,0_S
1789466199.3275251,2505,2878,0_S
1789466199.3295329,2300,2878,0_S
1789466199.331964,2388,2877,0_S
1789466199.3320692,2148,2879,0_S
1789466199.33469,2322,2879,0_S
1789466199.336846,2556,2878,0_S
1789466199.338259,2428,2879,0_S
1789466199.343323,2141,2878,0_S
1789466199.34397,2105,2878,0_S
1789466199.3445098,1875,2875,0_S
1789466199.346328,1857,2877,0_S
1789466199.349142,2063,2876,0_S
1789466199.350649,2019,2876,0_S
1789466199.3522959,1781,2876,0_S
1789466199.354847,2556,2879,0_S
1789466199.357457,2223,2878,0_S
1789466199.358766,1907,2875,0_S
1789466199.360072,1906,2876,0_S
1789466199.362166,1988,2876,0_S
1789466199.364249,2297,2879,0_S
1789466199.3668091,2059,2877,0_S
1789466199.3680372,1674,2876,0_S
1789466199.37042,1539,2875,0_S
1789466199.372743,2143,2878,0_S
1789466199.374053,2394,2878,0_S
1789466199.376628,1859,2876,0_S
1789466199.3779469,1737,2876,0_S
1789466199.380019,1937,2876,0_S
1789466199.38258,1665,2875,0_S
1789466199.384902,1473,2876,0_S
1789466199.38621,1023,2875,0_S
1789466199.3887732,1179,2875,0_S
1789466199.390074,1216,2876,0_S
1789466199.3923998,966,2875,0_S
1789466199.397368,1002,2876,0_S
1789466199.397991,1323,2877,0_S
1789466199.3989398,1724,2876,0_S
1789466199.400864,1764,2875,0_S
1789466199.4028108,1712,2875,0_S
1789466199.404417,2113,2878,0_S
1789466199.407298,1662,2875,0_S
1789466199.410125,1817,2876,0_S
1789466199.410294,2481,2878,0_S
1789466199.412668,1812,2875,0_S
1789466199.413974,1590,2877,0_S
1789466199.4165409,1876,2876,0_S
1789466199.421477,1967,2876,0_S
1789466199.421996,2195,2878,0_S
1789466199.42326,2145,2878,0_S
1789466199.424727,2003,2878,0_S
1789466199.426858,1867,2875,0_S
1789466199.4282749,1706,2877,0_S
1789466199.430567,1746,2876,0_S
1789466199.4334788,2020,2878,0_S
1789466199.4358919,2336,2879,0_S
1789466199.436071,2293,2879,0_S
1789466199.4383948,1971,2877,0_S
1789466199.440969,1630,2875,0_S
1789466199.442276,2109,2878,0_S
1789466199.444841,2002,2877,0_S
1789466199.446142,2084,2877,0_S
1789466199.448464,2168,2879,0_S
1789466199.451025,2202,2878,0_S
1789466199.45234,1988,2878,0_S
1789466199.454897,1920,2874,0_S
1789466199.456196,2358,2878,0_S
1789466199.458285,2198,2878,0_S
1789466199.460843,1813,2876,0_S
1789466199.46195,2062,2877,0_S
1789466199.464277,2692,2879,0_S
1789466199.466607,2408,2878,0_S
1789466199.46869,1707,2874,0_S
1789466199.47123,1535,2875,0_S
1789466199.476128,1982,2876,0_S
1789466199.476743,2328,2879,0_S
1789466199.476887,2179,2878,0_S
1789466199.479157,2185,2879,0_S
1789466199.481042,1844,2874,0_S
1789466199.482899,3119,2882,0_S
1789466199.4851441,3673,2883,0_S
1789466199.4879549,1638,2876,0_S
1789466199.488231,1099,2876,0_S
1789466199.490358,1779,2878,0_S
1789466199.4926841,2054,2876,0_S
1789466199.493985,2141,2879,0_S
1789466199.498988,1760,2876,0_S
1789466199.499501,1581,2876,0_S
1789466199.501805,1809,2877,0_S
1789466199.5019698,2040,2878,0_S
1789466199.5055099,2227,2878,0_S
1789466199.5078669,2889,2880,0_S
1789466199.508092,2474,2879,0_S
1789466199.511112,1819,2875,0_S
1789466199.513369,2065,2876,0_S
1789466199.5144289,2256,2879,0_S
1789466199.5169861,1488,2875,0_S
1789466199.518303,1543,2876,0_S
1789466199.520643,1911,2876,0_S
1789466199.522968,2143,2878,0_S
1789466199.52427,2149,2878,0_S
1789466199.526988,2135,2878,0_S
1789466199.528304,2003,2876,0_S
1789466199.5306282,1918,2877,0_S
1789466199.532684,2019,2876,0_S
1789466199.533982,2027,2877,0_S
1789466199.536535,2041,2875,0_S
1789466199.53867,2114,2879,0_S
1789466199.539912,2083,2878,0_S
1789466199.542471,2074,2878,0_S
1789466199.5450282,2083,2878,0_S
1789466199.546329,1970,2877,0_S
1789466199.552481,1910,2877,0_S
1789466199.552999,1958,2877,0_S
1789466199.5531251,2012,2875,0_S
1789466199.555352,2026,2876,0_S
1789466199.557129,2029,2877,0_S
1789466199.558818,2035,2877,0_S
1789466199.5610611,2047,2878,0_S
1789466199.5642931,1965,2874,0_S
1789466199.56454,1950,2878,0_S
1789466199.566609,1993,2878,0_S
1789466199.567924,2092,2877,0_S
1789466199.5703318,2100,2879,0_S
1789466199.574296,2066,2877,0_S
1789466199.5748339,2067,2877,0_S
1789466199.577058,2123,2877,0_S
1789466199.578836,2030,2875,0_S
1789466199.580578,1989,2878,0_S
1789466199.582788,1978,2878,0_S
1789466199.585889,2036,2877,0_S
1789466199.586069,2066,2880,0_S
1789466199.5882602,2088,2877,0_S
1789466199.590828,2045,2876,0_S
1789466199.592129,2046,2878,0_S
1789466199.594691,2026,2878,0_S
1789466199.5959911,1983,2877,0_S
1789466199.598537,2019,2877,0_S
1789466199.6010969,2072,2877,0_S
1789466199.602392,2071,2876,0_S
1789466199.604948,2039,2878,0_S
1789466199.606005,2034,2877,0_S
1789466199.608562,2071,2877,0_S
1789466199.610882,2124,2878,0_S
1789466199.6119611,2013,2876,0_S
1789466199.6142652,1992,2877,0_S
1789466199.616815,2036,2877,0_S
1789466199.618111,2052,2877,0_S
1789466199.6201758,2067,2878,0_S
1789466199.624724,2047,2877,0_S
1789466199.625207,2091,2877,0_S
1789466199.627491,2115,2876,0_S
1789466199.6291788,2058,2878,0_S
1789466199.6310022,2037,2877,0_S
1789466199.633239,2078,2876,0_S
1789466199.636171,2077,2877,0_S
1789466199.636443,2074,2876,0_S
1789466199.638583,2007,2878,0_S
1789466199.63989,2043,2877,0_S
1789466199.6462111,2069,2877,0_S
1789466199.6463842,2068,2878,0_S
1789466199.646504,1980,2876,0_S
1789466199.65066,2045,2878,0_S
1789466199.651111,2080,2878,0_S
1789466199.652523,2168,2879,0_S
1789466199.654579,2115,2879,0_S
1789466199.6575391,2052,2877,0_S
1789466199.659782,2040,2877,0_S
1789466199.6599948,2078,2878,0_S
1789466199.662554,2018,2876,0_S
1789466199.665167,2035,2876,0_S
1789466199.666471,2066,2876,0_S
1789466199.669025,2120,2877,0_S
1789466199.670231,2114,2877,0_S
1789466199.6727839,2069,2877,0_S
1789466199.674088,2097,2877,0_S
1789466199.71436,2140,2877,0_S
1789466199.714574,2094,2878,0_S
1789466199.714622,2007,2877,0_S
1789466199.714713,2076,2878,0_S
1789466199.714768,2159,2876,0_S
1789466199.714808,2103,2879,0_S
1789466199.714875,2076,2877,0_S
1789466199.7149599,2028,2876,0_S
1789466199.715022,2062,2877,0_S
1789466199.7150679,2035,2878,0_S
1789466199.7151518,2027,2876,0_S
1789466199.715192,2070,2876,0_S
1789466199.71531,2082,2878,0_S
1789466199.715422,2073,2876,0_S
1789466199.715565,2108,2878,0_S
1789466199.7156649,2068,2877,0_S
1789466199.7157629,2082,2877,0_S
1789466199.7158568,2183,2878,0_S
1789466199.71594,2090,2879,0_S
1789466199.7159822,2016,2877,0_S
1789466199.716023,2049,2877,0_S
1789466199.7183812,2055,2877,0_S
1789466199.729938,2005,2876,0_S
1789466199.7311108,2063,2877,0_S
1789466199.731243,2065,2877,0_S
1789466199.7329578,2090,2877,0_S
1789466199.733196,2040,2878,0_S
1789466199.736646,1959,2877,0_S
1789466199.736844,2028,2877,0_S
1789466199.737074,2084,2877,0_S
1789466199.737324,2134,2879,0_S
1789466199.739203,2039,2879,0_S
1789466199.7405162,1987,2877,0_S
1789466199.7418282,2011,2877,0_S
1789466199.744065,2061,2878,0_S
1789466199.746403,2089,2879,0_S
1789466199.747783,2123,2878,0_S
1789466199.749876,2119,2878,0_S
1789466199.7521868,2120,2878,0_S
1789466199.754745,2080,2879,0_S
1789466199.755947,2023,2878,0_S
1789466199.758264,2042,2877,0_S
1789466199.769422,2079,2877,0_S
1789466199.769462,2030,2877,0_S
1789466199.7695,2037,2876,0_S
1789466199.769536,2150,2877,0_S
1789466199.7695732,2096,2877,0_S
1789466199.770773,2116,2879,0_S
1789466199.772185,2122,2878,0_S
1789466199.781964,2070,2877,0_S
1789466199.7843862,2055,2877,0_S
1789466199.784959,1984,2875,0_S
1789466199.7856278,1994,2876,0_S
1789466199.7868009,2090,2877,0_S
1789466199.787807,2086,2877,0_S
1789466199.7935889,2139,2879,0_S
1789466199.794102,2051,2876,0_S
1789466199.7945228,2055,2877,0_S
1789466199.794896,2087,2877,0_S
1789466199.79529,2088,2878,0_S
1789466199.797921,1974,2876,0_S
1789466199.798016,2048,2877,0_S
1789466199.800809,2043,2878,0_S
1789466199.807998,2103,2879,0_S
1789466199.810911,2148,2878,0_S
1789466199.812742,2127,2877,0_S
1789466199.81513,2027,2877,0_S
1789466199.8157592,2027,2878,0_S
1789466199.81861,2024,2876,0_S
1789466199.819037,2057,2877,0_S
1789466199.819312,2056,2877,0_S
1789466199.8232472,2061,2875,0_S
1789466199.823688,2080,2878,0_S
1789466199.824032,2091,2877,0_S
1789466199.827001,2120,2877,0_S
1789466199.827101,2147,2877,0_S
1789466199.828481,2087,2878,0_S
1789466199.8298318,2072,2877,0_S
1789466199.832868,2050,2878,0_S
1789466199.834326,2089,2877,0_S
1789466199.836981,2009,2876,0_S
1789466199.838421,2135,2877,0_S
1789466199.83986,2080,2877,0_S
1789466199.842842,2143,2877,0_S
1789466199.844495,2095,2878,0_S
1789466199.845857,2050,2876,0_S
1789466199.848475,2030,2878,0_S
1789466199.850917,2083,2877,0_S
1789466199.852212,2185,2878,0_S
1789466199.8547788,2059,2878,0_S
1789466199.8560371,1900,2874,0_S
1789466199.858675,1913,2875,0_S
1789466199.859957,2015,2878,0_S
1789466199.862974,1951,2876,0_S
1789466199.8642108,2015,2876,0_S
1789466199.8658361,2111,2877,0_S
1789466199.872523,2128,2879,0_S
1789466199.873355,2095,2878,0_S
1789466199.878604,2092,2878,0_S
1789466199.880796,2080,2877,0_S
1789466199.882079,2114,2878,0_S
1789466199.882847,2041,2876,0_S
1789466199.8857758,2007,2876,0_S
1789466199.890151,2059,2877,0_S
1789466199.891155,2100,2876,0_S
1789466199.894167,2151,2878,0_S
1789466199.8946218,2118,2877,0_S
1789466199.894699,2131,2877,0_S
1789466199.894763,2153,2878,0_S
1789466199.894826,2155,2878,0_S
1789466199.8961742,2113,2875,0_S
1789466199.8994439,2060,2877,0_S
1789466199.9092999,2187,2880,0_S
1789466199.913895,2094,2877,0_S
1789466199.91552,1916,2875,0_S
1789466199.916672,2144,2877,0_S
1789466199.923021,2178,2877,0_S
1789466199.9233909,2015,2877,0_S
1789466199.92392,1878,2877,0_S
1789466199.9271512,2081,2878,0_S
1789466199.927507,2100,2878,0_S
1789466199.927584,2299,2879,0_S
1789466199.92771,2160,2878,0_S
1789466199.9279182,2001,2877,0_S
1789466199.927993,2072,2878,0_S
1789466199.9280589,2139,2877,0_S
1789466199.928125,2045,2876,0_S
1789466199.9308622,1940,2877,0_S
1789466199.932307,2021,2877,0_S
1789466199.933904,2033,2876,0_S
1789466199.9365802,1993,2874,0_S
1789466199.937946,2036,2878,0_S
1789466199.940911,2001,2877,0_S
1789466199.9422772,2044,2877,0_S
1789466199.944909,2186,2878,0_S
1789466199.946107,1930,2877,0_S
1789466199.948756,2044,2878,0_S
1789466199.95022,2150,2877,0_S
1789466199.952805,2066,2877,0_S
1789466199.954179,2079,2878,0_S
1789466199.956816,2134,2876,0_S
1789466199.9586408,2078,2877,0_S
1789466199.960014,2341,2879,0_S
1789466199.962682,2242,2878,0_S
1789466199.9640388,2022,2876,0_S
1789466199.966707,1949,2877,0_S
1789466199.9682891,1978,2877,0_S
1789466199.970328,2040,2877,0_S
1789466199.9718342,1880,2874,0_S
1789466199.9805388,1984,2877,0_S
1789466199.980839,2015,2877,0_S
1789466199.9822452,2112,2877,0_S
1789466199.9842649,2013,2876,0_S
1789466199.9846,2085,2878,0_S
1789466199.984999,2199,2878,0_S
1789466199.9880362,2250,2878,0_S
1789466199.9899268,2138,2878,0_S
1789466199.991732,2068,2877,0_S
1789466200.001212,2071,2877,0_S
1789466200.001308,2080,2878,0_S
1789466200.0014122,1983,2876,0_S
1789466200.001484,2056,2878,0_S
1789466200.001549,2139,2878,0_S
1789466200.002959,2198,2879,0_S
1789466200.0043101,2166,2878,0_S
1789466200.012446,2100,2878,0_S
1789466200.013782,2088,2877,0_S
1789466200.016296,2076,2878,0_S
1789466200.019399,2086,2879,0_S
1789466200.021735,2152,2879,0_S
1789466200.023007,2182,2879,0_S
1789466200.026426,2160,2879,0_S
1789466200.0309298,2083,2879,0_S
1789466200.031389,2042,2878,0_S
1789466200.031971,2004,2878,0_S
1789466200.03218,2053,2878,0_S
1789466200.0348952,2027,2878,0_S
1789466200.035794,1956,2877,0_S
1789466200.035869,2020,2877,0_S
1789466200.0359309,2076,2875,0_S
1789466200.035991,2131,2879,0_S
1789466200.0386539,2086,2878,0_S
1789466200.0400681,2039,2878,0_S
1789466200.042859,2086,2878,0_S
1789466200.044199,2111,2878,0_S
1789466200.046929,2049,2875,0_S
1789466200.048312,2050,2877,0_S
1789466200.051002,2067,2877,0_S
1789466200.052373,2123,2878,0_S
1789466200.054695,2087,2877,0_S
1789466200.0560288,2100,2877,0_S
1789466200.0588238,2084,2877,0_S
1789466200.060213,2119,2878,0_S
1789466200.0629,2048,2875,0_S
1789466200.0642612,2019,2877,0_S
1789466200.0669582,2055,2877,0_S
1789466200.068438,2101,2875,0_S
1789466200.070066,2071,2876,0_S
1789466200.072856,2065,2877,0_S
1789466200.074259,2020,2877,0_S
1789466200.077031,2075,2876,0_S
1789466200.078457,2072,2878,0_S
1789466200.079838,2030,2875,0_S
1789466200.0889091,1967,2876,0_S
1789466200.089173,2049,2876,0_S
1789466200.091928,2112,2879,0_S
1789466200.0922282,2051,2877,0_S
1789466200.097333,2017,2877,0_S
1789466200.0982022,2092,2877,0_S
1789466200.10516,2135,2878,0_S
1789466200.1054962,2037,2876,0_S
1789466200.105855,2007,2877,0_S
1789466200.10607,2074,2877,0_S
1789466200.109639,2117,2876,0_S
1789466200.109899,2062,2877,0_S
1789466200.110029,2031,2876,0_S
1789466200.110094,2054,2877,0_S
1789466200.1101499,2077,2877,0_S
1789466200.112819,2023,2876,0_S
1789466200.114452,1996,2876,0_S
1789466200.122062,2046,2877,0_S
1789466200.124644,2089,2876,0_S
1789466200.128761,2105,2879,0_S
1789466200.131266,2089,2877,0_S
1789466200.1314838,2063,2877,0_S
1789466200.133945,2086,2877,0_S
1789466200.1341708,2063,2878,0_S
1789466200.1386108,2020,2877,0_S
1789466200.138901,2035,2878,0_S
1789466200.139379,2086,2877,0_S
1789466200.142781,2085,2875,0_S
1789466200.142974,2053,2877,0_S
1789466200.143096,2034,2877,0_S
1789466200.14324,2053,2876,0_S
1789466200.144628,2053,2876,0_S
1789466200.146004,2014,2876,0_S
1789466200.1487849,2020,2876,0_S
1789466200.1501849,2069,2876,0_S
1789466200.15251,2145,2879,0_S
1789466200.15396,2113,2877,0_S
1789466200.1568298,2048,2877,0_S
1789466200.1582,2037,2876,0_S
1789466200.16088,2088,2877,0_S
1789466200.16226,2071,2877,0_S
1789466200.164881,2031,2876,0_S
1789466200.1662662,2019,2877,0_S
1789466200.168917,2092,2877,0_S
1789466200.170339,2051,2876,0_S
1789466200.173024,2030,2877,0_S
1789466200.1742568,2027,2877,0_S
1789466200.176697,2065,2876,0_S
1789466200.177857,2082,2876,0_S
1789466200.180161,2018,2876,0_S
1789466200.182506,2019,2877,0_S
1789466200.183834,2068,2876,0_S
1789466200.186172,2090,2876,0_S
1789466200.188853,2059,2878,0_S
1789466200.195503,2010,2875,0_S
1789466200.196175,2055,2876,0_S
1789466200.196983,2107,2878,0_S
1789466200.197802,2027,2875,0_S
1789466200.199772,2005,2876,0_S
1789466200.200074,2071,2876,0_S
1789466200.202523,2237,2878,0_S
1789466200.204566,2190,2878,0_S
1789466200.206186,2076,2877,0_S
1789466200.2084851,2064,2876,0_S
1789466200.212224,2023,2878,0_S
1789466200.2124422,1993,2876,0_S
1789466200.215148,1967,2877,0_S
1789466200.216484,1954,2878,0_S
1789466200.217819,2056,2878,0_S
1789466200.220186,2068,2877,0_S
1789466200.22706,2020,2877,0_S
1789466200.227714,2015,2877,0_S
1789466200.2290199,2112,2877,0_S
1789466200.2309918,2102,2879,0_S
1789466200.2312121,2125,2876,0_S
1789466200.2339451,2136,2878,0_S
1789466200.234536,2217,2879,0_S
1789466200.236021,2815,2878,0_S
1789466200.239042,2645,2878,0_S
1789466200.242338,1670,2875,0_S
1789466200.242646,1516,2875,0_S
1789466200.245992,1881,2876,0_S
1789466200.24607,1981,2876,0_S
1789466200.2486,1961,2876,0_S
1789466200.250932,1945,2875,0_S
1789466200.2522519,2067,2878,0_S
1789466200.254836,2174,2878,0_S
1789466200.256157,2363,2877,0_S
1789466200.2587311,2398,2879,0_S
1789466200.2600472,2101,2876,0_S
1789466200.262385,1851,2877,0_S
1789466200.2649658,1874,2877,0_S
1789466200.26604,1907,2877,0_S
1789466200.268615,1901,2877,0_S
1789466200.2699451,2103,2877,0_S
1789466200.2722769,1999,2878,0_S
1789466200.274852,2066,2878,0_S
1789466200.275927,2591,2878,0_S
1789466200.278507,2410,2878,0_S
1789466200.279828,2539,2880,0_S
1789466200.282176,1690,2877,0_S
1789466200.28475,1560,2877,0_S
1789466200.285829,1738,2876,0_S
1789466200.2884102,1809,2876,0_S
1789466200.289818,1799,2877,0_S
1789466200.297427,1794,2877,0_S
1789466200.298115,1953,2878,0_S
1789466200.298791,2081,2876,0_S
1789466200.3012109,2580,2880,0_S
1789466200.301381,2768,2880,0_S
1789466200.303849,2175,2879,0_S
1789466200.304544,1987,2876,0_S
1789466200.306102,1597,2875,0_S
1789466200.309542,1588,2874,0_S
1789466200.3127282,1945,2875,0_S
1789466200.3129249,2108,2879,0_S
1789466200.315566,1945,2875,0_S
1789466200.316894,1806,2876,0_S
1789466200.3182101,1999,2876,0_S
1789466200.3206341,2114,2878,0_S
1789466200.326889,2225,2877,0_S
1789466200.327581,2491,2878,0_S
1789466200.328743,2499,2879,0_S
1789466200.3293881,1742,2876,0_S
1789466200.331212,1759,2875,0_S
1789466200.333756,2060,2876,0_S
1789466200.334971,2178,2877,0_S
1789466200.337147,2316,2878,0_S
1789466200.339682,2110,2878,0_S
1789466200.343061,1782,2876,0_S
1789466200.343271,1795,2875,0_S
1789466200.346466,1986,2876,0_S
1789466200.346643,1998,2876,0_S
1789466200.3479738,1958,2877,0_S
1789466200.350315,2010,2876,0_S
1789466200.3526459,2020,2875,0_S
1789466200.3537998,2081,2878,0_S
1789466200.355998,2145,2877,0_S
1789466200.35834,2194,2878,0_S
1789466200.360678,2386,2879,0_S
1789466200.361832,2484,2879,0_S
1789466200.363921,3181,2881,0_S
1789466200.3664918,3317,2882,0_S
1789466200.3688269,1309,2875,0_S
1789466200.370079,943,2875,0_S
1789466200.3726609,1840,2876,0_S
1789466200.3738098,2020,2876,0_S
1789466200.3763871,1799,2875,0_S
1789466200.379033,1549,2875,0_S
1789466200.380106,1736,2878,0_S
1789466200.382439,2583,2879,0_S
1789466200.383806,1816,2874,0_S
1789466200.3861382,1241,2877,0_S
1789466200.38868,2170,2875,0_S
1789466200.389995,2393,2879,0_S
1789466200.399195,2237,2878,0_S
1789466200.399907,1668,2875,0_S
1789466200.4020631,1441,2874,0_S
1789466200.406141,1605,2875,0_S
1789466200.4064488,2039,2876,0_S
1789466200.407323,2352,2880,0_S
1789466200.4148428,2844,2878,0_S
1789466200.4151611,2439,2879,0_S
1789466200.4155772,2630,2878,0_S
1789466200.41583,3058,2881,0_S
1789466200.416277,1484,2877,0_S
1789466200.416668,1473,2875,0_S
1789466200.418855,2031,2878,0_S
1789466200.4196968,2568,2879,0_S
1789466200.419847,1551,2876,0_S
1789466200.422236,1650,2874,0_S
1789466200.424342,1489,2874,0_S
1789466200.43082,2079,2878,0_S
1789466200.432564,2350,2878,0_S
1789466200.4370618,2630,2879,0_S
1789466200.437731,1865,2876,0_S
1789466200.438329,1960,2875,0_S
1789466200.43903,2210,2877,0_S
1789466200.4397628,1760,2876,0_S
1789466200.43991,2028,2876,0_S
1789466200.4439812,1876,2875,0_S
1789466200.4475389,1704,2874,0_S
1789466200.4481149,1610,2875,0_S
1789466200.4484758,1867,2875,0_S
1789466200.451398,2238,2879,0_S
1789466200.452757,2037,2876,0_S
1789466200.454082,1632,2875,0_S
1789466200.4561741,2015,2876,0_S
1789466200.458773,2062,2879,0_S
1789466200.459861,1958,2878,0_S
1789466200.462206,1681,2876,0_S
1789466200.464551,1784,2875,0_S
1789466200.465874,2014,2876,0_S
1789466200.4682162,2342,2879,0_S
1789466200.470796,2298,2878,0_S
1789466200.472117,2586,2878,0_S
1789466200.474452,2514,2878,0_S
1789466200.475778,3003,2881,0_S
1789466200.478461,2586,2879,0_S
1789466200.480928,3370,2882,0_S
1789466200.482147,2988,2881,0_S
1789466200.4848871,1363,2877,0_S
1789466200.485975,697,2877,0_S
1789466200.488396,1206,2877,0_S
1789466200.489789,1781,2876,0_S
1789466200.492239,1908,2879,0_S
1789466200.494817,2244,2878,0_S
1789466200.496185,872,2874,0_S
1789466200.503663,1585,2876,0_S
1789466200.505609,2159,2876,0_S
1789466200.50757,3067,2881,0_S
1789466200.508088,3200,2881,0_S
1789466200.510581,2130,2875,0_S
1789466200.511201,1449,2875,0_S
1789466200.512033,3730,2882,0_S
1789466200.51262,3139,2881,0_S
1789466200.5166452,95,2875,0_S
1789466200.516914,1467,2876,0_S
1789466200.520291,3102,2880,0_S
1789466200.520691,2788,2880,0_S
1789466200.523623,2035,2879,0_S
1789466200.524006,1694,2875,0_S
1789466200.526161,1531,2875,0_S
1789466200.5285041,2118,2878,0_S
1789466200.536989,2722,2879,0_S
1789466200.53988,2171,2878,0_S
1789466200.540149,1903,2876,0_S
1789466200.542214,2112,2876,0_S
1789466200.543475,2597,2879,0_S
1789466200.544725,2164,2880,0_S
1789466200.545844,1590,2874,0_S
1789466200.546506,1712,2875,0_S
1789466200.5492811,1650,2876,0_S
1789466200.553011,1781,2877,0_S
1789466200.5532532,2267,2879,0_S
1789466200.553484,2881,2880,0_S
1789466200.556185,2863,2880,0_S
1789466200.556972,2494,2878,0_S
1789466200.5582972,2127,2879,0_S
1789466200.560406,2174,2878,0_S
1789466200.562986,2757,2880,0_S
1789466200.564072,2174,2877,0_S
1789466200.56641,1855,2876,0_S
1789466200.5691462,2044,2877,0_S
1789466200.5704691,2280,2878,0_S
1789466200.5725791,2096,2878,0_S
1789466200.574848,2300,2878,0_S
1789466200.576164,2491,2880,0_S
1789466200.5785012,2551,2880,0_S
1789466200.5797062,2883,2879,0_S
1789466200.5820642,2463,2879,0_S
1789466200.584647,2159,2879,0_S
1789466200.5859652,2058,2876,0_S
1789466200.588331,2303,2878,0_S
1789466200.5904279,2113,2878,0_S
1789466200.591747,2201,2878,0_S
1789466200.593837,2252,2878,0_S
1789466200.596169,2326,2878,0_S
1789466200.598552,2263,2878,0_S
1789466200.599869,2361,2879,0_S
1789466200.609986,2351,2879,0_S
1789466200.611063,2458,2878,0_S
1789466200.613547,2195,2878,0_S
1789466200.617064,1927,2875,0_S
1789466200.618531,2070,2879,0_S
1789466200.619252,2296,2878,0_S
1789466200.619475,2136,2878,0_S
1789466200.621236,1983,2876,0_S
1789466200.6270971,2174,2879,0_S
1789466200.627658,2170,2878,0_S
1789466200.628046,1925,2876,0_S
1789466200.6284108,1919,2876,0_S
1789466200.6288168,1890,2877,0_S
1789466200.630987,2094,2878,0_S
1789466200.6318982,2031,2878,0_S
1789466200.6319518,1853,2876,0_S
1789466200.6345458,1827,2876,0_S
1789466200.6357398,1833,2877,0_S
1789466200.642358,2124,2879,0_S
1789466200.643548,2041,2878,0_S
1789466200.644237,1889,2875,0_S
1789466200.644354,1896,2876,0_S
1789466200.6468632,1863,2875,0_S
1789466200.649757,1837,2875,0_S
1789466200.650969,1899,2876,0_S
1789466200.653058,1755,2876,0_S
1789466200.6552708,1901,2874,0_S
1789466200.659026,1851,2875,0_S
1789466200.6593878,1842,2875,0_S
1789466200.662389,1824,2876,0_S
1789466200.662733,1847,2876,0_S
1789466200.664076,1905,2877,0_S
1789466200.666664,1617,2876,0_S
1789466200.6677551,1532,2876,0_S
1789466200.6701179,1726,2875,0_S
1789466200.67222,2096,2878,0_S
1789466200.674806,1909,2875,0_S
1789466200.6761348,1644,2875,0_S
1789466200.678236,1340,2876,0_S
1789466200.680341,1685,2876,0_S
1789466200.68177,1875,2876,0_S
1789466200.6841059,1485,2876,0_S
1789466200.6862028,1625,2875,0_S
1789466200.688576,1532,2875,0_S
1789466200.689752,1710,2875,0_S
1789466200.691839,1759,2875,0_S
1789466200.694169,1669,2876,0_S
1789466200.6965141,1958,2876,0_S
1789466200.697682,1945,2877,0_S
1789466200.700063,1900,2875,0_S
1789466200.702403,1751,2875,0_S
1789466200.7047732,1990,2875,0_S
1789466200.705847,2057,2879,0_S
1789466200.714108,1370,2876,0_S
1789466200.71491,1394,2876,0_S
1789466200.717878,1807,2877,0_S
1789466200.718112,1753,2876,0_S
1789466200.720118,1495,2876,0_S
1789466200.72176,1763,2877,0_S
1789466200.722411,1470,2876,0_S
1789466200.723131,1985,2876,0_S
1789466200.724633,2091,2878,0_S
1789466200.726954,1680,2875,0_S
1789466200.730858,1588,2877,0_S
1789466200.731348,1915,2877,0_S
1789466200.7337868,1735,2876,0_S
1789466200.7346728,1874,2877,0_S
1789466200.735749,1916,2876,0_S
1789466200.738101,1964,2878,0_S
1789466200.74635,2114,2878,0_S
1789466200.747452,2075,2878,0_S
1789466200.7493691,2023,2875,0_S
1789466200.7497091,2026,2877,0_S
1789466200.753599,1934,2876,0_S
1789466200.753827,2073,2876,0_S
1789466200.7548742,2274,2879,0_S
1789466200.7555132,1889,2875,0_S
1789466200.7582269,1717,2875,0_S
1789466200.7585669,1639,2875,0_S
1789466200.7650619,1823,2875,0_S
1789466200.765921,1926,2877,0_S
1789466200.765975,1869,2876,0_S
1789466200.7660239,1813,2876,0_S
1789466200.7681239,1913,2877,0_S
1789466200.770293,2129,2878,0_S
1789466200.772419,2083,2878,0_S
1789466200.7737432,2295,2879,0_S
1789466200.776084,2272,2878,0_S
1789466200.778176,2077,2876,0_S
1789466200.780339,1778,2877,0_S
1789466200.782426,1535,2876,0_S
1789466200.783815,1844,2876,0_S
1789466200.786133,2112,2878,0_S
1789466200.788486,2844,2880,0_S
1789466200.789681,2956,2880,0_S
1789466200.792011,1431,2874,0_S
1789466200.794123,594,2876,0_S
1789466200.79626,2270,2878,0_S
1789466200.797705,2236,2877,0_S
1789466200.799841,1459,2878,0_S
1789466200.801932,1362,2875,0_S
1789466200.8042722,1484,2875,0_S
1789466200.806366,2586,2879,0_S
1789466200.808474,1845,2877,0_S
1789466200.8108459,1644,2875,0_S
1789466200.818281,2246,2878,0_S
1789466200.818961,2317,2878,0_S
1789466200.820807,2148,2876,0_S
1789466200.8213718,1933,2876,0_S
1789466200.823603,1843,2876,0_S
1789466200.826078,1710,2877,0_S
1789466200.827945,1711,2877,0_S
1789466200.830688,1893,2877,0_S
1789466200.831017,2153,2879,0_S
1789466200.835168,2232,2877,0_S
1789466200.835588,2251,2878,0_S
1789466200.836115,2191,2878,0_S
1789466200.83631,2040,2875,0_S
1789466200.839243,1894,2878,0_S
1789466200.840588,1885,2877,0_S
1789466200.841911,1899,2877,0_S
1789466200.844307,2144,2878,0_S
1789466200.85057,2133,2877,0_S
1789466200.851767,2364,2880,0_S
1789466200.852999,2381,2880,0_S
1789466200.854997,1995,2877,0_S
1789466200.857592,1886,2876,0_S
1789466200.858762,1835,2876,0_S
1789466200.859479,1675,2876,0_S
1789466200.8610618,1796,2875,0_S
1789466200.863966,1884,2875,0_S
1789466200.868145,1869,2876,0_S
1789466200.868618,1941,2877,0_S
1789466200.868803,1997,2875,0_S
1789466200.872085,2118,2879,0_S
1789466200.872148,2103,2878,0_S
1789466200.874345,1989,2878,0_S
1789466200.8757172,2071,2878,0_S
1789466200.8780658,2135,2878,0_S
1789466200.880418,2008,2877,0_S
1789466200.882536,1930,2877,0_S
1789466200.883729,1925,2876,0_S
1789466200.8863602,1940,2876,0_S
1789466200.8876941,1986,2875,0_S
1789466200.889812,2002,2878,0_S
1789466200.8919349,2052,2877,0_S
1789466200.8944,2096,2878,0_S
1789466200.8957381,2044,2875,0_S
1789466200.898104,1986,2876,0_S
1789466200.9002209,2015,2877,0_S
1789466200.902338,2074,2877,0_S
1789466200.904821,2085,2878,0_S
1789466200.9061491,2000,2878,0_S
1789466200.90826,1958,2877,0_S
1789466200.910354,2015,2876,0_S
1789466200.912727,2106,2878,0_S
1789466200.9138088,1921,2878,0_S
1789466200.915906,1899,2878,0_S
1789466200.918047,1974,2877,0_S
1789466200.9206378,2068,2877,0_S
1789466200.9219651,2038,2878,0_S
1789466200.931197,1956,2877,0_S
1789466200.932074,1984,2877,0_S
1789466200.9329422,2027,2878,0_S
1789466200.935856,2003,2875,0_S
1789466200.939462,2034,2878,0_S
1789466200.9408991,2065,2878,0_S
1789466200.9417799,2072,2877,0_S
1789466200.943129,2055,2878,0_S
1789466200.943964,2033,2877,0_S
1789466200.9468212,2066,2877,0_S
1789466200.951854,2092,2878,0_S
1789466200.9524071,1958,2876,0_S
1789466200.9528189,1939,2878,0_S
1789466200.9533179,1996,2878,0_S
1789466200.953662,2086,2876,0_S
1789466200.95638,2064,2878,0_S
1789466200.957376,2024,2877,0_S
1789466200.9584901,1964,2877,0_S
1789466200.959848,2030,2877,0_S
1789466200.9619641,2023,2876,0_S
1789466200.971062,2044,2878,0_S
1789466200.9752371,2020,2878,0_S
1789466200.9757261,2041,2877,0_S
1789466200.979358,2076,2878,0_S
1789466200.980716,2053,2878,0_S
1789466200.982665,2031,2877,0_S
1789466200.9834461,2040,2878,0_S
1789466200.986241,2100,2878,0_S
1789466200.991074,2023,2877,0_S
1789466200.991559,1954,2878,0_S
1789466200.991883,1986,2878,0_S
1789466200.9922729,2016,2876,0_S
1789466200.992778,2004,2876,0_S
1789466200.996029,2023,2878,0_S
1789466200.996375,2040,2877,0_S
1789466200.996437,2104,2878,0_S
1789466200.996495,2049,2878,0_S
1789466200.997909,2029,2876,0_S
1789466201.000277,2080,2878,0_S
1789466201.003028,2088,2877,0_S
1789466201.004331,2044,2876,0_S
1789466201.0068328,2018,2878,0_S
1789466201.0079439,1949,2877,0_S
1789466201.010635,2031,2877,0_S
1789466201.01179,2117,2878,0_S
1789466201.0144022,2022,2877,0_S
1789466201.015748,1967,2878,0_S
1789466201.018191,2052,2877,0_S
1789466201.020868,2074,2878,0_S
1789466201.022084,2109,2878,0_S
1789466201.0243971,2117,2877,0_S
1789466201.0258088,2084,2877,0_S
1789466201.028339,2063,2877,0_S
1789466201.029797,1972,2876,0_S
1789466201.032373,1996,2877,0_S
1789466201.035112,2139,2878,0_S
1789466201.0365021,2180,2879,0_S
1789466201.0378938,2061,2878,0_S
1789466201.040524,1959,2876,0_S
1789466201.042059,2053,2877,0_S
1789466201.044765,2070,2878,0_S
1789466201.046848,2045,2878,0_S
1789466201.0488179,1919,2876,0_S
1789466201.050476,1937,2877,0_S
1789466201.0651782,1984,2878,0_S
1789466201.0698812,2038,2877,0_S
1789466201.0762491,2126,2878,0_S
1789466201.081995,2004,2878,0_S
1789466201.082992,2040,2877,0_S
1789466201.087064,2094,2878,0_S
1789466201.087255,2009,2877,0_S
1789466201.087453,2049,2877,0_S
1789466201.08761,2152,2878,0_S
1789466201.087755,2071,2877,0_S
1789466201.0878952,2102,2878,0_S
1789466201.088058,2035,2877,0_S
1789466201.088196,2025,2877,0_S
1789466201.088369,2138,2878,0_S
1789466201.088539,2067,2879,0_S
1789466201.088641,2019,2877,0_S
1789466201.088711,2111,2877,0_S
1789466201.088777,2178,2879,0_S
1789466201.088842,2104,2879,0_S
1789466201.090241,2064,2877,0_S
1789466201.092931,2053,2877,0_S
1789466201.105293,2079,2877,0_S
1789466201.110506,2009,2874,0_S
1789466201.113728,1981,2876,0_S
1789466201.117227,2017,2876,0_S
1789466201.1229818,2085,2878,0_S
1789466201.1238668,2071,2875,0_S
1789466201.127754,2023,2878,0_S
1789466201.127916,2001,2877,0_S
1789466201.1280792,2030,2877,0_S
1789466201.128195,2068,2878,0_S
1789466201.128286,2009,2875,0_S
1789466201.1283572,2083,2877,0_S
1789466201.128418,2103,2877,0_S
1789466201.128556,2200,2879,0_S
1789466201.128662,2150,2877,0_S
1789466201.128732,2013,2876,0_S
1789466201.128823,2027,2876,0_S
1789466201.128889,2008,2874,0_S
1789466201.1302779,2010,2875,0_S
1789466201.1317,1961,2877,0_S
1789466201.134401,2107,2876,0_S
1789466201.1358268,2062,2876,0_S
1789466201.138504,1958,2875,0_S
1789466201.1399848,1981,2877,0_S
1789466201.1426072,2071,2876,0_S
1789466201.1439931,2099,2877,0_S
1789466201.146674,2026,2877,0_S
1789466201.1479979,1955,2877,0_S
1789466201.150531,2010,2878,0_S
1789466201.15193,2070,2876,0_S
1789466201.154497,2020,2876,0_S
1789466201.155766,1977,2876,0_S
1789466201.158698,1984,2877,0_S
1789466201.159849,2102,2878,0_S
1789466201.162566,2097,2878,0_S
1789466201.163965,2074,2876,0_S
1789466201.16662,2084,2878,0_S
1789466201.168016,2146,2877,0_S
1789466201.1708229,2149,2879,0_S
1789466201.172211,2051,2878,0_S
1789466201.174846,2103,2878,0_S
1789466201.1761222,2098,2877,0_S
1789466201.1787992,2095,2878,0_S
1789466201.1802099,1930,2877,0_S
1789466201.182754,2084,2877,0_S
1789466201.194612,2145,2880,0_S
1789466201.1979132,2068,2876,0_S
1789466201.198524,1903,2876,0_S
1789466201.201819,2083,2879,0_S
1789466201.2049222,2042,2877,0_S
1789466201.20977,2069,2877,0_S
1789466201.210031,2070,2878,0_S
1789466201.219127,2169,2880,0_S
1789466201.2204642,2102,2877,0_S
1789466201.2205398,2111,2878,0_S
1789466201.220664,1931,2876,0_S
1789466201.220725,2031,2875,0_S
1789466201.2208269,2081,2878,0_S
1789466201.220962,2033,2877,0_S
1789466201.221026,1903,2874,0_S
1789466201.2210848,1954,2875,0_S
1789466201.221355,2037,2877,0_S
1789466201.221431,2117,2879,0_S
1789466201.221498,2266,2879,0_S
1789466201.222913,2240,2878,0_S
1789466201.224322,2103,2877,0_S
1789466201.225902,2122,2877,0_S
1789466201.242729,2093,2878,0_S
1789466201.24673,2063,2875,0_S
1789466201.251574,2029,2876,0_S
1789466201.252822,1985,2877,0_S
1789466201.2539752,2063,2877,0_S
1789466201.255039,2061,2878,0_S
1789466201.256196,1922,2876,0_S
1789466201.2684338,1917,2875,0_S
1789466201.27201,2125,2877,0_S
1789466201.273122,2114,2879,0_S
1789466201.273729,1949,2877,0_S
1789466201.2738209,1941,2876,0_S
1789466201.273938,2247,2879,0_S
1789466201.274024,2249,2878,0_S
1789466201.274097,2052,2878,0_S
1789466201.2741702,2002,2878,0_S
1789466201.2742772,2363,2878,0_S
1789466201.274407,2176,2879,0_S
1789466201.274545,1870,2877,0_S
1789466201.274677,2001,2877,0_S
1789466201.2747588,2138,2879,0_S
1789466201.274857,2141,2878,0_S
1789466201.27494,2127,2878,0_S
1789466201.275018,2064,2878,0_S
1789466201.276385,2145,2878,0_S
1789466201.278561,2059,2878,0_S
1789466201.279697,2162,2879,0_S
1789466201.282156,2174,2878,0_S
1789466201.284628,2128,2876,0_S
1789466201.285982,1899,2876,0_S
1789466201.288479,1863,2876,0_S
1789466201.2896671,1963,2875,0_S
1789466201.292325,2174,2879,0_S
1789466201.294625,2121,2877,0_S
1789466201.296045,2108,2878,0_S
1789466201.299252,2009,2877,0_S
1789466201.3007722,2025,2877,0_S
1789466201.302685,2049,2877,0_S
1789466201.303825,2244,2880,0_S
1789466201.306498,2140,2878,0_S
1789466201.3078568,2107,2878,0_S
1789466201.3101969,2103,2877,0_S
1789466201.312866,2063,2878,0_S
1789466201.31425,2118,2878,0_S
1789466201.3156962,2262,2879,0_S
1789466201.318327,2132,2876,0_S
1789466201.319681,2157,2879,0_S
1789466201.322048,2141,2878,0_S
1789466201.3247628,2072,2878,0_S
1789466201.3261492,2021,2877,0_S
1789466201.328663,2019,2879,0_S
1789466201.3304992,1863,2875,0_S
1789466201.331924,2025,2876,0_S
1789466201.3346019,2098,2877,0_S
1789466201.3358562,2147,2879,0_S
1789466201.346857,2130,2878,0_S
1789466201.348145,2083,2878,0_S
1789466201.349379,2059,2877,0_S
1789466201.3513741,2207,2878,0_S
1789466201.354453,2181,2879,0_S
1789466201.3548942,2099,2879,0_S
1789466201.35532,2005,2878,0_S
1789466201.355581,2096,2876,0_S
1789466201.3583272,2118,2879,0_S
1789466201.3617952,2086,2878,0_S
1789466201.3638048,2075,2877,0_S
1789466201.368917,2083,2877,0_S
1789466201.36925,2103,2878,0_S
1789466201.369517,2021,2877,0_S
1789466201.375552,2054,2877,0_S
1789466201.375969,2104,2877,0_S
1789466201.376391,2124,2879,0_S
1789466201.376972,2082,2878,0_S
1789466201.377219,2098,2877,0_S
1789466201.377687,2114,2878,0_S
1789466201.3782122,2141,2878,0_S
1789466201.382554,2024,2877,0_S
1789466201.382671,1952,2876,0_S
1789466201.384081,2014,2878,0_S
1789466201.386681,2092,2877,0_S
1789466201.3878899,2094,2877,0_S
1789466201.3967202,2030,2876,0_S
1789466201.3969111,2037,2877,0_S
1789466201.399179,2105,2877,0_S
1789466201.399381,2086,2878,0_S
1789466201.40178,2043,2877,0_S
1789466201.4023292,2079,2877,0_S
1789466201.406059,2111,2878,0_S
1789466201.406265,2141,2879,0_S
1789466201.407138,2109,2878,0_S
1789466201.409493,2003,2878,0_S
1789466201.414266,2090,2877,0_S
1789466201.419801,2146,2877,0_S
1789466201.4201431,2067,2877,0_S
1789466201.420607,2091,2876,0_S
1789466201.4207628,2080,2877,0_S
1789466201.421063,2118,2877,0_S
1789466201.424875,2064,2878,0_S
1789466201.425184,1998,2877,0_S
1789466201.426392,2004,2877,0_S
1789466201.427733,2094,2878,0_S
1789466201.429868,2016,2876,0_S
1789466201.43205,2006,2877,0_S
1789466201.4347,1999,2878,0_S
1789466201.436052,2134,2876,0_S
1789466201.4386969,2133,2879,0_S
1789466201.4398148,2092,2877,0_S
1789466201.442296,2041,2877,0_S
1789466201.444421,2086,2877,0_S
1789466201.4457479,2050,2879,0_S
1789466201.448308,2008,2878,0_S
1789466201.4496791,2049,2878,0_S
1789466201.452096,2102,2878,0_S
1789466201.454468,2105,2877,0_S
1789466201.45678,2050,2878,0_S
1789466201.4578738,2056,2877,0_S
1789466201.4599838,2100,2877,0_S
1789466201.462634,2137,2879,0_S
1789466201.4640481,2072,2877,0_S
1789466201.466392,2085,2877,0_S
1789466201.468779,2155,2880,0_S
1789466201.469874,2136,2879,0_S
1789466201.4719958,2080,2878,0_S
1789466201.474431,2080,2877,0_S
1789466201.4760902,2091,2877,0_S
1789466201.478204,2089,2878,0_S
1789466201.489272,2055,2879,0_S
1789466201.4904141,2037,2876,0_S
1789466201.496023,2050,2877,0_S
1789466201.498762,2136,2879,0_S
1789466201.5014799,2131,2878,0_S
1789466201.50444,2078,2877,0_S
1789466201.508579,2075,2877,0_S
1789466201.509087,2088,2878,0_S
1789466201.509634,2040,2878,0_S
1789466201.509981,1997,2877,0_S
1789466201.510428,2004,2878,0_S
1789466201.510682,2063,2878,0_S
1789466201.511038,2070,2877,0_S
1789466201.514714,2043,2878,0_S
1789466201.514932,2018,2877,0_S
1789466201.5150871,2057,2877,0_S
1789466201.515248,2107,2878,0_S
1789466201.515551,2025,2876,0_S
1789466201.515627,2001,2877,0_S
1789466201.5180318,2142,2877,0_S
1789466201.5203269,2130,2879,0_S
1789466201.5278552,2046,2878,0_S
1789466201.528675,2053,2877,0_S
1789466201.5288908,2104,2876,0_S
1789466201.530366,2133,2878,0_S
1789466201.530677,2056,2878,0_S
1789466201.5334039,1990,2876,0_S
1789466201.5373068,2042,2877,0_S
1789466201.537662,2081,2877,0_S
1789466201.5384,2094,2877,0_S
1789466201.5397708,2103,2877,0_S
1789466201.547714,2044,2877,0_S
1789466201.548188,2104,2877,0_S
1789466201.548463,2006,2877,0_S
1789466201.5489202,1981,2877,0_S
1789466201.5523598,2015,2878,0_S
1789466201.5527701,2078,2878,0_S
1789466201.554118,2096,2879,0_S
1789466201.5564601,2026,2877,0_S
1789466201.557719,1896,2875,0_S
1789466201.560137,2007,2877,0_S
1789466201.562743,2132,2878,0_S
1789466201.564071,2081,2879,0_S
1789466201.566415,2069,2875,0_S
1789466201.567582,2071,2878,0_S
1789466201.570115,2127,2879,0_S
1789466201.572483,2130,2877,0_S
1789466201.5737312,2084,2878,0_S
1789466201.576341,2079,2877,0_S
1789466201.577687,2145,2877,0_S
1789466201.5800269,2049,2878,0_S
1789466201.582604,2036,2876,0_S
1789466201.583853,2107,2877,0_S
1789466201.5862,2151,2879,0_S
1789466201.587583,2112,2877,0_S
1789466201.5897212,2050,2878,0_S
1789466201.592075,2026,2878,0_S
1789466201.594435,2125,2878,0_S
1789466201.595586,2024,2878,0_S
1789466201.598089,1960,2877,0_S
1789466201.6001909,2065,2878,0_S
1789466201.602546,2100,2876,0_S
1789466201.603637,2101,2879,0_S
1789466201.614177,2035,2878,0_S
1789466201.615154,2073,2878,0_S
1789466201.618925,2065,2877,0_S
1789466201.6192782,2135,2878,0_S
1789466201.619503,2105,2879,0_S
1789466201.619783,2011,2877,0_S
1789466201.6225998,2107,2877,0_S
1789466201.623391,2089,2876,0_S
1789466201.6243682,2078,2877,0_S
1789466201.625816,2051,2877,0_S
1789466201.626668,2049,2876,0_S
1789466201.630402,2084,2877,0_S
1789466201.63067,2031,2875,0_S
1789466201.6343338,2148,2879,0_S
1789466201.63468,2212,2879,0_S
1789466201.638518,2071,2875,0_S
1789466201.6386409,2142,2879,0_S
1789466201.639738,2307,2878,0_S
1789466201.642109,2184,2877,0_S
1789466201.6512132,2641,2878,0_S
1789466201.651371,2345,2879,0_S
1789466201.652907,1510,2876,0_S
1789466201.654576,1781,2876,0_S
1789466201.656969,2114,2878,0_S
1789466201.657294,2026,2876,0_S
1789466201.659564,1977,2878,0_S
1789466201.660924,1902,2877,0_S
1789466201.661122,1908,2877,0_S
1789466201.663608,2068,2878,0_S
1789466201.665084,2024,2877,0_S
1789466201.671083,2056,2876,0_S
1789466201.6713972,2102,2878,0_S
1789466201.671649,2176,2877,0_S
1789466201.6718311,2523,2879,0_S
1789466201.675775,1692,2874,0_S
1789466201.675841,1460,2875,0_S
1789466201.678438,2227,2879,0_S
1789466201.679764,2215,2878,0_S
1789466201.682113,1615,2877,0_S
1789466201.684705,1513,2879,0_S
1789466201.686029,1926,2877,0_S
1789466201.6883771,2058,2875,0_S
1789466201.689701,2123,2879,0_S
1789466201.691829,2087,2877,0_S
1789466201.694176,1925,2876,0_S
1789466201.696532,2145,2878,0_S
1789466201.697631,2468,2878,0_S
1789466201.6999848,2980,2880,0_S
1789466201.702568,2197,2878,0_S
1789466201.703891,1641,2877,0_S
1789466201.7062268,2460,2879,0_S
1789466201.70857,2497,2878,0_S
1789466201.7096362,2073,2878,0_S
1789466201.712142,1995,2877,0_S
1789466201.714448,1428,2875,0_S
1789466201.7157602,1872,2877,0_S
1789466201.717862,2036,2876,0_S
1789466201.720455,1882,2877,0_S
1789466201.7217789,2315,2879,0_S
1789466201.724104,2069,2879,0_S
1789466201.731343,2049,2877,0_S
1789466201.731589,2837,2879,0_S
1789466201.7323,1397,2875,0_S
1789466201.733602,1318,2876,0_S
1789466201.7342641,2243,2878,0_S
1789466201.73614,2094,2878,0_S
1789466201.738515,1864,2877,0_S
1789466201.740084,1810,2880,0_S
1789466201.7441332,1906,2877,0_S
1789466201.7442582,2145,2877,0_S
1789466201.747443,2201,2879,0_S
1789466201.747741,2059,2876,0_S
1789466201.750933,2118,2876,0_S
1789466201.752532,2238,2877,0_S
1789466201.753792,2373,2879,0_S
1789466201.756073,2009,2877,0_S
1789466201.7635121,1670,2874,0_S
1789466201.7659478,1899,2877,0_S
1789466201.766134,2261,2878,0_S
1789466201.7663958,2032,2875,0_S
1789466201.766808,1989,2876,0_S
1789466201.7697,2305,2880,0_S
1789466201.770586,2391,2879,0_S
1789466201.7722292,2084,2878,0_S
1789466201.775522,1826,2875,0_S
1789466201.778774,1958,2877,0_S
1789466201.779161,2066,2878,0_S
1789466201.781696,2089,2878,0_S
1789466201.7825642,2065,2876,0_S
1789466201.783684,1875,2877,0_S
1789466201.785783,1822,2877,0_S
1789466201.788131,2193,2878,0_S
1789466201.790713,2295,2878,0_S
1789466201.792027,1880,2877,0_S
1789466201.7945678,1878,2874,0_S
1789466201.795891,2141,2880,0_S
1789466201.798486,1986,2877,0_S
1789466201.799963,2165,2877,0_S
1789466201.8037062,2062,2877,0_S
1789466201.8037639,2369,2878,0_S
1789466201.8063612,2576,2879,0_S
1789466201.807814,2426,2878,0_S
1789466201.8103979,1722,2875,0_S
1789466201.811714,1248,2876,0_S
1789466201.814079,1498,2878,0_S
1789466201.816215,1846,2878,0_S
1789466201.818559,1958,2876,0_S
1789466201.819881,1818,2876,0_S
1789466201.822486,1807,2878,0_S
1789466201.823807,1831,2877,0_S
1789466201.8263738,1939,2878,0_S
1789466201.835327,2209,2878,0_S
1789466201.836142,2411,2880,0_S
1789466201.836849,2227,2877,0_S
1789466201.837695,2788,2880,0_S
1789466201.839773,2809,2881,0_S
1789466201.840074,2070,2878,0_S
1789466201.841999,1391,2876,0_S
1789466201.843307,1424,2876,0_S
1789466201.844576,2062,2876,0_S
1789466201.846601,2496,2880,0_S
1789466201.848872,1962,2876,0_S
1789466201.852351,2057,2879,0_S
1789466201.852739,2115,2878,0_S
1789466201.856116,2046,2878,0_S
1789466201.856171,1687,2875,0_S
1789466201.858502,1498,2875,0_S
1789466201.859574,2079,2875,0_S
1789466201.8678138,2471,2879,0_S
1789466201.868744,1971,2878,0_S
1789466201.8694289,1723,2876,0_S
1789466201.870107,1718,2876,0_S
1789466201.872044,2060,2878,0_S
1789466201.872319,2300,2878,0_S
1789466201.874965,1951,2876,0_S
1789466201.8765178,2117,2876,0_S
1789466201.878016,2032,2876,0_S
1789466201.880706,1701,2876,0_S
1789466201.883904,1824,2875,0_S
1789466201.884137,1890,2876,0_S
1789466201.887433,2135,2878,0_S
1789466201.8885581,2461,2879,0_S
1789466201.8898802,2352,2878,0_S
1789466201.891993,2253,2879,0_S
1789466201.894371,2215,2879,0_S
1789466201.896713,1997,2877,0_S
1789466201.898029,2025,2877,0_S
1789466201.900358,2110,2877,0_S
1789466201.901673,1400,2875,0_S
1789466201.9042392,1754,2876,0_S
1789466201.9057238,1758,2874,0_S
1789466201.908252,1973,2878,0_S
1789466201.910381,2293,2878,0_S
1789466201.9117088,2392,2878,0_S
1789466201.91429,2268,2879,0_S
1789466201.915605,2234,2880,0_S
1789466201.918195,2369,2879,0_S
1789466201.920539,2038,2876,0_S
1789466201.921855,1364,2876,0_S
1789466201.924431,1732,2876,0_S
1789466201.925745,2174,2879,0_S
1789466201.9283168,2068,2878,0_S
1789466201.930656,1841,2875,0_S
1789466201.9319701,1678,2875,0_S
1789466201.937309,1782,2877,0_S
1789466201.939046,2230,2879,0_S
1789466201.940298,2032,2876,0_S
1789466201.9409769,1831,2877,0_S
1789466201.9434218,1951,2875,0_S
1789466201.945973,1980,2878,0_S
1789466201.94663,1896,2876,0_S
1789466201.9493608,1998,2875,0_S
1789466201.952043,2176,2879,0_S
1789466201.955383,2317,2879,0_S
1789466201.955737,2574,2878,0_S
1789466201.955957,2589,2879,0_S
1789466201.959164,2774,2880,0_S
1789466201.960264,2561,2879,0_S
1789466201.962605,2804,2879,0_S
1789466201.96369,2489,2879,0_S
1789466201.971025,2261,2879,0_S
1789466201.9729989,2290,2878,0_S
1789466201.974956,2072,2876,0_S
1789466201.975266,1881,2876,0_S
1789466201.975442,2384,2878,0_S
1789466201.9781172,2864,2881,0_S
1789466201.9787688,2366,2878,0_S
1789466201.980802,2735,2878,0_S
1789466201.9833012,2288,2879,0_S
1789466201.986775,2355,2879,0_S
1789466201.987083,2652,2879,0_S
1789466201.990359,2703,2879,0_S
1789466201.9904242,2249,2879,0_S
1789466201.991743,2063,2878,0_S
1789466201.993841,1823,2875,0_S
1789466201.9964302,2055,2878,0_S
1789466201.997748,2161,2878,0_S
1789466202.000108,2325,2879,0_S
1789466202.002208,2350,2878,0_S
1789466202.004576,2341,2879,0_S
1789466202.005892,2648,2879,0_S
1789466202.008273,2536,2879,0_S
1789466202.0095859,2354,2878,0_S
1789466202.012393,2475,2878,0_S
1789466202.0134661,2347,2878,0_S
1789466202.015569,2326,2878,0_S
1789466202.017937,2476,2879,0_S
1789466202.020273,2494,2879,0_S
1789466202.02238,2407,2878,0_S
1789466202.023472,2361,2878,0_S
1789466202.0258172,2501,2878,0_S
1789466202.028157,2426,2878,0_S
1789466202.0304902,2391,2878,0_S
1789466202.031554,2432,2879,0_S
1789466202.033931,2293,2879,0_S
1789466202.04136,2437,2879,0_S
1789466202.041516,2341,2879,0_S
1789466202.043018,2207,2878,0_S
1789466202.04376,2244,2878,0_S
1789466202.044498,2382,2878,0_S
1789466202.049373,2405,2878,0_S
1789466202.050295,2210,2879,0_S
1789466202.051508,2070,2876,0_S
1789466202.052194,2096,2877,0_S
1789466202.055941,2090,2877,0_S
1789466202.056112,1889,2875,0_S
1789466202.0596511,1694,2876,0_S
1789466202.0600011,1691,2875,0_S
1789466202.063311,1567,2875,0_S
1789466202.064669,2047,2878,0_S
1789466202.0659919,2085,2878,0_S
1789466202.068112,1731,2875,0_S
1789466202.074347,1810,2876,0_S
1789466202.075084,1375,2875,0_S
1789466202.076822,2081,2877,0_S
1789466202.078759,2318,2878,0_S
1789466202.0813608,1387,2875,0_S
1789466202.082077,1525,2876,0_S
1789466202.0826979,1741,2875,0_S
1789466202.084842,1547,2875,0_S
1789466202.087501,1468,2876,0_S
1789466202.091122,1227,2876,0_S
1789466202.091347,1893,2876,0_S
1789466202.091577,1737,2876,0_S
1789466202.09471,1723,2875,0_S
1789466202.096042,1895,2878,0_S
1789466202.098691,2117,2878,0_S
1789466202.10008,1808,2875,0_S
1789466202.1016378,1594,2877,0_S
1789466202.104011,1866,2877,0_S
1789466202.106358,2234,2879,0_S
1789466202.107679,2126,2878,0_S
1789466202.110257,1886,2878,0_S
1789466202.1125069,1885,2878,0_S
1789466202.113832,1574,2875,0_S
1789466202.1163468,1861,2876,0_S
1789466202.117894,1613,2876,0_S
1789466202.120094,1724,2875,0_S
1789466202.1224298,2084,2876,0_S
1789466202.123758,2181,2878,0_S
1789466202.125912,1823,2877,0_S
1789466202.128494,1872,2877,0_S
1789466202.12956,1673,2875,0_S
1789466202.1318998,1790,2877,0_S
1789466202.1342359,1832,2878,0_S
1789466202.1355531,2025,2878,0_S
1789466202.137897,1900,2877,0_S
1789466202.140446,2097,2878,0_S
1789466202.146821,1955,2877,0_S
1789466202.1482701,2048,2878,0_S
1789466202.149015,2188,2879,0_S
1789466202.149225,2506,2879,0_S
1789466202.1518998,2496,2879,0_S
1789466202.155385,2561,2880,0_S
1789466202.1560771,2056,2876,0_S
1789466202.156287,2159,2876,0_S
1789466202.158415,1825,2876,0_S
1789466202.1643672,1814,2875,0_S
1789466202.1645749,2004,2878,0_S
1789466202.16518,1799,2875,0_S
1789466202.1683478,1627,2875,0_S
1789466202.16849,2148,2875,0_S
1789466202.169832,2838,2879,0_S
1789466202.1722,2705,2880,0_S
1789466202.1811562,1723,2874,0_S
1789466202.181888,1636,2875,0_S
1789466202.18424,2119,2876,0_S
1789466202.187252,2448,2878,0_S
1789466202.187846,2219,2878,0_S
1789466202.1886249,1598,2876,0_S
1789466202.189822,1607,2876,0_S
1789466202.190664,2058,2876,0_S
1789466202.1908538,2257,2879,0_S
1789466202.193747,2443,2879,0_S
1789466202.201362,2181,2879,0_S
1789466202.20158,1723,2876,0_S
1789466202.201757,1616,2875,0_S
1789466202.2018209,1877,2876,0_S
1789466202.201876,1976,2876,0_S
1789466202.204283,2068,2879,0_S
1789466202.205694,2104,2878,0_S
1789466202.210591,2136,2877,0_S
1789466202.210733,2127,2878,0_S
1789466202.2126698,2502,2878,0_S
1789466202.2137642,2118,2876,0_S
1789466202.2162712,1995,2877,0_S
1789466202.2176352,2014,2876,0_S
1789466202.2200341,1989,2877,0_S
1789466202.2214558,2144,2878,0_S
1789466202.223843,2088,2877,0_S
1789466202.2259579,2150,2877,0_S
1789466202.22806,2082,2878,0_S
1789466202.230162,2292,2879,0_S
1789466202.2322838,1719,2876,0_S
1789466202.233707,2043,2876,0_S
1789466202.236363,2488,2880,0_S
1789466202.237761,1937,2875,0_S
1789466202.240215,1759,2875,0_S
1789466202.242573,1864,2877,0_S
1789466202.2443929,1826,2875,0_S
1789466202.245812,1859,2876,0_S
1789466202.255481,1952,2877,0_S
1789466202.2567182,2101,2877,0_S
1789466202.2575302,2284,2879,0_S
1789466202.262205,2128,2879,0_S
1789466202.262953,2055,2878,0_S
1789466202.263584,2022,2878,0_S
1789466202.264451,2043,2878,0_S
1789466202.265635,2179,2878,0_S
1789466202.269502,2353,2879,0_S
1789466202.273914,1919,2876,0_S
1789466202.274186,1875,2877,0_S
1789466202.274633,2070,2876,0_S
1789466202.275064,2026,2875,0_S
1789466202.275218,1885,2876,0_S
1789466202.278532,1704,2875,0_S
1789466202.2786272,1891,2875,0_S
1789466202.2799711,1990,2879,0_S
1789466202.282322,2024,2876,0_S
1789466202.289608,2057,2876,0_S
1789466202.291571,2054,2877,0_S
1789466202.293788,1975,2876,0_S
1789466202.297708,1977,2877,0_S
1789466202.298551,2257,2878,0_S
1789466202.299909,2172,2877,0_S
1789466202.303283,1841,2876,0_S
1789466202.307719,1784,2876,0_S
1789466202.308248,1904,2875,0_S
1789466202.308641,2053,2877,0_S
1789466202.308871,2199,2879,0_S
1789466202.30905,2262,2878,0_S
1789466202.309206,1982,2878,0_S
1789466202.312286,1800,2874,0_S
1789466202.312347,1985,2876,0_S
1789466202.313778,1984,2877,0_S
1789466202.316171,1953,2876,0_S
1789466202.317643,2114,2877,0_S
1789466202.320031,1982,2876,0_S
1789466202.322628,1974,2875,0_S
1789466202.323709,2087,2878,0_S
1789466202.3260539,1991,2878,0_S
1789466202.328395,2018,2878,0_S
1789466202.3297348,2046,2876,0_S
1789466202.331847,1995,2875,0_S
1789466202.334184,2028,2878,0_S
1789466202.336386,2082,2876,0_S
1789466202.337793,2092,2878,0_S
1789466202.3401659,1961,2878,0_S
1789466202.342535,1937,2877,0_S
1789466202.343725,2021,2877,0_S
1789466202.346136,2124,2879,0_S
1789466202.347467,2072,2876,0_S
1789466202.34961,2033,2877,0_S
1789466202.352096,2076,2878,0_S
1789466202.354204,2067,2877,0_S
1789466202.35654,2011,2878,0_S
1789466202.364785,2017,2877,0_S
1789466202.365491,2095,2877,0_S
1789466202.366219,2118,2878,0_S
1789466202.369643,2032,2876,0_S
1789466202.3700612,1967,2878,0_S
1789466202.370343,2009,2877,0_S
1789466202.373006,2149,2879,0_S
1789466202.373674,2080,2878,0_S
1789466202.3749702,2053,2877,0_S
1789466202.3771431,2051,2877,0_S
1789466202.3793678,2095,2879,0_S
1789466202.379586,2117,2879,0_S
1789466202.383557,2047,2877,0_S
1789466202.383682,2026,2877,0_S
1789466202.3865001,2080,2877,0_S
1789466202.387587,2072,2875,0_S
1789466202.3899,2035,2878,0_S
1789466202.392063,1977,2876,0_S
1789466202.397315,2006,2878,0_S
1789466202.4020102,2117,2878,0_S
1789466202.4021928,2052,2877,0_S
1789466202.402488,2022,2878,0_S
1789466202.402744,2064,2877,0_S
1789466202.405277,2139,2880,0_S
1789466202.405976,2092,2878,0_S
1789466202.407574,2042,2877,0_S
1789466202.411202,2013,2877,0_S
1789466202.415116,2127,2878,0_S
1789466202.4154081,2042,2876,0_S
1789466202.41586,1984,2877,0_S
1789466202.419414,2039,2876,0_S
1789466202.419509,2120,2877,0_S
1789466202.421854,2122,2878,0_S
1789466202.424211,2227,2877,0_S
1789466202.426553,2026,2877,0_S
1789466202.4279501,1968,2875,0_S
1789466202.43033,1998,2878,0_S
1789466202.431649,1891,2876,0_S
1789466202.434237,2068,2877,0_S
1789466202.4355578,2090,2877,0_S
1789466202.437838,2024,2879,0_S
1789466202.439934,1924,2874,0_S
1789466202.442029,2025,2877,0_S
1789466202.444124,2118,2877,0_S
1789466202.445645,2170,2878,0_S
1789466202.448252,2089,2875,0_S
1789466202.45036,2071,2878,0_S
1789466202.451452,2084,2877,0_S
1789466202.453791,2093,2876,0_S
1789466202.456129,2060,2878,0_S
1789466202.4574451,2007,2877,0_S
1789466202.4598022,1993,2877,0_S
1789466202.461919,2026,2878,0_S
1789466202.464332,2083,2879,0_S
1789466202.471349,2076,2876,0_S
1789466202.472047,2172,2880,0_S
1789466202.4722219,2160,2879,0_S
1789466202.473632,2062,2878,0_S
1789466202.476193,1986,2876,0_S
1789466202.4764721,2057,2878,0_S
1789466202.479184,2094,2878,0_S
1789466202.481363,2098,2878,0_S
1789466202.483273,1995,2877,0_S
1789466202.489559,1976,2876,0_S
1789466202.4903738,1994,2878,0_S
1789466202.493098,2038,2877,0_S
1789466202.493881,2089,2878,0_S
1789466202.494039,2098,2877,0_S
1789466202.4941728,2108,2877,0_S
1789466202.496512,2175,2878,0_S
1789466202.497791,2127,2879,0_S
1789466202.5054138,2092,2876,0_S
1789466202.5067468,2099,2876,0_S
1789466202.5081038,2121,2876,0_S
1789466202.510133,2085,2878,0_S
1789466202.512392,2151,2877,0_S
1789466202.5135539,2095,2877,0_S
1789466202.5137012,2042,2877,0_S
1789466202.5138261,2145,2879,0_S
1789466202.516375,1948,2876,0_S
1789466202.51918,1736,2876,0_S
1789466202.523263,2034,2877,0_S
1789466202.523411,2023,2876,0_S
1789466202.523648,2134,2878,0_S
1789466202.526294,2030,2877,0_S
1789466202.527637,2132,2877,0_S
1789466202.5297348,2059,2877,0_S
1789466202.531853,1927,2876,0_S
1789466202.5341709,2081,2877,0_S
1789466202.535498,2355,2880,0_S
1789466202.537836,2164,2879,0_S
1789466202.5404139,2133,2878,0_S
1789466202.541729,2069,2877,0_S
1789466202.544071,2016,2877,0_S
1789466202.5464919,2112,2878,0_S
1789466202.547811,2050,2876,0_S
1789466202.550447,2009,2877,0_S
1789466202.551584,2192,2880,0_S
1789466202.5539231,2095,2877,0_S
1789466202.555427,1981,2876,0_S
1789466202.557529,1924,2876,0_S
1789466202.559618,2000,2878,0_S
1789466202.5618849,2100,2877,0_S
1789466202.563974,1930,2875,0_S
1789466202.566339,1912,2876,0_S
1789466202.567422,2072,2878,0_S
1789466202.569769,2200,2879,0_S
1789466202.5720189,2303,2878,0_S
1789466202.579189,2084,2878,0_S
1789466202.5794182,1967,2878,0_S
1789466202.580184,2174,2878,0_S
1789466202.580986,2467,2879,0_S
1789466202.58577,2180,2879,0_S
1789466202.586367,2026,2876,0_S
1789466202.587018,1973,2877,0_S
1789466202.588673,2039,2877,0_S
1789466202.592222,2034,2876,0_S
1789466202.5962691,2010,2877,0_S
1789466202.596568,2057,2877,0_S
1789466202.596828,2161,2878,0_S
1789466202.600097,1935,2876,0_S
1789466202.600346,1956,2877,0_S
1789466202.601494,2141,2876,0_S
1789466202.6038332,2171,2879,0_S
1789466202.61105,2196,2879,0_S
1789466202.611722,2204,2877,0_S
1789466202.611918,2166,2876,0_S
1789466202.612594,2064,2878,0_S
1789466202.61566,2111,2879,0_S
1789466202.617944,1969,2877,0_S
1789466202.6185548,2053,2878,0_S
1789466202.6201658,2144,2876,0_S
1789466202.624396,1961,2877,0_S
1789466202.628482,2054,2878,0_S
1789466202.6287732,2057,2877,0_S
1789466202.6293418,2030,2876,0_S
1789466202.629715,2133,2878,0_S
1789466202.632449,2055,2876,0_S
1789466202.633827,2045,2876,0_S
1789466202.635396,1978,2877,0_S
1789466202.637776,2301,2879,0_S
1789466202.639887,2287,2878,0_S
1789466202.642362,1906,2873,0_S
1789466202.643436,2115,2878,0_S
1789466202.6470132,2260,2878,0_S
1789466202.648305,2006,2876,0_S
1789466202.6496902,1941,2876,0_S
1789466202.652002,2190,2877,0_S
1789466202.654347,2246,2879,0_S
1789466202.655565,2199,2878,0_S
1789466202.658241,1950,2877,0_S
1789466202.6595619,1856,2875,0_S
1789466202.6618948,2131,2878,0_S
1789466202.6644852,2172,2880,0_S
1789466202.6655629,2121,2879,0_S
1789466202.667667,2138,2879,0_S
1789466202.6700659,2154,2878,0_S
1789466202.672249,2154,2879,0_S
1789466202.673585,2159,2878,0_S
1789466202.675925,2176,2878,0_S
1789466202.678556,2104,2878,0_S
1789466202.685072,2177,2878,0_S
1789466202.687392,2136,2878,0_S
1789466202.6904168,2012,2876,0_S
1789466202.69153,2126,2876,0_S
1789466202.693568,2174,2879,0_S
1789466202.6961012,2130,2877,0_S
1789466202.696345,1950,2874,0_S
1789466202.6971378,1968,2874,0_S
1789466202.697842,2197,2878,0_S
1789466202.7003,2131,2878,0_S
1789466202.7044008,2007,2875,0_S
1789466202.704635,2028,2877,0_S
1789466202.7049909,2111,2877,0_S
1789466202.7077491,2088,2879,0_S
1789466202.70853,2138,2878,0_S
1789466202.709615,2156,2877,0_S
1789466202.712137,2199,2878,0_S
1789466202.719946,2143,2878,0_S
1789466202.7211032,2122,2879,0_S
1789466202.722047,2103,2875,0_S
1789466202.724371,2231,2878,0_S
1789466202.7248352,2144,2879,0_S
1789466202.727804,2048,2878,0_S
1789466202.7284732,2096,2878,0_S
1789466202.7286808,2074,2878,0_S
1789466202.731283,2055,2878,0_S
1789466202.731487,2040,2876,0_S
1789466202.7376509,2109,2876,0_S
1789466202.73792,2163,2879,0_S
1789466202.7381198,2104,2878,0_S
1789466202.7407548,2161,2878,0_S
1789466202.742074,2139,2877,0_S
1789466202.743444,2184,2878,0_S
1789466202.745974,2160,2878,0_S
1789466202.748336,2012,2875,0_S
1789466202.749675,2051,2878,0_S
1789466202.75203,2109,2878,0_S
1789466202.754144,2120,2879,0_S
1789466202.755457,2117,2878,0_S
1789466202.7575428,2101,2877,0_S
1789466202.7597811,2042,2877,0_S
1789466202.7621279,2105,2878,0_S
1789466202.7644749,2094,2879,0_S
1789466202.7655628,2068,2876,0_S
1789466202.7678359,2094,2876,0_S
1789466202.769939,2121,2877,0_S
1789466202.7713332,2145,2878,0_S
1789466202.7736828,2208,2877,0_S
1789466202.775777,2134,2877,0_S
1789466202.778008,2063,2878,0_S
1789466202.7794151,2139,2878,0_S
1789466202.781821,1958,2877,0_S
1789466202.784182,1968,2876,0_S
1789466202.785509,2015,2877,0_S
1789466202.793611,2079,2876,0_S
1789466202.793747,2006,2878,0_S
1789466202.7946272,2021,2877,0_S
1789466202.7948291,2037,2877,0_S
1789466202.798311,2117,2878,0_S
1789466202.798527,2106,2879,0_S
1789466202.80213,2054,2877,0_S
1789466202.8029819,2080,2877,0_S
1789466202.804637,2144,2880,0_S
1789466202.807501,2118,2878,0_S
1789466202.807733,2103,2877,0_S
1789466202.811436,2024,2877,0_S
1789466202.811585,2039,2878,0_S
1789466202.814413,2099,2878,0_S
1789466202.8155022,2071,2876,0_S
1789466202.817873,2001,2877,0_S
1789466202.819343,2070,2877,0_S
1789466202.825721,2117,2879,0_S
1789466202.826496,2054,2878,0_S
1789466202.8272,2097,2877,0_S
1789466202.830084,2048,2877,0_S
1789466202.830384,1988,2876,0_S
1789466202.834087,2084,2877,0_S
1789466202.834806,2030,2878,0_S
1789466202.837386,2055,2878,0_S
1789466202.8376021,2109,2879,0_S
1789466202.8434932,2012,2878,0_S
1789466202.843803,1994,2877,0_S
1789466202.8440452,2182,2876,0_S
1789466202.847361,2226,2878,0_S
1789466202.847497,1960,2876,0_S
1789466202.850029,1909,2876,0_S
1789466202.8513532,2238,2880,0_S
1789466202.853935,2202,2879,0_S
1789466202.855328,2131,2878,0_S
1789466202.857422,1968,2877,0_S
1789466202.8597708,1907,2874,0_S
1789466202.862379,1919,2877,0_S
1789466202.863701,2055,2877,0_S
1789466202.8660638,1946,2877,0_S
1789466202.8674061,1964,2876,0_S
1789466202.8699992,2168,2878,0_S
1789466202.8723378,2168,2878,0_S
1789466202.8734772,2065,2877,0_S
1789466202.875815,2135,2878,0_S
1789466202.878154,2209,2878,0_S
1789466202.8794692,2082,2879,0_S
1789466202.881686,2100,2877,0_S
1789466202.883801,2128,2877,0_S
1789466202.886131,2079,2876,0_S
1789466202.888222,2137,2878,0_S
1789466202.889309,2093,2877,0_S
1789466202.891451,1890,2874,0_S
1789466202.898344,2061,2878,0_S
1789466202.899297,2192,2878,0_S
1789466202.9000242,1967,2877,0_S
1789466202.903849,2187,2879,0_S
1789466202.904099,2128,2879,0_S
1789466202.904307,2102,2879,0_S
1789466202.908025,2079,2878,0_S
1789466202.908737,2124,2878,0_S
1789466202.910814,1980,2877,0_S
1789466202.9131021,2203,2879,0_S
1789466202.916631,2181,2878,0_S
1789466202.916977,1987,2878,0_S
1789466202.920526,1986,2877,0_S
1789466202.920714,2082,2875,0_S
1789466202.921844,2151,2879,0_S
1789466202.923987,2090,2878,0_S
1789466202.925489,2073,2878,0_S
1789466202.931283,2164,2878,0_S
1789466202.932106,2129,2878,0_S
1789466202.933054,2069,2877,0_S
1789466202.936039,2040,2876,0_S
1789466202.9362712,2077,2877,0_S
1789466202.938807,2126,2879,0_S
1789466202.9403121,2099,2878,0_S
1789466202.944544,2094,2877,0_S
1789466202.944814,2095,2878,0_S
1789466202.948278,2112,2878,0_S
1789466202.9484842,2008,2877,0_S
1789466202.951883,2006,2878,0_S
1789466202.952161,2093,2878,0_S
1789466202.953486,2070,2875,0_S
1789466202.9560802,2108,2878,0_S
1789466202.957427,2044,2877,0_S
1789466202.9600189,2006,2876,0_S
1789466202.962202,2137,2877,0_S
1789466202.9635231,2134,2878,0_S
1789466202.9658601,2076,2875,0_S
1789466202.968137,2065,2877,0_S
1789466202.969253,2114,2877,0_S
1789466202.971463,2148,2879,0_S
1789466202.974043,2106,2878,0_S
1789466202.976192,2035,2877,0_S
1789466202.977513,2096,2876,0_S
1789466202.9800918,2136,2878,0_S
1789466202.9812522,2039,2876,0_S
1789466202.983615,2001,2877,0_S
1789466202.985715,2105,2877,0_S
1789466202.988224,2140,2879,0_S
1789466202.989297,2102,2877,0_S
1789466202.9919,2082,2877,0_S
1789466202.994411,2067,2877,0_S
1789466202.995732,2111,2878,0_S
1789466203.003615,2074,2878,0_S
1789466203.004354,2042,2876,0_S
1789466203.005134,2074,2876,0_S
1789466203.005975,1993,2876,0_S
1789466203.008558,2158,2878,0_S
1789466203.008839,2074,2877,0_S
1789466203.0124722,2041,2877,0_S
1789466203.013011,2096,2876,0_S
1789466203.014527,2074,2877,0_S
1789466203.01748,2034,2878,0_S
1789466203.0176141,2048,2878,0_S
1789466203.021043,2118,2877,0_S
1789466203.023714,2093,2876,0_S
1789466203.023943,2109,2877,0_S
1789466203.025269,2062,2876,0_S
1789466203.02782,2099,2877,0_S
1789466203.0368588,2155,2878,0_S
1789466203.0370402,2109,2878,0_S
1789466203.0389812,2090,2877,0_S
1789466203.041012,2142,2878,0_S
1789466203.041279,2147,2879,0_S
1789466203.041518,2119,2878,0_S
1789466203.041712,2108,2877,0_S
1789466203.043531,2062,2877,0_S
1789466203.046439,2055,2878,0_S
1789466203.0498712,2081,2878,0_S
1789466203.0500422,1963,2877,0_S
1789466203.053321,2009,2877,0_S
1789466203.0535948,2064,2878,0_S
1789466203.056865,2172,2877,0_S
1789466203.058198,2140,2878,0_S
1789466203.059359,2052,2877,0_S
1789466203.0617018,2028,2877,0_S
1789466203.064283,2022,2874,0_S
1789466203.065598,1957,2877,0_S
1789466203.0681841,1958,2878,0_S
1789466203.0692549,2038,2877,0_S
1789466203.0718348,2106,2879,0_S
1789466203.0732212,2046,2878,0_S
1789466203.0755572,2013,2877,0_S
1789466203.077902,2060,2876,0_S
1789466203.079995,2165,2878,0_S
1789466203.0823429,2198,2878,0_S
1789466203.083754,2302,2879,0_S
1789466203.086385,2279,2879,0_S
1789466203.087698,2167,2879,0_S
1789466203.0902731,2231,2878,0_S
1789466203.0914319,2239,2878,0_S
1789466203.093905,2164,2878,0_S
1789466203.0952268,2260,2878,0_S
1789466203.09778,1813,2876,0_S
1789466203.100112,1425,2876,0_S
1789466203.101428,1665,2876,0_S
1789466203.1086059,1996,2876,0_S
1789466203.109426,1983,2874,0_S
1789466203.110191,1929,2877,0_S
1789466203.1115,1847,2877,0_S
1789466203.113418,2064,2877,0_S
1789466203.1136692,2375,2879,0_S
1789466203.1168692,2107,2876,0_S
1789466203.118458,2330,2880,0_S
1789466203.122089,2461,2880,0_S
1789466203.125367,2370,2880,0_S
1789466203.1256058,2802,2879,0_S
1789466203.125857,2013,2878,0_S
1789466203.128984,1540,2875,0_S
1789466203.130071,1685,2876,0_S
1789466203.1313899,2018,2877,0_S
1789466203.13377,1775,2875,0_S
1789466203.1397061,1752,2876,0_S
1789466203.13995,1902,2875,0_S
1789466203.141057,2076,2876,0_S
1789466203.143886,1955,2878,0_S
1789466203.14624,1957,2878,0_S
1789466203.146938,2954,2879,0_S
1789466203.1483939,2359,2878,0_S
1789466203.1520262,1948,2876,0_S
1789466203.155364,2568,2881,0_S
1789466203.1555462,1842,2875,0_S
1789466203.1557,1535,2875,0_S
1789466203.158802,1726,2874,0_S
1789466203.159895,2146,2878,0_S
1789466203.162236,2250,2877,0_S
1789466203.163557,1756,2875,0_S
1789466203.166136,1728,2877,0_S
1789466203.1674519,2266,2879,0_S
1789466203.1700292,2420,2879,0_S
1789466203.172126,2101,2877,0_S
1789466203.173208,2111,2879,0_S
1789466203.17578,1931,2878,0_S
1789466203.177862,2279,2878,0_S
1789466203.1801972,2151,2878,0_S
1789466203.1812742,1999,2876,0_S
1789466203.183616,2563,2879,0_S
1789466203.185944,1665,2876,0_S
1789466203.187259,1532,2877,0_S
1789466203.189842,2279,2879,0_S
1789466203.191946,2112,2879,0_S
1789466203.193266,1871,2878,0_S
1789466203.1958442,2032,2878,0_S
1789466203.198171,1910,2878,0_S
1789466203.199487,2139,2879,0_S
1789466203.202024,1996,2876,0_S
1789466203.2031941,2197,2877,0_S
1789466203.2110069,2958,2881,0_S
1789466203.2112231,2615,2880,0_S
1789466203.213069,1997,2877,0_S
1789466203.2152052,1132,2875,0_S
1789466203.218146,1464,2875,0_S
1789466203.220216,2232,2877,0_S
1789466203.22084,2720,2879,0_S
1789466203.222116,2393,2878,0_S
1789466203.222336,2851,2880,0_S
1789466203.227969,2048,2877,0_S
1789466203.228215,968,2874,0_S
1789466203.228514,1580,2875,0_S
1789466203.23151,2575,2880,0_S
1789466203.231821,2591,2879,0_S
1789466203.234074,2668,2879,0_S
1789466203.2354372,1673,2878,0_S
1789466203.24449,1375,2875,0_S
1789466203.2452219,1556,2876,0_S
1789466203.2472708,2081,2876,0_S
1789466203.247552,2502,2879,0_S
1789466203.249538,2059,2877,0_S
1789466203.251789,1800,2876,0_S
1789466203.252474,1639,2875,0_S
1789466203.253097,1477,2875,0_S
1789466203.2563698,1864,2875,0_S
1789466203.2566578,2379,2879,0_S
1789466203.260013,2628,2880,0_S
1789466203.260193,2717,2879,0_S
1789466203.2636611,1749,2876,0_S
1789466203.263718,2602,2879,0_S
1789466203.266339,3147,2882,0_S
1789466203.267808,2598,2879,0_S
1789466203.269941,1853,2876,0_S
1789466203.271256,913,2875,0_S
1789466203.2738109,3081,2881,0_S
1789466203.275997,2686,2879,0_S
1789466203.278359,989,2875,0_S
1789466203.279443,546,2876,0_S
1789466203.2817862,1458,2877,0_S
1789466203.2841752,1906,2876,0_S
1789466203.285492,2461,2881,0_S
1789466203.2880661,3352,2883,0_S
1789466203.2893171,2789,2881,0_S
1789466203.2918909,1573,2876,0_S
1789466203.293205,1498,2876,0_S
1789466203.295768,1570,2877,0_S
1789466203.298347,2394,2877,0_S
1789466203.299414,1839,2876,0_S
1789466203.301762,1285,2876,0_S
1789466203.304362,1263,2874,0_S
1789466203.305679,2625,2881,0_S
1789466203.308255,2811,2880,0_S
1789466203.314332,2056,2878,0_S
1789466203.315011,1444,2877,0_S
1789466203.316483,1154,2878,0_S
1789466203.3179321,1923,2878,0_S
1789466203.320095,1788,2877,0_S
1789466203.320416,1244,2876,0_S
1789466203.323303,408,2874,0_S
1789466203.32394,202,2873,0_S
1789466203.327017,1118,2875,0_S
1789466203.329369,1838,2876,0_S
1789466203.333046,2279,2876,0_S
1789466203.3333929,2478,2879,0_S
1789466203.333923,2346,2879,0_S
1789466203.337056,1886,2878,0_S
1789466203.337259,2651,2880,0_S
1789466203.339882,1689,2875,0_S
1789466203.3411388,1590,2877,0_S
1789466203.3498082,2375,2879,0_S
1789466203.3510988,2721,2879,0_S
1789466203.353363,2165,2879,0_S
1789466203.353602,997,2876,0_S
1789466203.356095,1391,2876,0_S
1789466203.356699,1319,2877,0_S
1789466203.3568242,1774,2875,0_S
1789466203.3580532,2074,2878,0_S
1789466203.360081,2004,2878,0_S
1789466203.362287,2418,2879,0_S
1789466203.3661618,2445,2878,0_S
1789466203.366441,2104,2875,0_S
1789466203.369063,2701,2879,0_S
1789466203.369843,2493,2879,0_S
1789466203.371268,1979,2876,0_S
1789466203.373853,2072,2878,0_S
1789466203.376211,1891,2874,0_S
1789466203.377536,2052,2878,0_S
1789466203.380113,2400,2879,0_S
1789466203.381495,2639,2879,0_S
1789466203.383965,2217,2878,0_S
1789466203.385331,2582,2879,0_S
1789466203.387608,2944,2880,0_S
1789466203.38993,2643,2880,0_S
1789466203.391107,2480,2879,0_S
1789466203.393197,2524,2878,0_S
1789466203.3952901,2484,2878,0_S
1789466203.397515,2105,2878,0_S
1789466203.400251,2264,2877,0_S
1789466203.4014452,2329,2879,0_S
1789466203.403763,2312,2879,0_S
1789466203.405977,2382,2879,0_S
1789466203.4073129,2360,2878,0_S
1789466203.4096599,3040,2881,0_S
1789466203.412006,3050,2881,0_S
1789466203.4131572,1834,2875,0_S
1789466203.421034,2246,2879,0_S
1789466203.421803,1895,2876,0_S
1789466203.422521,2271,2877,0_S
1789466203.42337,2200,2879,0_S
1789466203.424025,2275,2878,0_S
1789466203.4261508,2252,2878,0_S
1789466203.429174,2366,2878,0_S
1789466203.430031,2406,2878,0_S
1789466203.4320471,2716,2879,0_S
1789466203.434627,2872,2880,0_S
1789466203.439479,2503,2879,0_S
1789466203.441824,2065,2875,0_S
1789466203.442626,2362,2879,0_S
1789466203.442981,2336,2878,0_S
1789466203.4430919,2104,2878,0_S
1789466203.445452,2303,2878,0_S
1789466203.45431,2112,2878,0_S
1789466203.455033,2374,2878,0_S
1789466203.455807,2270,2879,0_S
1789466203.4559538,1425,2875,0_S
1789466203.456594,2374,2878,0_S
1789466203.458496,2832,2879,0_S
1789466203.46102,2371,2878,0_S
1789466203.461688,1910,2878,0_S
1789466203.463273,2025,2878,0_S
1789466203.466794,1811,2875,0_S
1789466203.470974,2081,2876,0_S
1789466203.4718232,2437,2880,0_S
1789466203.474302,2298,2879,0_S
1789466203.475132,1489,2875,0_S
1789466203.475399,1534,2876,0_S
1789466203.477785,2312,2879,0_S
1789466203.4803169,1577,2876,0_S
1789466203.481647,1161,2876,0_S
1789466203.484172,2151,2876,0_S
1789466203.485247,1723,2877,0_S
1789466203.487519,1024,2877,0_S
1789466203.489902,1944,2874,0_S
1789466203.491086,2398,2879,0_S
1789466203.4935648,1022,2874,0_S
1789466203.495669,1953,2877,0_S
1789466203.498224,2650,2880,0_S
1789466203.499548,1571,2876,0_S
1789466203.501899,601,2876,0_S
1789466203.503078,1806,2876,0_S
1789466203.505419,2424,2880,0_S
1789466203.5078442,2523,2880,0_S
1789466203.510189,1979,2877,0_S
1789466203.511351,2280,2878,0_S
1789466203.513925,2174,2878,0_S
1789466203.515242,1018,2876,0_S
1789466203.5177379,1328,2876,0_S
1789466203.520022,2211,2877,0_S
1789466203.5274298,2013,2877,0_S
1789466203.528322,2047,2879,0_S
1789466203.5320141,1635,2877,0_S
1789466203.5323489,1460,2877,0_S
1789466203.5356128,1999,2878,0_S
1789466203.5388548,2093,2874,0_S
1789466203.5419168,2418,2877,0_S
1789466203.546814,2645,2880,0_S
1789466203.547194,2285,2877,0_S
1789466203.547389,2019,2879,0_S
1789466203.547654,1391,2875,0_S
1789466203.547916,1080,2875,0_S
1789466203.548181,1597,2876,0_S
1789466203.5484428,1896,2876,0_S
1789466203.551523,1788,2877,0_S
1789466203.551967,2216,2879,0_S
1789466203.553289,2762,2880,0_S
1789466203.555815,3472,2881,0_S
1789466203.563176,2474,2878,0_S
1789466203.563921,1941,2878,0_S
1789466203.5646122,1572,2876,0_S
1789466203.565323,1254,2877,0_S
1789466203.567754,1876,2877,0_S
1789466203.570399,2086,2876,0_S
1789466203.570585,1841,2878,0_S
1789466203.5720582,1703,2877,0_S
1789466203.574076,1787,2877,0_S
1789466203.576434,2112,2877,0_S
1789466203.580907,2539,2879,0_S
1789466203.5812778,2609,2879,0_S
1789466203.581537,2531,2880,0_S
1789466203.5841029,2384,2879,0_S
1789466203.5851982,2236,2878,0_S
1789466203.587473,2095,2877,0_S
1789466203.589818,2086,2878,0_S
1789466203.5911648,2105,2877,0_S
1789466203.5932758,2095,2877,0_S
1789466203.595371,2326,2879,0_S
1789466203.597473,2370,2879,0_S
1789466203.599659,2302,2878,0_S
1789466203.6020339,2200,2879,0_S
1789466203.6031349,2106,2878,0_S
1789466203.605472,2074,2878,0_S
1789466203.607834,2045,2878,0_S
1789466203.609153,2095,2878,0_S
1789466203.611479,2127,2877,0_S
1789466203.614052,2268,2879,0_S
1789466203.615365,2270,2879,0_S
1789466203.6174972,2071,2876,0_S
1789466203.619833,1893,2876,0_S
1789466203.621147,1945,2877,0_S
1789466203.623488,2030,2878,0_S
1789466203.6260412,1979,2878,0_S
1789466203.62711,1946,2878,0_S
1789466203.6294458,2007,2876,0_S
1789466203.636516,2012,2876,0_S
1789466203.637839,2081,2877,0_S
1789466203.637971,2152,2876,0_S
1789466203.638726,2058,2876,0_S
1789466203.640523,1918,2874,0_S
1789466203.6433668,1933,2875,0_S
1789466203.644004,1979,2878,0_S
1789466203.648569,2089,2877,0_S
1789466203.653374,2060,2878,0_S
1789466203.6537158,2017,2875,0_S
1789466203.654007,2007,2877,0_S
1789466203.6541681,2105,2877,0_S
1789466203.65677,2242,2879,0_S
1789466203.658619,2064,2878,0_S
1789466203.659932,2065,2876,0_S
1789466203.661257,2148,2877,0_S
1789466203.669312,1884,2874,0_S
1789466203.6699882,1796,2876,0_S
1789466203.670194,1859,2877,0_S
1789466203.6713998,1978,2877,0_S
1789466203.673406,1974,2875,0_S
1789466203.673721,1936,2878,0_S
1789466203.676071,1932,2877,0_S
1789466203.678189,2033,2877,0_S
1789466203.681872,2106,2878,0_S
1789466203.686798,2071,2877,0_S
1789466203.6871731,2013,2877,0_S
1789466203.687524,2065,2877,0_S
1789466203.687948,2087,2876,0_S
1789466203.691087,1999,2876,0_S
1789466203.691206,2000,2877,0_S
1789466203.6942751,1960,2877,0_S
1789466203.695637,2047,2877,0_S
1789466203.698036,2053,2878,0_S
1789466203.699147,1997,2877,0_S
1789466203.7018628,2025,2877,0_S
1789466203.703252,2093,2878,0_S
1789466203.705523,2115,2879,0_S
1789466203.707686,2183,2878,0_S
1789466203.710125,2304,2878,0_S
1789466203.7112262,2094,2877,0_S
1789466203.713761,1937,2875,0_S
1789466203.71587,1796,2876,0_S
1789466203.717068,1905,2877,0_S
1789466203.719399,2022,2878,0_S
1789466203.721778,2027,2877,0_S
1789466203.723902,1972,2878,0_S
1789466203.7252219,1918,2876,0_S
1789466203.727656,1975,2877,0_S
1789466203.7301052,2154,2878,0_S
1789466203.731203,2239,2879,0_S
1789466203.733814,2204,2878,0_S
1789466203.735193,2142,2878,0_S
1789466203.7425,2127,2876,0_S
1789466203.743878,2097,2879,0_S
1789466203.744531,2092,2877,0_S
1789466203.745282,2030,2876,0_S
1789466203.747772,2090,2878,0_S
1789466203.748229,2149,2878,0_S
1789466203.751173,2058,2876,0_S
1789466203.7523892,2074,2877,0_S
1789466203.753849,2186,2878,0_S
1789466203.756493,2171,2879,0_S
1789466203.761455,2050,2878,0_S
1789466203.761918,1985,2877,0_S
1789466203.7621398,2036,2877,0_S
1789466203.765001,2102,2878,0_S
1789466203.765343,1994,2876,0_S
1789466203.767736,2073,2878,0_S
1789466203.7703402,2150,2877,0_S
1789466203.776038,2163,2879,0_S
1789466203.777309,2049,2878,0_S
1789466203.778038,2027,2877,0_S
1789466203.778692,2029,2877,0_S
1789466203.781328,2185,2878,0_S
1789466203.784286,2083,2879,0_S
1789466203.785182,1943,2878,0_S
1789466203.7859268,2035,2878,0_S
1789466203.787595,2086,2876,0_S
1789466203.7904499,2054,2877,0_S
1789466203.794998,2036,2878,0_S
1789466203.79533,1910,2874,0_S
1789466203.7955651,2017,2878,0_S
1789466203.798243,2023,2878,0_S
1789466203.800271,2022,2877,0_S
1789466203.801413,2079,2877,0_S
1789466203.8036292,2083,2877,0_S
1789466203.805019,2129,2878,0_S
1789466203.8072908,2090,2878,0_S
1789466203.809512,2077,2877,0_S
1789466203.811924,2112,2877,0_S
1789466203.8132439,2186,2878,0_S
1789466203.8153868,2099,2878,0_S
1789466203.817896,2053,2875,0_S
1789466203.818974,2114,2877,0_S
1789466203.8213172,2113,2877,0_S
1789466203.823894,2090,2879,0_S
1789466203.8252108,2043,2878,0_S
1789466203.827318,2035,2876,0_S
1789466203.829588,2087,2878,0_S
1789466203.830988,2121,2878,0_S
1789466203.833517,2007,2876,0_S
1789466203.8361568,1992,2876,0_S
1789466203.837548,2035,2876,0_S
1789466203.838968,2051,2877,0_S
1789466203.841291,2049,2878,0_S
1789466203.8438709,1984,2877,0_S
1789466203.8454661,1983,2876,0_S
1789466203.853434,2007,2878,0_S
1789466203.854205,1990,2876,0_S
1789466203.856332,1998,2878,0_S
1789466203.856565,2108,2878,0_S
1789466203.856935,2152,2879,0_S
1789466203.859532,2083,2878,0_S
1789466203.8608131,2066,2876,0_S
1789466203.863026,2129,2878,0_S
1789466203.8656058,2087,2878,0_S
1789466203.865988,2071,2879,0_S
1789466203.870579,1995,2876,0_S
1789466203.8707619,2055,2877,0_S
1789466203.873481,2081,2877,0_S
1789466203.874094,2045,2879,0_S
1789466203.8754182,2050,2877,0_S
1789466203.8777878,2057,2877,0_S
1789466203.8792589,2144,2877,0_S
1789466203.885168,2048,2878,0_S
1789466203.886364,1995,2877,0_S
1789466203.886952,1988,2878,0_S
1789466203.887569,2080,2877,0_S
1789466203.889599,2060,2877,0_S
1789466203.891926,2043,2878,0_S
1789466203.8936162,1986,2877,0_S
1789466203.895743,2072,2877,0_S
1789466203.898077,2080,2878,0_S
1789466203.902721,2033,2876,0_S
1789466203.903293,2106,2877,0_S
1789466203.903572,2145,2877,0_S
1789466203.906522,2148,2878,0_S
1789466203.907854,2044,2877,0_S
1789466203.908978,2011,2876,0_S
1789466203.9115698,1982,2876,0_S
1789466203.913908,2078,2878,0_S
1789466203.914987,2002,2877,0_S
1789466203.9173188,2041,2876,0_S
1789466203.91967,2061,2877,0_S
1789466203.921813,2120,2879,0_S
1789466203.9229472,2114,2878,0_S
1789466203.925526,2095,2878,0_S
1789466203.928103,2098,2878,0_S
1789466203.929418,2061,2877,0_S
1789466203.931744,2001,2876,0_S
1789466203.933084,1941,2878,0_S
1789466203.9354298,1992,2877,0_S
1789466203.938007,2058,2877,0_S
1789466203.939323,2105,2879,0_S
1789466203.941663,2062,2877,0_S
1789466203.943986,2059,2877,0_S
1789466203.94527,2153,2877,0_S
1789466203.9478452,2107,2878,0_S
1789466203.949161,2063,2877,0_S
1789466203.9515011,2119,2877,0_S
1789466203.9588969,2162,2880,0_S
1789466203.9600918,2147,2879,0_S
1789466203.960292,2017,2878,0_S
1789466203.962686,2097,2877,0_S
1789466203.962971,2064,2877,0_S
1789466203.9631958,2138,2879,0_S
1789466203.966235,2067,2879,0_S
1789466203.9678621,2023,2877,0_S
1789466203.969447,2101,2878,0_S
1789466203.971609,2113,2876,0_S
1789466203.9760818,2037,2875,0_S
1789466203.976379,2021,2877,0_S
1789466203.979545,2025,2877,0_S
1789466203.979863,2116,2877,0_S
1789466203.981185,2081,2878,0_S
1789466203.983757,1997,2877,0_S
1789466203.990866,2013,2878,0_S
1789466203.991575,2096,2877,0_S
1789466203.9927318,2163,2879,0_S
1789466203.99457,2162,2878,0_S
1789466203.994756,2095,2877,0_S
1789466203.9966311,2075,2878,0_S
1789466203.998089,2028,2878,0_S
1789466203.999671,2027,2876,0_S
1789466204.0027251,2103,2878,0_S
1789466204.007207,2098,2878,0_S
1789466204.007394,2001,2876,0_S
1789466204.007963,2011,2876,0_S
1789466204.010844,2066,2878,0_S
1789466204.011241,2102,2877,0_S
1789466204.013815,2159,2877,0_S
1789466204.01513,2005,2874,0_S
1789466204.017729,1989,2876,0_S
1789466204.019056,2072,2878,0_S
1789466204.021163,2120,2877,0_S
1789466204.023523,2189,2879,0_S
1789466204.025864,2080,2878,0_S
1789466204.027182,2057,2876,0_S
1789466204.029543,2191,2877,0_S
1789466204.031811,2105,2878,0_S
1789466204.0331662,2021,2877,0_S
1789466204.035525,2091,2877,0_S
1789466204.0378518,2180,2881,0_S
1789466204.0391731,2067,2875,0_S
1789466204.0412512,1994,2878,0_S
1789466204.043831,1999,2877,0_S
1789466204.045144,2024,2877,0_S
1789466204.0477161,2044,2878,0_S
1789466204.04982,1986,2875,0_S
1789466204.051278,2045,2877,0_S
1789466204.053979,2180,2880,0_S
1789466204.0556102,2140,2879,0_S
1789466204.0612092,2133,2878,0_S
1789466204.0618901,2051,2877,0_S
1789466204.062586,2102,2878,0_S
1789466204.064238,2106,2878,0_S
1789466204.0663948,1969,2876,0_S
1789466204.070265,2020,2877,0_S
1789466204.071674,2089,2878,0_S
1789466204.07276,2078,2876,0_S
1789466204.075027,2093,2878,0_S
1789466204.079413,2076,2877,0_S
1789466204.0796301,2099,2877,0_S
1789466204.079839,2107,2878,0_S
1789466204.083008,2155,2879,0_S
1789466204.083296,2041,2876,0_S
1789466204.0853992,2101,2878,0_S
1789466204.087732,2212,2879,0_S
1789466204.096411,2017,2877,0_S
1789466204.0982661,1996,2875,0_S
1789466204.098701,2054,2877,0_S
1789466204.1006851,2112,2878,0_S
1789466204.101294,2041,2877,0_S
1789466204.1019,2032,2875,0_S
1789466204.102119,2079,2877,0_S
1789466204.103582,2112,2877,0_S
1789466204.107129,2109,2879,0_S
1789466204.111508,2025,2875,0_S
1789466204.1117141,2088,2877,0_S
1789466204.112177,2197,2878,0_S
1789466204.1146371,2163,2877,0_S
1789466204.116062,1921,2875,0_S
1789466204.1173818,1861,2877,0_S
1789466204.119493,1975,2878,0_S
1789466204.1208801,2179,2879,0_S
1789466204.123223,2222,2878,0_S
1789466204.125556,2073,2878,0_S
1789466204.1268759,2065,2877,0_S
1789466204.129301,2080,2878,0_S
1789466204.1318479,2102,2880,0_S
1789466204.132923,2079,2876,0_S
1789466204.1350038,2126,2877,0_S
1789466204.137585,2042,2877,0_S
1789466204.1388988,2289,2878,0_S
1789466204.141066,2254,2877,0_S
1789466204.143639,1877,2875,0_S
1789466204.144873,1947,2875,0_S
1789466204.146952,1976,2876,0_S
1789466204.149036,2000,2876,0_S
1789466204.15115,2000,2876,0_S
1789466204.153506,2084,2876,0_S
1789466204.155829,2107,2878,0_S
1789466204.157141,2020,2877,0_S
1789466204.159463,1970,2877,0_S
1789466204.166535,2105,2878,0_S
1789466204.167211,2175,2878,0_S
1789466204.1679091,2271,2879,0_S
1789466204.1685572,2077,2877,0_S
1789466204.170367,2123,2878,0_S
1789466204.185882,2089,2877,0_S
1789466204.185951,1914,2876,0_S
1789466204.1860008,1953,2875,0_S
1789466204.18605,2050,2878,0_S
1789466204.1860979,2064,2878,0_S
1789466204.186145,2134,2877,0_S
1789466204.1861918,2109,2879,0_S
1789466204.186239,2032,2876,0_S
1789466204.189711,2021,2876,0_S
1789466204.190285,1989,2876,0_S
1789466204.22072,2103,2878,0_S
1789466204.220801,2078,2877,0_S
1789466204.220856,2037,2877,0_S
1789466204.220906,2105,2877,0_S
1789466204.220955,1948,2876,0_S
1789466204.221003,1852,2878,0_S
1789466204.221051,2269,2880,0_S
1789466204.223368,2150,2879,0_S
1789466204.223448,1924,2877,0_S
1789466204.223576,1924,2875,0_S
1789466204.223626,1881,2876,0_S
1789466204.223673,1846,2874,0_S
1789466204.2237592,1932,2876,0_S
1789466204.2238998,1893,2876,0_S
1789466204.2239602,2019,2877,0_S
1789466204.224032,2005,2876,0_S
1789466204.224083,2228,2878,0_S
1789466204.225423,2269,2878,0_S
1789466204.2278988,1991,2878,0_S
1789466204.2312808,2133,2878,0_S
1789466204.231346,2160,2879,0_S
1789466204.2329202,2065,2876,0_S
1789466204.236042,1996,2876,0_S
1789466204.237397,2081,2876,0_S
1789466204.239852,1994,2876,0_S
1789466204.2424388,2017,2878,0_S
1789466204.244305,2103,2877,0_S
1789466204.246308,2208,2878,0_S
1789466204.247384,2166,2878,0_S
1789466204.249495,2028,2876,0_S
1789466204.2511501,1957,2877,0_S
1789466204.253697,2047,2878,0_S
1789466204.255084,2004,2877,0_S
1789466204.25774,2060,2878,0_S
1789466204.258836,2066,2877,0_S
1789466204.2699609,1948,2877,0_S
1789466204.2719638,2011,2878,0_S
1789466204.27217,2006,2877,0_S
1789466204.274979,2029,2876,0_S
1789466204.276878,2041,2878,0_S
1789466204.2771468,2158,2879,0_S
1789466204.277815,2056,2878,0_S
1789466204.2785852,1959,2875,0_S
1789466204.279541,1967,2876,0_S
1789466204.288587,2046,2878,0_S
1789466204.289435,2095,2877,0_S
1789466204.292854,2030,2876,0_S
1789466204.292947,2037,2876,0_S
1789466204.2930639,2072,2877,0_S
1789466204.293131,2163,2879,0_S
1789466204.293229,2173,2877,0_S
1789466204.293292,2054,2877,0_S
1789466204.29586,2038,2877,0_S
1789466204.29695,2053,2878,0_S
1789466204.3045251,1959,2876,0_S
1789466204.3059368,2036,2878,0_S
1789466204.307229,2114,2877,0_S
1789466204.312028,2081,2879,0_S
1789466204.312937,1980,2876,0_S
1789466204.314112,1961,2877,0_S
1789466204.314825,2012,2877,0_S
1789466204.31863,2197,2878,0_S
1789466204.318954,2026,2877,0_S
1789466204.3227708,2005,2878,0_S
1789466204.323073,2035,2878,0_S
1789466204.32374,1964,2877,0_S
1789466204.324119,2007,2876,0_S
1789466204.327183,1912,2874,0_S
1789466204.327307,1966,2878,0_S
1789466204.3296902,2172,2877,0_S
1789466204.3310301,2059,2878,0_S
1789466204.333374,1942,2877,0_S
1789466204.335757,2025,2877,0_S
1789466204.337274,2103,2877,0_S
1789466204.339371,2109,2877,0_S
1789466204.3418932,2044,2879,0_S
1789466204.3432078,2040,2878,0_S
1789466204.3455412,2101,2877,0_S
1789466204.34766,2061,2878,0_S
1789466204.34898,1980,2877,0_S
1789466204.3515031,2089,2876,0_S
1789466204.353735,2118,2877,0_S
1789466204.355061,2134,2879,0_S
1789466204.357163,2029,2876,0_S
1789466204.359691,2021,2877,0_S
1789466204.361013,2060,2877,0_S
1789466204.3633852,2106,2877,0_S
1789466204.3654778,1969,2875,0_S
1789466204.367813,1909,2877,0_S
1789466204.368895,1989,2878,0_S
1789466204.37123,2056,2877,0_S
1789466204.3859258,2066,2876,0_S
1789466204.387815,2065,2878,0_S
1789466204.3959522,2017,2877,0_S
1789466204.39652,2084,2877,0_S
1789466204.396966,2047,2878,0_S
1789466204.400279,1989,2876,0_S
1789466204.40038,2029,2878,0_S
1789466204.400438,2092,2877,0_S
1789466204.400492,2102,2879,0_S
1789466204.400544,2071,2878,0_S
1789466204.400595,1974,2877,0_S
1789466204.40066,2110,2877,0_S
1789466204.4008179,2106,2878,0_S
1789466204.400946,1979,2877,0_S
1789466204.401088,2010,2878,0_S
1789466204.403569,2037,2877,0_S
1789466204.4117398,2081,2876,0_S
1789466204.413292,2133,2878,0_S
1789466204.416826,1693,2875,0_S
1789466204.4211562,2113,2877,0_S
1789466204.429365,2091,2877,0_S
1789466204.4298391,2021,2878,0_S
1789466204.430136,1958,2876,0_S
1789466204.43059,2059,2878,0_S
1789466204.431185,2121,2878,0_S
1789466204.431535,2046,2876,0_S
1789466204.434772,2062,2878,0_S
1789466204.434881,2007,2877,0_S
1789466204.434999,2064,2876,0_S
1789466204.435082,1946,2875,0_S
1789466204.435175,2023,2877,0_S
1789466204.435334,2138,2879,0_S
1789466204.437802,2076,2877,0_S
1789466204.438924,2032,2876,0_S
1789466204.4415412,2028,2875,0_S
1789466204.445112,2100,2878,0_S
1789466204.4452329,2088,2877,0_S
1789466204.447495,2094,2877,0_S
1789466204.449804,1965,2876,0_S
1789466204.4511979,1947,2876,0_S
1789466204.4534929,2017,2878,0_S
1789466204.455894,2152,2878,0_S
1789466204.457279,2117,2879,0_S
1789466204.460182,2120,2878,0_S
1789466204.4616551,2148,2877,0_S
1789466204.463126,2130,2877,0_S
1789466204.465559,1941,2876,0_S
1789466204.466985,1919,2876,0_S
1789466204.469453,1852,2877,0_S
1789466204.470869,2236,2879,0_S
1789466204.473351,2203,2878,0_S
1789466204.4757068,2200,2878,0_S
1789466204.477084,2023,2878,0_S
1789466204.479421,2277,2878,0_S
1789466204.486389,2125,2879,0_S
1789466204.4877949,2057,2876,0_S
1789466204.490963,1887,2878,0_S
1789466204.4947672,2270,2879,0_S
1789466204.495588,2967,2880,0_S
1789466204.497484,2208,2877,0_S
1789466204.498303,1608,2876,0_S
1789466204.5042381,2080,2878,0_S
1789466204.504873,1637,2875,0_S
1789466204.505537,1955,2878,0_S
1789466204.5089421,1814,2876,0_S
1789466204.509166,1854,2876,0_S
1789466204.5092769,1403,2875,0_S
1789466204.509394,1280,2875,0_S
1789466204.509472,1445,2875,0_S
1789466204.5108988,1764,2875,0_S
1789466204.5134022,2202,2879,0_S
1789466204.522202,2308,2878,0_S
1789466204.524975,2123,2878,0_S
1789466204.528206,2045,2876,0_S
1789466204.530648,2080,2876,0_S
1789466204.531487,2200,2879,0_S
1789466204.532127,2058,2878,0_S
1789466204.5343301,2026,2878,0_S
1789466204.5345302,2121,2878,0_S
1789466204.537684,2078,2878,0_S
1789466204.5378869,1992,2876,0_S
1789466204.538122,2067,2876,0_S
1789466204.5383449,2153,2879,0_S
1789466204.541433,2282,2879,0_S
1789466204.541684,2262,2878,0_S
1789466204.5430028,2321,2878,0_S
1789466204.545572,2463,2878,0_S
1789466204.5476758,2285,2878,0_S
1789466204.549,1879,2876,0_S
1789466204.551585,1695,2877,0_S
1789466204.5529,2134,2877,0_S
1789466204.555457,2252,2879,0_S
1789466204.557557,1986,2875,0_S
1789466204.558785,1942,2878,0_S
1789466204.561364,2328,2877,0_S
1789466204.5627148,1943,2878,0_S
1789466204.564926,1946,2876,0_S
1789466204.567501,1898,2877,0_S
1789466204.569847,2175,2877,0_S
1789466204.5710878,2129,2876,0_S
1789466204.57319,1937,2876,0_S
1789466204.575525,1876,2875,0_S
1789466204.577652,2283,2877,0_S
1789466204.578979,1974,2877,0_S
1789466204.5814972,1909,2875,0_S
1789466204.583595,2271,2878,0_S
1789466204.5847192,2342,2879,0_S
1789466204.587453,2441,2879,0_S
1789466204.594111,2406,2879,0_S
1789466204.5973918,1833,2875,0_S
1789466204.597832,1609,2875,0_S
1789466204.601042,1797,2875,0_S
1789466204.601799,1932,2875,0_S
1789466204.6029289,1820,2876,0_S
1789466204.603606,1778,2875,0_S
1789466204.603791,1743,2876,0_S
1789466204.6070468,2103,2879,0_S
1789466204.607319,2264,2879,0_S
1789466204.610376,2058,2878,0_S
1789466204.61374,2041,2878,0_S
1789466204.613835,2402,2879,0_S
1789466204.6151521,2348,2879,0_S
1789466204.617739,2677,2880,0_S
1789466204.619072,2086,2878,0_S
1789466204.6257422,1452,2875,0_S
1789466204.626986,1728,2877,0_S
1789466204.627699,2143,2878,0_S
1789466204.6295512,2000,2877,0_S
1789466204.629768,2032,2877,0_S
1789466204.6327412,1919,2878,0_S
1789466204.632898,1961,2876,0_S
1789466204.6376152,2073,2876,0_S
1789466204.6379688,2300,2879,0_S
1789466204.6408992,2613,2878,0_S
1789466204.641257,2279,2878,0_S
1789466204.6447191,2165,2878,0_S
1789466204.644931,2814,2879,0_S
1789466204.647525,2512,2879,0_S
1789466204.648737,1778,2875,0_S
1789466204.651478,1011,2876,0_S
1789466204.65364,1835,2876,0_S
1789466204.6550121,2828,2879,0_S
1789466204.657851,2511,2878,0_S
1789466204.659255,1235,2874,0_S
1789466204.6608472,1196,2875,0_S
1789466204.663029,1838,2875,0_S
1789466204.6653829,2669,2879,0_S
1789466204.6667662,3403,2883,0_S
1789466204.668874,1859,2876,0_S
1789466204.671229,894,2876,0_S
1789466204.673366,1385,2877,0_S
1789466204.67472,1715,2877,0_S
1789466204.677382,2003,2876,0_S
1789466204.6794739,2185,2878,0_S
1789466204.680908,2236,2879,0_S
1789466204.683528,2013,2878,0_S
1789466204.684853,2563,2880,0_S
1789466204.6874309,2233,2879,0_S
1789466204.6890292,2151,2876,0_S
1789466204.693147,1933,2878,0_S
1789466204.699975,2427,2880,0_S
1789466204.7002182,2388,2878,0_S
1789466204.70442,2121,2878,0_S
1789466204.706602,1593,2876,0_S
1789466204.7078888,1829,2875,0_S
1789466204.709732,2100,2876,0_S
1789466204.713727,2591,2879,0_S
1789466204.714068,3314,2881,0_S
1789466204.7175019,2667,2879,0_S
1789466204.718176,2180,2877,0_S
1789466204.718513,1772,2876,0_S
1789466204.7187572,1713,2875,0_S
1789466204.7189639,2153,2880,0_S
1789466204.719229,2764,2880,0_S
1789466204.7215,2630,2878,0_S
1789466204.723836,2723,2879,0_S
1789466204.72503,2336,2878,0_S
1789466204.727668,3169,2881,0_S
1789466204.739082,3313,2882,0_S
1789466204.739574,3320,2882,0_S
1789466204.739743,2113,2877,0_S
1789466204.743778,1481,2877,0_S
1789466204.745884,2640,2880,0_S
1789466204.7486331,2834,2880,0_S
1789466204.748906,2511,2879,0_S
1789466204.752471,2572,2879,0_S
1789466204.752904,3120,2882,0_S
1789466204.753202,2801,2879,0_S
1789466204.75365,3257,2883,0_S
1789466204.75398,3874,2883,0_S
1789466204.7541919,4078,2884,0_S
1789466204.75718,3869,2884,0_S
1789466204.757494,3828,2883,0_S
1789466204.7590668,3873,2884,0_S
1789466204.7616582,3896,2883,0_S
1789466204.7630038,3995,2884,0_S
1789466204.7653399,3696,2884,0_S
1789466204.76667,3458,2883,0_S
1789466204.769346,4095,2884,0_S
1789466204.771016,4095,2885,0_S
1789466204.7736058,3915,2884,0_S
1789466204.7746902,3326,2881,0_S
1789466204.777111,3505,2882,0_S
1789466204.779677,4010,2883,0_S
1789466204.780766,4095,2884,0_S
1789466204.783135,4095,2884,0_S
1789466204.785244,4055,2884,0_S
1789466204.7873359,3323,2881,0_S
1789466204.78955,2574,2879,0_S
1789466204.79087,2877,2880,0_S
1789466204.793514,3038,2881,0_S
1789466204.794828,3435,2881,0_S
1789466204.797159,3585,2882,0_S
1789466204.7994392,3595,2883,0_S
1789466204.8008,3799,2883,0_S
1789466204.803423,3750,2882,0_S
1789466204.810753,3557,2882,0_S
1789466204.811601,3563,2882,0_S
1789466204.811774,3703,2883,0_S
1789466204.8131242,3914,2884,0_S
1789466204.815299,3277,2881,0_S
1789466204.8155708,2707,2878,0_S
1789466204.819177,2638,2880,0_S
1789466204.819906,2926,2880,0_S
1789466204.821454,3187,2881,0_S
1789466204.824339,3384,2882,0_S
1789466204.827841,3956,2883,0_S
1789466204.828129,3408,2882,0_S
1789466204.831397,2703,2879,0_S
1789466204.831705,2859,2879,0_S
1789466204.832939,3789,2882,0_S
1789466204.8352242,3132,2881,0_S
1789466204.837037,2479,2879,0_S
1789466204.843348,2225,2877,0_S
1789466204.844619,2496,2879,0_S
1789466204.845403,2662,2879,0_S
1789466204.847801,2543,2879,0_S
1789466204.848258,2174,2879,0_S
1789466204.850591,2251,2878,0_S
1789466204.851237,2330,2878,0_S
1789466204.85326,2591,2880,0_S
1789466204.859883,2492,2879,0_S
1789466204.8602629,2575,2879,0_S
1789466204.860481,2577,2881,0_S
1789466204.860873,2438,2879,0_S
1789466204.8639638,2228,2878,0_S
1789466204.865078,1985,2875,0_S
1789466204.8675442,2043,2877,0_S
1789466204.868803,2384,2879,0_S
1789466204.8711958,2669,2879,0_S
1789466204.872711,2308,2878,0_S
1789466204.874932,2042,2878,0_S
1789466204.877515,2152,2878,0_S
1789466204.878835,2056,2877,0_S
1789466204.881422,1511,2875,0_S
1789466204.882614,1208,2876,0_S
1789466204.8849752,1218,2876,0_S
1789466204.8872588,1477,2876,0_S
1789466204.889589,1915,2875,0_S
1789466204.89091,1509,2875,0_S
1789466204.89323,711,2875,0_S
1789466204.894588,1207,2875,0_S
1789466204.8971672,1757,2875,0_S
1789466204.8985758,1550,2875,0_S
1789466204.90115,1219,2876,0_S
1789466204.903587,1366,2876,0_S
1789466204.9048982,1184,2876,0_S
1789466204.907252,1349,2874,0_S
1789466204.916071,950,2875,0_S
1789466204.916694,1164,2875,0_S
1789466204.918001,1167,2877,0_S
1789466204.919845,1110,2875,0_S
1789466204.920065,1393,2875,0_S
1789466204.920321,1292,2876,0_S
1789466204.92334,1224,2875,0_S
1789466204.925169,915,2875,0_S
1789466204.9253702,699,2875,0_S
1789466204.928852,490,2875,0_S
1789466204.9327629,712,2875,0_S
1789466204.932959,825,2875,0_S
1789466204.9331431,1200,2875,0_S
1789466204.936216,1273,2876,0_S
1789466204.937291,518,2875,0_S
1789466204.9396229,852,2875,0_S
1789466204.940695,1037,2874,0_S
1789466204.946825,1025,2875,0_S
1789466204.946996,1467,2874,0_S
1789466204.948204,959,2876,0_S
1789466204.951018,359,2876,0_S
1789466204.951327,524,2875,0_S
1789466204.953653,455,2875,0_S
1789466204.955744,571,2876,0_S
1789466204.95725,708,2875,0_S
1789466204.959518,711,2875,0_S
1789466204.9633229,757,2875,0_S
1789466204.963882,1067,2876,0_S
1789466204.96634,1140,2875,0_S
1789466204.967681,847,2876,0_S
1789466204.968999,1002,2875,0_S
1789466204.971346,1228,2877,0_S
1789466204.9737039,1142,2875,0_S
1789466204.9749749,989,2875,0_S
1789466204.977303,938,2874,0_S
1789466204.9796438,1104,2875,0_S
1789466204.98097,1479,2875,0_S
1789466204.9833221,1349,2876,0_S
1789466204.985408,1109,2876,0_S
1789466204.987516,1301,2875,0_S
1789466204.988843,1761,2876,0_S
1789466204.991174,1560,2876,0_S
1789466204.99352,1278,2875,0_S
1789466204.994837,1475,2876,0_S
1789466204.997165,1536,2875,0_S
1789466204.999585,1735,2876,0_S
1789466205.0006552,2328,2879,0_S
1789466205.002996,3196,2880,0_S
1789466205.005576,1589,2875,0_S
1789466205.006651,680,2875,0_S
1789466205.0089972,1510,2875,0_S
1789466205.011319,2176,2877,0_S
1789466205.0183182,1792,2875,0_S
1789466205.019056,1396,2875,0_S
1789466205.020183,1464,2876,0_S
1789466205.022088,1575,2875,0_S
1789466205.022403,1816,2875,0_S
1789466205.0226948,2156,2878,0_S
1789466205.026727,2341,2878,0_S
1789466205.027037,2310,2878,0_S
1789466205.0305421,2288,2879,0_S
1789466205.030777,2163,2879,0_S
1789466205.03484,1887,2877,0_S
1789466205.0352,1755,2875,0_S
1789466205.0384,1887,2877,0_S
1789466205.0397272,2260,2878,0_S
1789466205.041046,2280,2878,0_S
1789466205.0442162,2265,2878,0_S
1789466205.0512462,1939,2874,0_S
1789466205.052472,1867,2876,0_S
1789466205.053118,1620,2876,0_S
1789466205.055151,1602,2876,0_S
1789466205.055545,1570,2875,0_S
1789466205.059571,1549,2875,0_S
1789466205.061426,1681,2876,0_S
1789466205.06418,1710,2875,0_S
1789466205.069079,1792,2875,0_S
1789466205.069731,1882,2876,0_S
1789466205.070028,1929,2877,0_S
1789466205.07025,1902,2876,0_S
1789466205.07053,1877,2877,0_S
1789466205.070841,1826,2876,0_S
1789466205.074091,1901,2876,0_S
1789466205.0754812,1861,2875,0_S
1789466205.076573,1826,2875,0_S
1789466205.0791569,1955,2875,0_S
1789466205.080587,2163,2878,0_S
1789466205.0829499,2133,2878,0_S
1789466205.085301,1790,2875,0_S
1789466205.086638,1698,2876,0_S
1789466205.088746,1813,2876,0_S
1789466205.090861,1812,2876,0_S
1789466205.0929532,1781,2877,0_S
1789466205.095293,1782,2876,0_S
1789466205.097385,1875,2875,0_S
1789466205.0987,1815,2875,0_S
1789466205.1012821,1795,2875,0_S
1789466205.1027231,1880,2876,0_S
1789466205.105349,1956,2877,0_S
1789466205.106673,2007,2876,0_S
1789466205.10911,1957,2876,0_S
1789466205.111455,1892,2875,0_S
1789466205.112601,1975,2878,0_S
1789466205.1151738,1920,2875,0_S
1789466205.1166148,1817,2875,0_S
1789466205.119036,1861,2876,0_S
1789466205.1253061,1990,2877,0_S
1789466205.126008,2037,2876,0_S
1789466205.127263,2009,2876,0_S
1789466205.129628,1905,2876,0_S
1789466205.130021,1949,2878,0_S
1789466205.1329331,1952,2876,0_S
1789466205.134193,1889,2875,0_S
1789466205.1362538,1876,2876,0_S
1789466205.138418,1862,2876,0_S
1789466205.1425622,1979,2876,0_S
1789466205.142805,1940,2876,0_S
1789466205.143046,1905,2875,0_S
1789466205.1456351,1910,2875,0_S
1789466205.146972,2030,2878,0_S
1789466205.149303,1968,2875,0_S
1789466205.15062,1890,2876,0_S
1789466205.1575522,1969,2877,0_S
1789466205.157679,1990,2877,0_S
1789466205.159519,1967,2876,0_S
1789466205.159673,1915,2876,0_S
1789466205.162325,1879,2874,0_S
1789466205.1651,2024,2878,0_S
1789466205.165296,1943,2875,0_S
1789466205.1674209,1866,2876,0_S
1789466205.1704352,1883,2876,0_S
1789466205.174505,2015,2876,0_S
1789466205.1748428,2060,2877,0_S
1789466205.1751769,1967,2876,0_S
1789466205.17802,1902,2876,0_S
1789466205.179106,1987,2878,0_S
1789466205.1816902,2069,2878,0_S
1789466205.182776,1951,2876,0_S
1789466205.185119,1876,2876,0_S
1789466205.187314,1916,2876,0_S
1789466205.1886332,2025,2876,0_S
1789466205.190971,1969,2875,0_S
1789466205.193561,1955,2876,0_S
1789466205.194881,1929,2877,0_S
1789466205.197463,2017,2877,0_S
1789466205.198781,1885,2876,0_S
1789466205.200892,2029,2875,0_S
1789466205.203469,1993,2877,0_S
1789466205.204534,1990,2877,0_S
1789466205.2071161,1986,2876,0_S
1789466205.2094562,1910,2877,0_S
1789466205.2105339,1930,2876,0_S
1789466205.213108,2088,2878,0_S
1789466205.215199,2011,2877,0_S
1789466205.216516,1885,2876,0_S
1789466205.2188601,1892,2876,0_S
1789466205.221396,2000,2877,0_S
1789466205.228478,2065,2878,0_S
1789466205.229274,2061,2879,0_S
1789466205.229964,1887,2875,0_S
1789466205.230616,1906,2877,0_S
1789466205.231267,1992,2878,0_S
1789466205.2331562,1925,2875,0_S
1789466205.2360609,1900,2877,0_S
1789466205.237661,1924,2877,0_S
1789466205.2411,1979,2877,0_S
1789466205.241232,1957,2877,0_S
1789466205.245292,1954,2875,0_S
1789466205.245879,2040,2878,0_S
1789466205.248906,2135,2878,0_S
1789466205.249179,2031,2878,0_S
1789466205.2505448,1986,2875,0_S
1789466205.252894,2014,2877,0_S
1789466205.2602181,2084,2877,0_S
1789466205.26037,2027,2875,0_S
1789466205.261604,1948,2877,0_S
1789466205.262304,1870,2876,0_S
1789466205.264653,2002,2877,0_S
1789466205.265049,1939,2877,0_S
1789466205.267292,1842,2875,0_S
1789466205.2688792,1868,2876,0_S
1789466205.27266,1991,2877,0_S
1789466205.272906,2025,2877,0_S
1789466205.27683,1994,2877,0_S
1789466205.277071,1970,2878,0_S
1789466205.279658,2028,2877,0_S
1789466205.280758,2075,2877,0_S
1789466205.283106,2000,2877,0_S
1789466205.2852092,2019,2876,0_S
1789466205.287317,2076,2878,0_S
1789466205.288479,2170,2880,0_S
1789466205.291075,2075,2876,0_S
1789466205.29365,2002,2876,0_S
1789466205.2949681,2030,2878,0_S
1789466205.297547,2121,2877,0_S
1789466205.2988632,2018,2878,0_S
1789466205.301446,1894,2876,0_S
1789466205.302764,1963,2876,0_S
1789466205.305093,2044,2878,0_S
1789466205.307195,2090,2877,0_S
1789466205.308511,2087,2879,0_S
1789466205.3110862,2015,2879,0_S
1789466205.313416,2070,2877,0_S
1789466205.314494,1987,2878,0_S
1789466205.31658,1912,2876,0_S
1789466205.3191621,1956,2876,0_S
1789466205.320482,1960,2877,0_S
1789466205.3226008,2029,2877,0_S
1789466205.331614,2017,2875,0_S
1789466205.3324301,1970,2878,0_S
1789466205.3349152,1953,2877,0_S
1789466205.3354099,2057,2877,0_S
1789466205.337902,1990,2874,0_S
1789466205.339715,2027,2877,0_S
1789466205.340957,2068,2878,0_S
1789466205.342258,2119,2877,0_S
1789466205.344495,2017,2876,0_S
1789466205.344739,1996,2878,0_S
1789466205.348771,1965,2877,0_S
1789466205.349241,2073,2877,0_S
1789466205.349579,2022,2878,0_S
1789466205.352913,1975,2875,0_S
1789466205.3529868,1991,2877,0_S
1789466205.355576,2033,2877,0_S
1789466205.3569028,2059,2877,0_S
1789466205.3637109,2113,2878,0_S
1789466205.364504,2024,2877,0_S
1789466205.365207,2076,2877,0_S
1789466205.366354,1985,2878,0_S
1789466205.36818,1927,2877,0_S
1789466205.371116,1973,2877,0_S
1789466205.3723562,2052,2877,0_S
1789466205.373481,2101,2877,0_S
1789466205.376509,2029,2878,0_S
1789466205.380696,1922,2874,0_S
1789466205.381145,2027,2877,0_S
1789466205.381643,2169,2878,0_S
1789466205.3840268,2047,2878,0_S
1789466205.385565,2000,2877,0_S
1789466205.386642,2026,2876,0_S
1789466205.389227,2055,2877,0_S
1789466205.391337,1998,2876,0_S
1789466205.392652,1990,2874,0_S
1789466205.3950021,1999,2877,0_S
1789466205.397318,2079,2877,0_S
1789466205.39848,2007,2877,0_S
1789466205.401061,1962,2875,0_S
1789466205.403146,1976,2878,0_S
1789466205.4045079,2065,2878,0_S
1789466205.40685,2079,2878,0_S
1789466205.409324,2081,2879,0_S
1789466205.411676,2025,2879,0_S
1789466205.412752,2107,2877,0_S
1789466205.415067,2094,2877,0_S
1789466205.417401,2020,2876,0_S
1789466205.41872,2024,2877,0_S
1789466205.421403,2055,2877,0_S
1789466205.422718,2114,2877,0_S
1789466205.425298,2069,2878,0_S
1789466205.426612,2005,2878,0_S
1789466205.434104,2045,2877,0_S
1789466205.43479,2161,2877,0_S
1789466205.435422,1985,2876,0_S
1789466205.435997,1880,2876,0_S
1789466205.4390569,2028,2877,0_S
1789466205.4415622,2100,2877,0_S
1789466205.442234,2070,2877,0_S
1789466205.443702,1962,2876,0_S
1789466205.447205,1907,2873,0_S
1789466205.447427,2083,2877,0_S
1789466205.451402,1999,2878,0_S
1789466205.451652,1980,2875,0_S
1789466205.4548,2066,2876,0_S
1789466205.455054,2174,2877,0_S
1789466205.4574,2169,2879,0_S
1789466205.458714,2088,2877,0_S
1789466205.466062,2057,2878,0_S
1789466205.466709,2147,2877,0_S
1789466205.467382,2099,2878,0_S
1789466205.4680169,2014,2876,0_S
1789466205.470531,1940,2877,0_S
1789466205.4707189,2002,2877,0_S
1789466205.473399,1991,2876,0_S
1789466205.47549,1946,2877,0_S
1789466205.4822001,1934,2874,0_S
1789466205.482662,2003,2877,0_S
1789466205.483239,2093,2877,0_S
1789466205.486613,2029,2878,0_S
1789466205.486849,1987,2876,0_S
1789466205.486971,2093,2877,0_S
1789466205.4896388,2135,2878,0_S
1789466205.490987,2092,2875,0_S
1789466205.493633,2026,2878,0_S
1789466205.4951198,2085,2876,0_S
1789466205.496462,2157,2877,0_S
1789466205.498842,2140,2877,0_S
1789466205.5011961,2031,2874,0_S
1789466205.502517,2038,2877,0_S
1789466205.505111,2086,2877,0_S
1789466205.507541,2141,2877,0_S
1789466205.508856,2042,2875,0_S
1789466205.510967,1895,2876,0_S
1789466205.513062,1971,2877,0_S
1789466205.515399,1952,2877,0_S
1789466205.516777,2008,2878,0_S
1789466205.519368,1974,2876,0_S
1789466205.5204911,2015,2877,0_S
1789466205.522837,2079,2876,0_S
1789466205.525258,2123,2878,0_S
1789466205.527361,2026,2878,0_S
1789466205.528679,2022,2877,0_S
1789466205.531005,2176,2877,0_S
1789466205.539317,2047,2878,0_S
1789466205.5405009,1962,2876,0_S
1789466205.542515,2069,2877,0_S
1789466205.542741,2201,2880,0_S
1789466205.542946,2157,2879,0_S
1789466205.545443,2020,2875,0_S
1789466205.5456,1999,2878,0_S
1789466205.5476742,2118,2877,0_S
1789466205.5491898,2047,2878,0_S
1789466205.551426,1927,2876,0_S
1789466205.555369,1939,2876,0_S
1789466205.555677,2018,2876,0_S
1789466205.5585961,2066,2876,0_S
1789466205.558978,2072,2879,0_S
1789466205.5611699,2023,2877,0_S
1789466205.563812,2149,2877,0_S
1789466205.569661,2128,2877,0_S
1789466205.5710459,2013,2875,0_S
1789466205.572255,2028,2878,0_S
1789466205.574315,2098,2878,0_S
1789466205.574621,2208,2879,0_S
1789466205.577013,2152,2878,0_S
1789466205.577665,1978,2878,0_S
1789466205.5797231,2067,2877,0_S
1789466205.5829902,2070,2878,0_S
1789466205.5867038,1950,2877,0_S
1789466205.5869288,1956,2876,0_S
1789466205.5872371,2054,2876,0_S
1789466205.590272,2146,2879,0_S
1789466205.591587,2024,2875,0_S
1789466205.5929081,1942,2876,0_S
1789466205.595484,2111,2877,0_S
1789466205.59684,2190,2877,0_S
1789466205.599206,2044,2878,0_S
1789466205.600522,1964,2875,0_S
1789466205.6031091,2000,2876,0_S
1789466205.604464,2032,2878,0_S
1789466205.6067939,1999,2875,0_S
1789466205.6091242,2052,2878,0_S
1789466205.6116989,1992,2877,0_S
1789466205.6129391,1895,2874,0_S
1789466205.615511,2048,2878,0_S
1789466205.616585,2050,2879,0_S
1789466205.619164,2048,2876,0_S
1789466205.621676,2083,2876,0_S
1789466205.622974,2061,2877,0_S
1789466205.625303,2008,2877,0_S
1789466205.627639,2063,2878,0_S
1789466205.628951,2151,2877,0_S
1789466205.631337,2167,2877,0_S
1789466205.6326542,2195,2878,0_S
1789466205.634996,1835,2876,0_S
1789466205.641793,1987,2876,0_S
1789466205.642556,1997,2878,0_S
1789466205.643187,2321,2879,0_S
1789466205.645856,2059,2878,0_S
1789466205.646046,2037,2877,0_S
1789466205.6484008,2181,2877,0_S
1789466205.650066,2180,2879,0_S
1789466205.6520262,2127,2879,0_S
1789466205.6576781,2125,2877,0_S
1789466205.657998,2128,2876,0_S
1789466205.6582038,2080,2876,0_S
1789466205.6612532,2065,2879,0_S
1789466205.661602,2009,2877,0_S
1789466205.6629279,2106,2877,0_S
1789466205.665507,1968,2878,0_S
1789466205.672416,2012,2876,0_S
1789466205.673645,1831,2877,0_S
1789466205.67385,2061,2877,0_S
1789466205.676043,2141,2878,0_S
1789466205.676406,2134,2880,0_S
1789466205.676652,2072,2877,0_S
1789466205.6803572,2080,2878,0_S
1789466205.6810062,2077,2877,0_S
1789466205.682503,2046,2879,0_S
1789466205.684692,2059,2877,0_S
1789466205.688517,2145,2877,0_S
1789466205.68902,2161,2877,0_S
1789466205.692082,2078,2876,0_S
1789466205.693166,2086,2878,0_S
1789466205.694491,1948,2877,0_S
1789466205.696585,2189,2877,0_S
1789466205.698813,2119,2877,0_S
1789466205.701169,1802,2877,0_S
1789466205.703516,1975,2878,0_S
1789466205.704853,2242,2880,0_S
1789466205.7073112,2167,2880,0_S
1789466205.70945,2139,2878,0_S
1789466205.7107809,2032,2878,0_S
1789466205.713085,2035,2877,0_S
1789466205.71523,2062,2878,0_S
1789466205.717559,2029,2875,0_S
1789466205.718634,2071,2876,0_S
1789466205.721212,2066,2878,0_S
1789466205.722529,2120,2879,0_S
1789466205.724868,2061,2878,0_S
1789466205.727214,2045,2877,0_S
1789466205.72853,2082,2877,0_S
1789466205.7308679,2200,2878,0_S
1789466205.732974,2004,2875,0_S
1789466205.735553,1995,2877,0_S
1789466205.736872,2071,2877,0_S
1789466205.744336,2115,2877,0_S
1789466205.7471948,2095,2878,0_S
1789466205.7474098,1968,2875,0_S
1789466205.7477062,2025,2877,0_S
1789466205.749645,2125,2878,0_S
1789466205.7508512,2027,2878,0_S
1789466205.752087,1960,2877,0_S
1789466205.7542799,2096,2878,0_S
1789466205.756475,2083,2877,0_S
1789466205.759875,2074,2877,0_S
1789466205.760106,2051,2878,0_S
1789466205.7631848,2004,2877,0_S
1789466205.7636092,2137,2877,0_S
1789466205.7647,2155,2878,0_S
1789466205.76686,2059,2879,0_S
1789466205.774286,2001,2878,0_S
1789466205.7755709,2086,2877,0_S
1789466205.776232,2047,2876,0_S
1789466205.778608,2085,2879,0_S
1789466205.778826,2016,2877,0_S
1789466205.7792158,1988,2877,0_S
1789466205.781607,2198,2877,0_S
1789466205.784215,1977,2874,0_S
1789466205.787292,2001,2877,0_S
1789466205.787482,2071,2877,0_S
1789466205.793039,2116,2878,0_S
1789466205.793695,2112,2878,0_S
1789466205.794,2007,2877,0_S
1789466205.7950668,2009,2877,0_S
