timestamp,ch1,ch2,label
1789466411.437994,2019,2877,2
1789466411.4382138,2104,2878,2
1789466411.438358,2115,2880,2
1789466411.440118,2080,2878,2
1789466411.442008,2028,2877,2
1789466411.443743,2045,2877,2
1789466411.445728,2092,2878,2
1789466411.44829,2046,2876,2
1789466411.449611,2026,2878,2
1789466411.452171,2027,2878,2
1789466411.453469,2074,2877,2
1789466411.456026,2114,2879,2
1789466411.458352,2045,2878,2
1789466411.4593961,2051,2877,2
1789466411.4616792,2058,2878,2
1789466411.463988,2088,2879,2
1789466411.465277,2040,2877,2
1789466411.467548,2054,2877,2
1789466411.4698508,2079,2877,2
1789466411.4719172,2098,2879,2
1789466411.473208,2041,2876,2
1789466411.477547,2024,2877,2
1789466411.478333,2053,2877,2
1789466411.4798,2071,2878,2
1789466411.4816582,2022,2878,2
1789466411.484202,2051,2878,2
1789466411.486214,2104,2878,2
1789466411.487264,2093,2876,2
1789466411.4894102,2073,2878,2
1789466411.491741,2032,2878,2
1789466411.4940429,2054,2877,2
1789466411.495334,2102,2878,2
1789466411.497886,2043,2877,2
1789466411.499271,2021,2878,2
1789466411.501816,2032,2877,2
1789466411.5031989,2098,2878,2
1789466411.505744,2070,2878,2
1789466411.508287,2076,2877,2
1789466411.509575,2059,2877,2
1789466411.511942,2051,2877,2
1789466411.516403,2045,2878,2
1789466411.517489,2014,2877,2
1789466411.517635,2041,2876,2
1789466411.5193138,2111,2878,2
1789466411.5236852,2134,2879,2
1789466411.52387,2064,2879,2
1789466411.526324,2061,2877,2
1789466411.52762,2069,2877,2
1789466411.530168,2050,2878,2
1789466411.531248,1989,2877,2
1789466411.533568,1998,2877,2
1789466411.536124,2042,2878,2
1789466411.5374222,2055,2877,2
1789466411.539671,2035,2878,2
1789466411.541982,2008,2877,2
1789466411.544289,2046,2878,2
1789466411.545331,2066,2878,2
1789466411.547889,2050,2877,2
1789466411.5492322,2025,2879,2
1789466411.551295,2026,2877,2
1789466411.553351,2133,2879,2
1789466411.559503,2136,2878,2
1789466411.559972,2061,2877,2
1789466411.560651,2021,2878,2
1789466411.5631628,2099,2878,2
1789466411.563545,2102,2878,2
1789466411.566438,2033,2877,2
1789466411.5688581,2045,2877,2
1789466411.570152,2073,2878,2
1789466411.571265,2112,2879,2
1789466411.573768,2051,2878,2
1789466411.576322,2052,2877,2
1789466411.577612,2027,2877,2
1789466411.579978,2039,2878,2
1789466411.581268,2000,2876,2
1789466411.583384,2038,2878,2
1789466411.585684,2080,2878,2
1789466411.58806,2078,2876,2
1789466411.5892942,2051,2878,2
1789466411.591379,2009,2877,2
1789466411.59375,2049,2877,2
1789466411.5961978,2112,2879,2
1789466411.603018,2049,2875,2
1789466411.6043022,2022,2878,2
1789466411.604498,2076,2877,2
1789466411.604672,2093,2877,2
1789466411.606534,2117,2878,2
1789466411.6083462,2069,2877,2
1789466411.612489,2057,2877,2
1789466411.612561,2101,2877,2
1789466411.6140292,2090,2878,2
1789466411.615216,1965,2876,2
1789466411.6175308,2064,2877,2
1789466411.620103,2102,2878,2
1789466411.621268,2113,2879,2
1789466411.6236658,2091,2877,2
1789466411.625972,2063,2877,2
1789466411.628281,2043,2877,2
1789466411.6294029,2031,2878,2
1789466411.6316311,2001,2878,2
1789466411.6339421,2034,2878,2
1789466411.63539,2089,2878,2
1789466411.6380239,2081,2877,2
1789466411.6392949,2051,2878,2
1789466411.641917,2038,2877,2
1789466411.64709,2049,2878,2
1789466411.64766,2094,2878,2
1789466411.6488671,2056,2876,2
1789466411.650177,2064,2877,2
1789466411.653306,2076,2878,2
1789466411.65344,2088,2877,2
1789466411.655809,2092,2878,2
1789466411.6583538,2048,2877,2
1789466411.659657,2028,2877,2
1789466411.661966,2106,2878,2
1789466411.663269,2085,2878,2
1789466411.665832,2006,2876,2
1789466411.667242,2030,2878,2
1789466411.669479,2065,2879,2
1789466411.671718,2111,2878,2
1789466411.673831,2061,2878,2
1789466411.6752121,2024,2877,2
1789466411.677537,2068,2877,2
1789466411.679842,2096,2878,2
1789466411.682144,2064,2877,2
1789466411.68322,2051,2877,2
1789466411.6858659,1999,2878,2
1789466411.687327,2112,2877,2
1789466411.6896,2122,2878,2
1789466411.6943722,2051,2877,2
1789466411.6948469,2050,2877,2
1789466411.697098,2079,2878,2
1789466411.69732,2035,2876,2
1789466411.7005901,2008,2877,2
1789466411.702674,2045,2877,2
1789466411.70536,2101,2877,2
1789466411.705944,2082,2878,2
1789466411.7080262,2026,2877,2
1789466411.709551,2034,2878,2
1789466411.711874,2098,2878,2
1789466411.71397,2065,2877,2
1789466411.7152672,2027,2876,2
1789466411.7173362,2065,2877,2
1789466411.719888,2106,2877,2
1789466411.7212229,2151,2879,2
1789466411.72386,2093,2877,2
1789466411.726156,2076,2877,2
1789466411.7272499,2064,2877,2
1789466411.7293382,2072,2878,2
1789466411.731394,2133,2879,2
1789466411.733717,2066,2877,2
1789466411.736049,2054,2876,2
1789466411.7372742,2114,2878,2
1789466411.7434082,2175,2878,2
1789466411.743527,2129,2877,2
1789466411.743967,2006,2878,2
1789466411.746316,2060,2876,2
1789466411.749791,2013,2877,2
1789466411.749973,2090,2877,2
1789466411.7517262,2248,2881,2
1789466411.755106,2342,2879,2
1789466411.755203,2147,2878,2
1789466411.757518,1968,2876,2
1789466411.763125,1978,2875,2
1789466411.7635682,2206,2879,2
1789466411.7640362,2059,2876,2
1789466411.7659352,1869,2876,2
1789466411.769879,2077,2877,2
1789466411.771317,1943,2877,2
1789466411.771489,1722,2877,2
1789466411.774424,1740,2874,2
1789466411.775747,3187,2881,2
1789466411.778136,3043,2880,2
1789466411.779238,1447,2875,2
1789466411.78157,1382,2877,2
1789466411.78388,1857,2877,2
1789466411.785221,1890,2877,2
1789466411.787539,2248,2879,2
1789466411.789833,2000,2878,2
1789466411.791258,1633,2876,2
1789466411.793812,1891,2877,2
1789466411.7961211,2356,2878,2
1789466411.797415,1931,2877,2
1789466411.799485,2131,2878,2
1789466411.801831,2113,2877,2
1789466411.8043,2200,2877,2
1789466411.8053818,1918,2875,2
1789466411.810185,1951,2878,2
1789466411.810312,1955,2878,2
1789466411.8127842,2028,2877,2
1789466411.8145301,2840,2879,2
1789466411.816683,2647,2879,2
1789466411.818588,1918,2877,2
1789466411.819718,1846,2877,2
1789466411.8218791,1823,2877,2
1789466411.823214,1664,2875,2
1789466411.825939,1735,2876,2
1789466411.8300521,1734,2877,2
1789466411.830196,1755,2877,2
1789466411.8328278,1788,2875,2
1789466411.834342,2071,2878,2
1789466411.8381069,2295,2880,2
1789466411.8382778,2409,2879,2
1789466411.839684,2349,2879,2
1789466411.841702,2234,2878,2
1789466411.8442612,2082,2878,2
1789466411.8454568,2097,2878,2
1789466411.8480158,1900,2874,2
1789466411.84931,1922,2876,2
1789466411.851775,2081,2876,2
1789466411.854346,2241,2879,2
1789466411.855453,2272,2878,2
1789466411.8580081,2311,2878,2
1789466411.859324,2007,2878,2
1789466411.86189,1930,2879,2
1789466411.8631968,1852,2877,2
1789466411.865516,1911,2877,2
1789466411.8678389,2123,2877,2
1789466411.870198,2129,2877,2
1789466411.871506,2131,2879,2
1789466411.874146,2057,2877,2
1789466411.8787358,2020,2877,2
1789466411.879338,2097,2878,2
1789466411.879787,2047,2878,2
1789466411.881887,1885,2877,2
1789466411.8837178,2051,2878,2
1789466411.8875258,2265,2879,2
1789466411.8890681,2163,2879,2
1789466411.890947,2010,2878,2
1789466411.892253,2044,2878,2
1789466411.893552,2055,2878,2
1789466411.899298,2018,2876,2
1789466411.9000819,1965,2877,2
1789466411.900563,2005,2877,2
1789466411.903062,2035,2877,2
1789466411.9054248,2046,2876,2
1789466411.905893,2008,2878,2
1789466411.9086668,2067,2877,2
1789466411.911018,2080,2877,2
1789466411.912318,2312,2879,2
1789466411.9136262,2284,2880,2
1789466411.915971,2108,2877,2
1789466411.9181051,2275,2880,2
1789466411.9192169,2884,2881,2
1789466411.921508,1981,2876,2
1789466411.9240692,1453,2874,2
1789466411.925222,1594,2876,2
1789466411.927537,2136,2878,2
1789466411.929852,2280,2878,2
1789466411.9312189,1736,2876,2
1789466411.933533,1666,2877,2
1789466411.935683,1630,2876,2
1789466411.937988,1921,2876,2
1789466411.939285,2128,2879,2
1789466411.941598,2218,2878,2
1789466411.9475389,2099,2878,2
1789466411.949147,1970,2878,2
1789466411.950486,1987,2876,2
1789466411.950718,1985,2877,2
1789466411.952395,2073,2877,2
1789466411.9542148,2283,2879,2
1789466411.9564228,2388,2878,2
1789466411.95808,2393,2879,2
1789466411.959897,2207,2877,2
1789466411.9622169,1890,2875,2
1789466411.96327,1681,2877,2
1789466411.967785,1951,2877,2
1789466411.968272,1790,2876,2
1789466411.970604,1990,2877,2
1789466411.972565,2001,2878,2
1789466411.976154,2350,2878,2
1789466411.976324,2255,2878,2
1789466411.977907,1750,2875,2
1789466411.979666,2002,2877,2
1789466411.981843,2420,2880,2
1789466411.983246,2410,2879,2
1789466411.9856691,2175,2879,2
1789466411.987932,1982,2878,2
1789466411.989249,1974,2878,2
1789466411.991819,2072,2878,2
1789466411.994504,2131,2879,2
1789466411.995565,2020,2876,2
1789466411.997629,2097,2877,2
1789466411.999799,1825,2878,2
1789466412.002156,2427,2880,2
1789466412.003257,1764,2875,2
1789466412.0056179,1479,2876,2
1789466412.007686,2022,2879,2
1789466412.01024,2300,2878,2
1789466412.0115478,2324,2878,2
1789466412.01703,2336,2880,2
1789466412.0178418,2427,2879,2
1789466412.019549,2380,2879,2
1789466412.019694,2402,2878,2
1789466412.023008,2232,2878,2
1789466412.025113,1976,2876,2
1789466412.026716,2220,2878,2
1789466412.029064,2059,2878,2
1789466412.0302238,2116,2878,2
1789466412.031532,1743,2876,2
1789466412.0369642,1640,2876,2
1789466412.037523,1974,2876,2
1789466412.037997,2551,2881,2
1789466412.039679,2800,2879,2
1789466412.041601,2592,2878,2
1789466412.04362,1765,2875,2
1789466412.0470898,1815,2876,2
1789466412.04754,2436,2879,2
1789466412.0503502,2590,2880,2
1789466412.051703,1908,2876,2
1789466412.0537941,2072,2878,2
1789466412.055871,2114,2878,2
1789466412.0572338,1802,2875,2
1789466412.0595589,1733,2877,2
1789466412.062121,2193,2879,2
1789466412.063423,2946,2879,2
1789466412.065739,2603,2880,2
1789466412.0680451,2023,2875,2
1789466412.070236,2800,2880,2
1789466412.07139,2350,2879,2
1789466412.073699,1988,2876,2
1789466412.075896,2411,2879,2
1789466412.0772438,2397,2878,2
1789466412.079805,2076,2878,2
1789466412.085377,1850,2875,2
1789466412.085904,1745,2877,2
1789466412.086387,2351,2879,2
1789466412.088842,2576,2879,2
1789466412.0910358,2258,2878,2
1789466412.0924459,2403,2878,2
1789466412.094666,2685,2880,2
1789466412.0966341,2473,2879,2
1789466412.0985248,2056,2876,2
1789466412.099591,2158,2877,2
1789466412.102162,1937,2876,2
1789466412.106836,2089,2876,2
1789466412.108043,2528,2879,2
1789466412.1093,2447,2878,2
1789466412.109559,1841,2877,2
1789466412.1130922,2135,2878,2
1789466412.115062,2176,2879,2
1789466412.116971,2461,2879,2
1789466412.119076,2280,2879,2
1789466412.12015,1910,2876,2
1789466412.122463,2002,2876,2
1789466412.123771,2403,2878,2
1789466412.126108,2220,2879,2
1789466412.128428,2733,2878,2
1789466412.129735,2665,2879,2
1789466412.1322932,2215,2878,2
1789466412.133589,2480,2879,2
1789466412.135745,2737,2880,2
1789466412.138301,2218,2879,2
1789466412.139601,1671,2876,2
1789466412.14212,2036,2878,2
1789466412.1444402,3682,2883,2
1789466412.145735,2197,2879,2
1789466412.148294,1107,2875,2
1789466412.14959,1867,2876,2
1789466412.155312,2385,2877,2
1789466412.1557708,2253,2876,2
1789466412.1568651,2302,2879,2
1789466412.1598752,2034,2878,2
1789466412.160326,2041,2877,2
1789466412.1623302,1970,2877,2
1789466412.163845,2285,2878,2
1789466412.1658938,2388,2879,2
1789466412.1677551,2434,2880,2
1789466412.170092,2316,2880,2
1789466412.1760378,2410,2880,2
1789466412.1761868,2373,2878,2
1789466412.17662,2430,2879,2
1789466412.1785312,2940,2880,2
1789466412.180701,2576,2879,2
1789466412.182424,1791,2877,2
1789466412.184201,1693,2877,2
1789466412.186346,1611,2878,2
1789466412.188542,1572,2877,2
1789466412.190007,2192,2878,2
1789466412.192318,2304,2879,2
1789466412.193383,1471,2877,2
1789466412.19594,1019,2875,2
1789466412.19825,1491,2876,2
1789466412.1995468,2137,2878,2
1789466412.201867,2398,2878,2
1789466412.204182,2320,2879,2
1789466412.2054799,2545,2879,2
1789466412.2077818,2646,2881,2
1789466412.210346,2179,2878,2
1789466412.2113972,2495,2880,2
1789466412.213724,2641,2879,2
1789466412.216286,2666,2881,2
1789466412.2175832,2416,2878,2
1789466412.219733,2277,2878,2
1789466412.22447,1979,2876,2
1789466412.2253702,1489,2875,2
1789466412.2259562,2702,2880,2
1789466412.227637,2619,2879,2
1789466412.231128,2465,2878,2
1789466412.2329018,1832,2877,2
1789466412.235268,2256,2877,2
1789466412.235496,2673,2880,2
1789466412.238158,2630,2880,2
1789466412.239456,2085,2878,2
1789466412.2449431,1678,2874,2
1789466412.2461782,2179,2878,2
1789466412.247909,2808,2880,2
1789466412.248052,2630,2880,2
1789466412.250758,2868,2880,2
1789466412.2535522,2312,2878,2
1789466412.253702,1824,2876,2
1789466412.256047,1878,2878,2
1789466412.258344,2595,2880,2
1789466412.259437,2550,2878,2
1789466412.261533,2372,2878,2
1789466412.264141,2017,2878,2
1789466412.265446,1692,2874,2
1789466412.267788,2289,2878,2
1789466412.270454,2435,2879,2
1789466412.271789,2644,2880,2
1789466412.2741172,2726,2880,2
1789466412.276439,2508,2878,2
1789466412.277493,2098,2878,2
1789466412.279809,1963,2877,2
1789466412.282144,1675,2876,2
1789466412.28446,2105,2877,2
1789466412.2855182,2745,2880,2
1789466412.287838,2434,2879,2
1789466412.290285,2513,2878,2
1789466412.295776,1892,2877,2
1789466412.296726,1392,2874,2
1789466412.297195,2242,2878,2
1789466412.298645,2506,2880,2
1789466412.3001568,1671,2876,2
1789466412.30195,1939,2877,2
1789466412.304244,2761,2880,2
1789466412.3088582,2361,2878,2
1789466412.30912,2180,2878,2
1789466412.310427,1448,2876,2
1789466412.311729,2328,2878,2
1789466412.31625,2475,2879,2
1789466412.3170261,2344,2880,2
1789466412.3193338,2070,2876,2
1789466412.319502,1967,2876,2
1789466412.323047,2212,2880,2
1789466412.324828,2418,2879,2
1789466412.327432,2402,2878,2
1789466412.327671,1954,2878,2
1789466412.329765,2207,2878,2
1789466412.332093,2153,2879,2
1789466412.333397,2097,2877,2
1789466412.335478,2225,2877,2
1789466412.337791,2560,2879,2
1789466412.3401,2274,2878,2
1789466412.341405,2088,2878,2
1789466412.343961,1987,2878,2
1789466412.34653,2049,2878,2
1789466412.347831,2222,2879,2
1789466412.350147,2359,2879,2
1789466412.352216,1721,2877,2
1789466412.3535218,2028,2876,2
1789466412.355607,2228,2879,2
1789466412.358173,2558,2879,2
1789466412.36026,1815,2875,2
1789466412.361558,2337,2879,2
1789466412.366954,2485,2879,2
1789466412.3674722,2311,2878,2
1789466412.367936,2281,2879,2
1789466412.369955,2061,2877,2
1789466412.37219,2544,2879,2
1789466412.3742101,2545,2879,2
1789466412.375871,1874,2875,2
1789466412.378879,1878,2876,2
1789466412.381461,2280,2878,2
1789466412.381505,2121,2878,2
1789466412.383818,2264,2878,2
1789466412.3896918,2047,2876,2
1789466412.390592,2139,2879,2
1789466412.391003,2036,2877,2
1789466412.39275,1947,2876,2
1789466412.3944142,2241,2881,2
1789466412.395751,2080,2878,2
1789466412.3982542,2370,2878,2
1789466412.401006,2034,2877,2
1789466412.403338,2102,2876,2
1789466412.4034061,1924,2877,2
1789466412.405717,2149,2877,2
1789466412.408288,2464,2879,2
1789466412.4095922,2533,2879,2
1789466412.411912,2183,2878,2
1789466412.414473,1957,2877,2
1789466412.415773,2212,2878,2
1789466412.418326,2598,2880,2
1789466412.419481,2368,2879,2
1789466412.421788,2186,2879,2
1789466412.423873,2073,2879,2
1789466412.4262028,2049,2878,2
1789466412.4285471,1906,2875,2
1789466412.429846,1611,2875,2
1789466412.4321659,2453,2878,2
1789466412.433467,2243,2878,2
1789466412.435798,1879,2876,2
1789466412.441188,1729,2877,2
1789466412.44176,2264,2879,2
1789466412.443087,2110,2878,2
1789466412.444511,2183,2878,2
1789466412.447092,2251,2878,2
1789466412.448996,2490,2880,2
1789466412.453818,2127,2879,2
1789466412.4543202,1951,2876,2
1789466412.4546409,2185,2876,2
1789466412.456363,2588,2879,2
1789466412.457667,2660,2879,2
1789466412.459917,2016,2878,2
1789466412.465641,2081,2878,2
1789466412.4669352,2175,2878,2
1789466412.467488,1769,2876,2
1789466412.469086,2359,2879,2
1789466412.4714408,2293,2878,2
1789466412.4724522,2353,2879,2
1789466412.475531,2200,2879,2
1789466412.4788349,1856,2875,2
1789466412.4790049,2174,2878,2
1789466412.481367,2157,2877,2
1789466412.481611,1683,2875,2
1789466412.483933,1872,2877,2
1789466412.4864461,2155,2880,2
1789466412.487514,1966,2876,2
1789466412.489841,2078,2878,2
1789466412.492161,2135,2878,2
1789466412.493461,2271,2879,2
1789466412.496019,2156,2879,2
1789466412.498355,2189,2877,2
1789466412.4996731,2165,2876,2
1789466412.5022311,2096,2878,2
1789466412.503531,2355,2880,2
1789466412.5060868,2225,2878,2
1789466412.508283,1921,2878,2
1789466412.5094411,2506,2879,2
1789466412.511765,1946,2875,2
1789466412.514168,1990,2877,2
1789466412.516393,1969,2877,2
1789466412.520927,2251,2879,2
1789466412.521421,1556,2877,2
1789466412.522319,1965,2876,2
1789466412.524003,2421,2878,2
1789466412.526103,2333,2879,2
1789466412.52747,1952,2878,2
1789466412.529589,1617,2875,2
1789466412.532641,2342,2879,2
1789466412.534831,2466,2879,2
1789466412.53613,1861,2876,2
1789466412.538375,2058,2877,2
1789466412.542752,1866,2876,2
1789466412.5432909,2025,2878,2
1789466412.5437062,2396,2879,2
1789466412.547392,2284,2878,2
1789466412.5479522,2010,2877,2
1789466412.549839,2039,2877,2
1789466412.551449,2356,2879,2
1789466412.554802,2405,2879,2
1789466412.557046,1802,2875,2
1789466412.55812,2188,2878,2
1789466412.5594292,2175,2878,2
1789466412.561999,2041,2878,2
1789466412.563366,2084,2879,2
1789466412.5656772,2040,2877,2
1789466412.567967,2337,2879,2
1789466412.569371,2002,2877,2
1789466412.5716999,2162,2879,2
1789466412.574255,2031,2878,2
1789466412.575552,1922,2878,2
1789466412.578112,2077,2878,2
1789466412.580419,2274,2878,2
1789466412.581467,2185,2879,2
1789466412.583647,1960,2876,2
1789466412.586058,2016,2876,2
1789466412.587357,2112,2877,2
1789466412.5948522,2259,2879,2
1789466412.595453,2121,2878,2
1789466412.596426,1973,2877,2
1789466412.597792,2071,2878,2
1789466412.598037,1946,2876,2
1789466412.599843,2116,2876,2
1789466412.6072252,2283,2881,2
1789466412.6073658,2157,2879,2
1789466412.6076741,2139,2878,2
1789466412.6078038,2128,2878,2
1789466412.610209,2141,2878,2
1789466412.6115258,2005,2878,2
1789466412.6138492,2047,2879,2
1789466412.6238458,2043,2877,2
1789466412.625155,2021,2877,2
1789466412.625957,2091,2876,2
1789466412.626955,2090,2879,2
1789466412.6286368,2099,2878,2
1789466412.631993,2033,2877,2
1789466412.6322188,2015,2878,2
1789466412.632443,1993,2875,2
1789466412.6326241,1948,2877,2
1789466412.6351712,1971,2877,2
1789466412.636488,2020,2877,2
1789466412.637553,2064,2877,2
1789466412.64011,2016,2879,2
1789466412.642453,1995,2878,2
1789466412.643527,1979,2877,2
1789466412.6458611,2035,2877,2
1789466412.647954,1975,2877,2
1789466412.650271,1914,2876,2
1789466412.6516821,1935,2878,2
1789466412.654262,1996,2877,2
1789466412.655352,2017,2875,2
1789466412.6576781,1970,2877,2
1789466412.660001,1928,2877,2
1789466412.66134,1955,2878,2
1789466412.663658,1940,2877,2
1789466412.666256,1885,2878,2
1789466412.66758,1933,2878,2
1789466412.669991,1971,2877,2
1789466412.6839309,1954,2877,2
1789466412.693985,1905,2876,2
1789466412.694083,1892,2875,2
1789466412.694187,1947,2877,2
1789466412.694479,1965,2875,2
1789466412.6945221,1831,2876,2
1789466412.69456,1913,2876,2
1789466412.694623,1959,2877,2
1789466412.6946611,1991,2876,2
1789466412.694844,1972,2876,2
1789466412.694931,1927,2877,2
1789466412.6950688,1933,2877,2
1789466412.696183,1941,2876,2
1789466412.697551,1893,2876,2
1789466412.709099,1866,2876,2
1789466412.7096581,1942,2878,2
1789466412.710654,1991,2877,2
1789466412.711562,1914,2876,2
1789466412.713652,1862,2876,2
1789466412.719744,1851,2875,2
1789466412.7205272,1929,2875,2
1789466412.720574,1908,2876,2
1789466412.7207282,1842,2876,2
1789466412.720834,1955,2877,2
1789466412.720974,2057,2876,2
1789466412.722046,2097,2879,2
1789466412.724134,1965,2877,2
1789466412.725458,1858,2876,2
1789466412.727778,1892,2874,2
1789466412.72987,1950,2877,2
1789466412.732203,1841,2875,2
1789466412.733726,1867,2876,2
1789466412.7364988,1902,2876,2
1789466412.738107,1990,2876,2
1789466412.740213,1987,2877,2
1789466412.7413728,1943,2877,2
1789466412.7434618,1929,2876,2
1789466412.745534,2045,2879,2
1789466412.747613,2076,2877,2
1789466412.749689,2025,2877,2
1789466412.752318,2059,2877,2
1789466412.753421,1966,2877,2
1789466412.75554,1978,2876,2
1789466412.762957,1995,2877,2
1789466412.764502,1979,2877,2
1789466412.766263,2104,2878,2
1789466412.770279,2136,2879,2
1789466412.7713978,2018,2877,2
1789466412.773259,1702,2877,2
1789466412.777157,1705,2877,2
1789466412.777453,1805,2876,2
1789466412.779362,1877,2876,2
1789466412.780071,1990,2878,2
1789466412.780206,2067,2877,2
1789466412.780249,2229,2880,2
1789466412.781455,2134,2878,2
1789466412.7896,2136,2877,2
1789466412.792063,2355,2880,2
1789466412.794007,2335,2880,2
1789466412.794935,2034,2877,2
1789466412.795852,2105,2879,2
1789466412.796758,1600,2875,2
1789466412.79879,1846,2876,2
1789466412.7990909,1897,2877,2
1789466412.802964,1224,2876,2
1789466412.803285,1444,2876,2
1789466412.805129,1772,2878,2
1789466412.806218,2027,2875,2
1789466412.8073568,1793,2876,2
1789466412.8094459,1757,2875,2
1789466412.8115342,1833,2874,2
1789466412.813625,1854,2877,2
1789466412.8156989,1890,2877,2
1789466412.817814,2037,2876,2
1789466412.820149,1969,2876,2
1789466412.821453,1708,2875,2
1789466412.82353,1972,2877,2
1789466412.8258922,1753,2876,2
1789466412.828064,1827,2876,2
1789466412.829403,1933,2877,2
1789466412.8320372,1729,2876,2
1789466412.833347,1755,2875,2
1789466412.835716,1871,2876,2
1789466412.838041,1951,2876,2
1789466412.840131,1877,2877,2
1789466412.8461199,1677,2875,2
1789466412.849097,1817,2875,2
1789466412.8522959,1796,2876,2
1789466412.852837,1791,2875,2
1789466412.853775,1833,2877,2
1789466412.856128,1985,2875,2
1789466412.859893,2075,2877,2
1789466412.86019,2107,2878,2
1789466412.8606179,2037,2878,2
1789466412.862457,2120,2879,2
1789466412.8632162,2202,2878,2
1789466412.863362,2169,2879,2
1789466412.8654568,1779,2877,2
1789466412.867612,1984,2877,2
1789466412.873787,2271,2879,2
1789466412.876385,2175,2878,2
1789466412.879458,1933,2875,2
1789466412.88043,1933,2878,2
1789466412.882852,2010,2878,2
1789466412.883111,1979,2876,2
1789466412.8866858,1967,2876,2
1789466412.887119,1976,2876,2
1789466412.887393,2019,2876,2
1789466412.887677,2038,2878,2
1789466412.890099,1935,2876,2
1789466412.891488,2030,2878,2
1789466412.893836,2006,2878,2
1789466412.895932,2083,2878,2
1789466412.898279,1946,2877,2
1789466412.8993878,1983,2876,2
1789466412.90172,1995,2877,2
1789466412.903807,2010,2876,2
1789466412.905916,2001,2877,2
1789466412.9081779,1971,2878,2
1789466412.909445,2001,2878,2
1789466412.911534,1965,2877,2
1789466412.913619,1906,2875,2
1789466412.91571,1972,2878,2
1789466412.9181309,2072,2878,2
1789466412.9196,1989,2878,2
1789466412.921779,2048,2877,2
1789466412.924406,2001,2878,2
1789466412.925528,1936,2877,2
1789466412.9277282,1997,2877,2
1789466412.938699,1941,2874,2
1789466412.944457,1825,2877,2
1789466412.9507399,1947,2877,2
1789466412.9536939,1996,2877,2
1789466412.953847,2011,2876,2
1789466412.9540439,2090,2878,2
1789466412.9541728,2066,2877,2
1789466412.954274,1862,2874,2
1789466412.9544141,1975,2876,2
1789466412.954544,1937,2877,2
1789466412.954659,2032,2876,2
1789466412.954771,2064,2878,2
1789466412.954815,1966,2877,2
1789466412.9561942,1932,2876,2
1789466412.957546,1839,2877,2
1789466412.9641302,1900,2875,2
1789466412.9710789,2041,2878,2
1789466412.971833,2064,2878,2
1789466412.972884,1967,2878,2
1789466412.979069,2001,2877,2
1789466412.979519,2024,2877,2
1789466412.979716,1952,2877,2
1789466412.980017,1980,2876,2
1789466412.9803689,1975,2878,2
1789466412.983103,1999,2879,2
1789466412.983383,1996,2875,2
1789466412.983488,1994,2877,2
1789466412.9836469,1981,2876,2
1789466412.985842,1960,2877,2
1789466412.988574,1959,2876,2
1789466412.989899,2018,2876,2
1789466412.9922402,1998,2879,2
1789466412.993373,1971,2877,2
1789466412.9957051,2002,2877,2
1789466412.998036,1987,2875,2
1789466413.000113,1977,2877,2
1789466413.001463,2058,2877,2
1789466413.0038211,2063,2878,2
1789466413.0059452,2077,2879,2
1789466413.0083368,2016,2878,2
1789466413.009404,1975,2877,2
1789466413.0118241,1992,2878,2
1789466413.014146,2016,2875,2
1789466413.016478,1915,2877,2
1789466413.0175738,1894,2878,2
1789466413.019907,1859,2877,2
1789466413.022502,1896,2877,2
1789466413.0237708,2013,2879,2
1789466413.029967,2005,2877,2
1789466413.030706,2005,2877,2
1789466413.03248,1996,2879,2
1789466413.033161,1941,2877,2
1789466413.034922,1927,2878,2
1789466413.038133,2018,2878,2
1789466413.0387251,2057,2877,2
1789466413.042172,2022,2878,2
1789466413.046081,1967,2877,2
1789466413.046263,1960,2877,2
1789466413.046525,2068,2878,2
1789466413.0492659,2097,2878,2
1789466413.049581,2046,2877,2
1789466413.052,2071,2877,2
1789466413.05339,2020,2878,2
1789466413.055732,2158,2879,2
1789466413.061147,1993,2879,2
1789466413.0617359,1972,2877,2
1789466413.0623019,1938,2875,2
1789466413.064128,1831,2876,2
1789466413.066004,1923,2878,2
1789466413.068436,1958,2877,2
1789466413.074116,1950,2876,2
1789466413.074355,1973,2877,2
1789466413.0746229,2024,2877,2
1789466413.0768619,1950,2877,2
1789466413.078051,1977,2877,2
1789466413.079543,1968,2876,2
1789466413.0822458,1996,2878,2
1789466413.083416,1958,2878,2
1789466413.0858612,2027,2878,2
1789466413.088395,2047,2877,2
1789466413.089843,2017,2878,2
1789466413.092254,1986,2877,2
1789466413.093567,2030,2877,2
1789466413.09616,2019,2878,2
1789466413.097534,1978,2877,2
1789466413.0998569,2049,2877,2
1789466413.102205,2054,2877,2
1789466413.103523,2065,2878,2
1789466413.106019,2075,2878,2
1789466413.1081789,2018,2877,2
1789466413.110276,2088,2877,2
1789466413.11137,2016,2878,2
1789466413.113448,2096,2878,2
1789466413.116041,1967,2877,2
1789466413.1214879,1994,2878,2
1789466413.12307,1969,2878,2
1789466413.1245708,1995,2876,2
1789466413.124824,2001,2878,2
1789466413.1275158,1937,2877,2
1789466413.127651,2031,2877,2
1789466413.131278,2126,2878,2
1789466413.13149,2048,2877,2
1789466413.13473,1933,2878,2
1789466413.1367161,1994,2878,2
1789466413.138377,2041,2877,2
1789466413.139758,2047,2877,2
1789466413.141808,2003,2878,2
1789466413.147603,1881,2875,2
1789466413.149908,2058,2878,2
1789466413.15008,2016,2879,2
1789466413.150285,1981,2877,2
1789466413.152873,2010,2877,2
1789466413.155107,2086,2877,2
1789466413.156966,2036,2876,2
1789466413.159862,2081,2878,2
1789466413.160022,2073,2878,2
1789466413.162053,2104,2878,2
1789466413.163401,2034,2877,2
1789466413.165727,1960,2876,2
1789466413.168043,1894,2877,2
1789466413.170368,2133,2878,2
1789466413.171425,2115,2878,2
1789466413.173745,1982,2876,2
1789466413.1760771,1960,2877,2
1789466413.177383,1973,2877,2
1789466413.179699,2036,2877,2
1789466413.182028,2027,2875,2
1789466413.18431,2018,2877,2
1789466413.1856241,2086,2877,2
1789466413.187753,2089,2878,2
1789466413.190335,2069,2878,2
1789466413.191403,1989,2877,2
1789466413.193839,2017,2877,2
1789466413.196146,2029,2877,2
1789466413.1976361,1993,2877,2
1789466413.2031019,1983,2878,2
1789466413.203703,2003,2877,2
1789466413.204687,2084,2878,2
1789466413.206484,2053,2877,2
1789466413.2164538,2060,2878,2
1789466413.216866,2061,2877,2
1789466413.217389,2075,2877,2
1789466413.220063,2079,2878,2
1789466413.220217,1994,2877,2
1789466413.220305,1934,2877,2
1789466413.220352,2029,2878,2
1789466413.221448,2163,2879,2
1789466413.2241411,2098,2878,2
1789466413.2304509,1957,2877,2
1789466413.231909,1989,2877,2
1789466413.232522,2024,2879,2
1789466413.234942,2004,2876,2
1789466413.235432,2001,2878,2
1789466413.237531,2015,2877,2
1789466413.238514,2056,2877,2
1789466413.240821,2109,2878,2
1789466413.245897,2111,2877,2
1789466413.2464268,2056,2878,2
1789466413.246712,2050,2877,2
1789466413.249172,1999,2877,2
1789466413.250252,2033,2878,2
1789466413.251599,2090,2878,2
1789466413.2540438,2082,2878,2
1789466413.256157,2070,2879,2
1789466413.2574878,2013,2878,2
1789466413.2600791,2020,2877,2
1789466413.262471,2047,2877,2
1789466413.263686,2017,2876,2
1789466413.2660139,1991,2878,2
1789466413.267346,2055,2877,2
1789466413.270001,2089,2877,2
1789466413.271352,2129,2879,2
1789466413.273676,1951,2875,2
1789466413.2762449,1943,2874,2
1789466413.277343,2117,2878,2
1789466413.279912,2118,2878,2
1789466413.282231,1941,2876,2
1789466413.283537,2041,2877,2
1789466413.2858791,2066,2877,2
1789466413.293602,2029,2877,2
1789466413.293771,2062,2878,2
1789466413.294421,2080,2877,2
1789466413.2969558,2058,2877,2
1789466413.297214,2040,2878,2
1789466413.297458,2019,2877,2
1789466413.302125,1967,2877,2
1789466413.3028202,2036,2877,2
1789466413.30455,2045,2877,2
1789466413.3072882,2131,2878,2
1789466413.307725,1993,2877,2
1789466413.3100429,2021,2877,2
1789466413.311569,2085,2877,2
1789466413.3146071,2066,2878,2
1789466413.32019,2084,2876,2
1789466413.3208141,2081,2876,2
1789466413.321425,2103,2877,2
1789466413.321549,2061,2876,2
1789466413.323914,2053,2878,2
1789466413.325869,2028,2877,2
1789466413.328753,2038,2877,2
1789466413.330559,1969,2876,2
1789466413.3331032,1992,2876,2
1789466413.335832,2024,2877,2
1789466413.335968,2099,2878,2
1789466413.3382201,1963,2877,2
1789466413.339945,2068,2878,2
1789466413.3426461,2044,2877,2
1789466413.344924,2039,2877,2
1789466413.346252,2083,2877,2
1789466413.347403,2037,2876,2
1789466413.3498912,2027,2876,2
1789466413.3525498,2067,2877,2
1789466413.3536131,2105,2877,2
1789466413.355702,2110,2878,2
1789466413.3581052,2099,2877,2
1789466413.359529,2101,2877,2
1789466413.362196,2077,2878,2
1789466413.364562,2013,2876,2
1789466413.365959,1965,2877,2
1789466413.367404,2023,2877,2
1789466413.369927,2175,2879,2
1789466413.371356,2126,2878,2
1789466413.374027,1990,2877,2
1789466413.381749,2114,2877,2
1789466413.382483,2213,2879,2
1789466413.383053,2152,2878,2
1789466413.384938,2088,2878,2
1789466413.385153,1983,2878,2
1789466413.388187,1998,2878,2
1789466413.388374,1943,2877,2
1789466413.39183,2041,2878,2
1789466413.392116,1918,2874,2
1789466413.3947551,2179,2878,2
1789466413.3972921,2820,2880,2
1789466413.3975701,2322,2879,2
1789466413.399901,1691,2876,2
1789466413.4024162,1914,2878,2
1789466413.4076328,2212,2878,2
1789466413.408289,1727,2876,2
1789466413.4089391,2250,2877,2
1789466413.41319,2169,2878,2
1789466413.4143229,1597,2875,2
1789466413.415633,1573,2875,2
1789466413.416595,2125,2879,2
1789466413.4207811,2704,2879,2
1789466413.4209468,3407,2883,2
1789466413.423532,3139,2881,2
1789466413.423798,1459,2875,2
1789466413.425955,1407,2876,2
1789466413.4292061,1268,2877,2
1789466413.430559,2098,2876,2
1789466413.431633,1174,2876,2
1789466413.434001,804,2874,2
1789466413.435437,1382,2875,2
1789466413.4381618,2121,2878,2
1789466413.440266,1779,2877,2
1789466413.44157,1863,2876,2
1789466413.4439318,2139,2879,2
1789466413.4464378,2355,2879,2
1789466413.447754,2202,2876,2
1789466413.4503198,2182,2879,2
1789466413.451383,1945,2876,2
1789466413.453942,1827,2876,2
1789466413.456034,1964,2878,2
1789466413.458115,2058,2879,2
1789466413.460562,2175,2878,2
1789466413.461945,2243,2879,2
1789466413.468224,2252,2879,2
1789466413.471883,2169,2879,2
1789466413.47221,2177,2878,2
1789466413.472456,2096,2879,2
1789466413.4753768,2163,2879,2
1789466413.476453,1993,2878,2
1789466413.4770539,1906,2876,2
1789466413.482285,2182,2878,2
1789466413.482591,2255,2879,2
1789466413.4828649,1975,2877,2
1789466413.485554,1858,2877,2
1789466413.485694,1935,2877,2
1789466413.4882638,2349,2879,2
1789466413.48959,2159,2879,2
1789466413.495587,1975,2878,2
1789466413.496667,2050,2879,2
1789466413.498734,2042,2876,2
1789466413.498904,1962,2877,2
1789466413.5031931,1896,2877,2
1789466413.503746,1899,2877,2
1789466413.505973,1929,2876,2
1789466413.5084858,1985,2878,2
1789466413.5089762,1930,2877,2
1789466413.5115662,1987,2877,2
1789466413.51164,2083,2878,2
1789466413.5139709,2179,2879,2
1789466413.516172,2134,2876,2
1789466413.518837,2272,2880,2
1789466413.520193,2473,2879,2
1789466413.521565,2049,2878,2
1789466413.524163,1816,2876,2
1789466413.525698,1878,2875,2
1789466413.528382,2201,2878,2
1789466413.52958,2049,2878,2
1789466413.532189,1878,2876,2
1789466413.533327,1844,2877,2
1789466413.53591,1911,2877,2
1789466413.538354,2071,2879,2
1789466413.540032,2360,2878,2
1789466413.541423,2382,2878,2
1789466413.545155,1903,2874,2
1789466413.54672,1863,2877,2
1789466413.5482712,2120,2877,2
1789466413.549508,2075,2876,2
1789466413.563103,2050,2877,2
1789466413.566036,2004,2875,2
1789466413.567221,2212,2878,2
1789466413.5740721,2422,2879,2
1789466413.577316,1972,2879,2
1789466413.577455,1715,2876,2
1789466413.577504,1981,2876,2
1789466413.577549,2060,2878,2
1789466413.577591,2139,2877,2
1789466413.577693,1976,2877,2
1789466413.5778072,1814,2876,2
1789466413.577937,1828,2875,2
1789466413.578023,1973,2878,2
1789466413.578152,2122,2878,2
1789466413.580728,2199,2878,2
1789466413.582473,2001,2877,2
1789466413.5880609,2223,2879,2
1789466413.589301,2349,2878,2
1789466413.591443,2165,2880,2
1789466413.59187,2161,2878,2
1789466413.5937972,2131,2878,2
1789466413.594353,2154,2878,2
1789466413.595973,2009,2877,2
1789466413.5990038,2102,2876,2
1789466413.6023529,2064,2877,2
1789466413.6051369,2197,2879,2
1789466413.605921,1799,2875,2
1789466413.606003,1725,2875,2
1789466413.607379,1877,2876,2
1789466413.609961,2023,2878,2
1789466413.612534,2109,2878,2
1789466413.613842,2119,2878,2
1789466413.6159308,2049,2877,2
1789466413.618284,1981,2875,2
1789466413.619615,2150,2879,2
1789466413.6221912,2149,2880,2
1789466413.6242912,2007,2878,2
1789466413.625411,2128,2878,2
1789466413.627519,2091,2879,2
1789466413.629784,2190,2878,2
1789466413.632106,2196,2879,2
1789466413.6334221,1925,2877,2
1789466413.6357849,1897,2877,2
1789466413.6381261,2028,2876,2
1789466413.639435,1988,2876,2
1789466413.642004,2057,2878,2
1789466413.64338,2469,2878,2
1789466413.649716,1995,2877,2
1789466413.6507819,1759,2876,2
1789466413.651458,1822,2876,2
1789466413.653455,2055,2878,2
1789466413.653634,2099,2876,2
1789466413.656368,2582,2880,2
1789466413.658347,2618,2879,2
1789466413.6599538,1767,2874,2
1789466413.6625469,1615,2875,2
1789466413.664949,1937,2877,2
1789466413.6662972,1881,2876,2
1789466413.6674,2115,2877,2
1789466413.673687,1948,2876,2
1789466413.675104,1739,2877,2
1789466413.676934,1847,2878,2
1789466413.6771321,1990,2877,2
1789466413.679014,2058,2877,2
1789466413.681012,2348,2879,2
1789466413.6833239,3103,2882,2
1789466413.683584,2176,2879,2
1789466413.688725,1571,2878,2
1789466413.689364,1816,2877,2
1789466413.6894999,1787,2876,2
1789466413.6918259,2235,2879,2
1789466413.694185,2002,2877,2
1789466413.695551,1472,2875,2
1789466413.6978838,1930,2876,2
1789466413.700078,2185,2879,2
1789466413.7014039,2259,2879,2
1789466413.704072,2368,2880,2
1789466413.7054021,2023,2876,2
1789466413.708023,2118,2880,2
1789466413.71033,2345,2878,2
1789466413.711694,2542,2879,2
1789466413.714041,2014,2877,2
1789466413.716362,2154,2878,2
1789466413.717438,2155,2877,2
1789466413.720005,2362,2879,2
1789466413.721497,2046,2877,2
1789466413.723822,1322,2876,2
1789466413.729465,1175,2876,2
1789466413.730058,1882,2876,2
1789466413.730648,1813,2875,2
1789466413.732844,1816,2877,2
1789466413.736732,1897,2878,2
1789466413.737329,2770,2879,2
1789466413.738417,2696,2880,2
1789466413.740201,2408,2880,2
1789466413.742953,2162,2876,2
1789466413.74564,1813,2877,2
1789466413.745717,1994,2878,2
1789466413.747798,2619,2880,2
1789466413.754961,1338,2876,2
1789466413.755529,1294,2875,2
1789466413.756491,1541,2874,2
1789466413.758037,2076,2876,2
1789466413.758274,2628,2880,2
1789466413.760455,2662,2879,2
1789466413.762069,2834,2879,2
1789466413.764541,2485,2878,2
1789466413.767166,1798,2876,2
1789466413.770057,2311,2879,2
1789466413.770129,2181,2875,2
1789466413.771444,2166,2876,2
1789466413.773856,2009,2877,2
1789466413.7761889,2139,2878,2
1789466413.778273,2560,2879,2
1789466413.779391,2099,2877,2
1789466413.781918,1318,2875,2
1789466413.7842271,2093,2876,2
1789466413.785536,2668,2880,2
1789466413.787871,1895,2876,2
1789466413.79013,1932,2877,2
1789466413.792269,2291,2878,2
1789466413.793371,2364,2878,2
1789466413.795696,1961,2877,2
1789466413.798184,2069,2878,2
1789466413.8002791,2351,2879,2
1789466413.8015969,2177,2878,2
1789466413.803979,2268,2880,2
1789466413.811388,2215,2879,2
1789466413.8159502,2186,2878,2
1789466413.816542,1929,2878,2
1789466413.820822,1957,2879,2
1789466413.824342,2016,2878,2
1789466413.824799,2191,2879,2
1789466413.825126,2572,2879,2
1789466413.827029,2512,2879,2
1789466413.827777,1968,2875,2
1789466413.8278651,2092,2879,2
1789466413.8279161,2059,2877,2
1789466413.8279748,2327,2879,2
1789466413.830176,2170,2877,2
1789466413.837692,2568,2878,2
1789466413.838848,2614,2879,2
1789466413.840677,2014,2876,2
1789466413.840992,2202,2879,2
1789466413.842954,2159,2877,2
1789466413.843487,2209,2879,2
1789466413.8441541,2144,2877,2
1789466413.8460019,2089,2878,2
1789466413.8483148,2702,2879,2
1789466413.8515542,2238,2878,2
1789466413.852447,1889,2876,2
1789466413.8564868,2405,2880,2
1789466413.856538,2372,2879,2
1789466413.869521,1685,2877,2
1789466413.870395,2643,2878,2
1789466413.8706088,2333,2879,2
1789466413.8743029,1836,2878,2
1789466413.878171,2098,2878,2
1789466413.878218,2045,2878,2
1789466413.878261,3315,2881,2
1789466413.878304,1946,2876,2
1789466413.878346,1819,2876,2
1789466413.878388,2117,2877,2
1789466413.878429,2334,2878,2
1789466413.9304361,2143,2878,2
1789466413.9305139,2046,2877,2
1789466413.930569,1752,2876,2
1789466413.9306161,1991,2877,2
1789466413.9306612,2200,2879,2
1789466413.930888,2103,2876,2
1789466413.930964,2461,2879,2
1789466413.931013,2665,2880,2
1789466413.931059,2890,2878,2
1789466413.931103,2206,2878,2
1789466413.931146,1648,2875,2
1789466413.931191,1760,2875,2
1789466413.931239,2076,2876,2
1789466413.9312818,2744,2880,2
1789466413.931326,2297,2878,2
1789466413.931369,2402,2877,2
1789466413.9314141,1871,2877,2
1789466413.931458,2292,2878,2
1789466413.9315012,1874,2875,2
1789466413.931544,2410,2879,2
1789466413.931586,1984,2876,2
1789466413.931629,1346,2876,2
1789466413.931673,2427,2879,2
1789466413.931833,2872,2880,2
1789466413.93193,2044,2877,2
1789466413.932006,1286,2875,2
1789466413.932052,2000,2876,2
1789466413.934347,2204,2877,2
1789466413.935683,2316,2877,2
1789466413.937689,2406,2879,2
1789466413.939876,2347,2879,2
1789466413.942579,2179,2877,2
1789466413.944182,1953,2877,2
1789466413.945489,2315,2879,2
1789466413.9481258,1977,2877,2
1789466413.949576,2341,2880,2
1789466413.953544,2362,2880,2
1789466413.953635,2270,2879,2
1789466413.956715,1598,2875,2
1789466413.9582899,1529,2876,2
1789466413.9599512,2009,2878,2
1789466413.962453,2753,2879,2
1789466413.963655,2861,2880,2
1789466413.972339,2911,2880,2
1789466413.974596,1799,2876,2
1789466413.9748962,2253,2877,2
1789466413.976963,2174,2877,2
1789466413.978223,2600,2879,2
1789466413.978912,2512,2879,2
1789466413.979734,1838,2877,2
1789466413.980874,1245,2875,2
1789466413.983409,1268,2876,2
1789466413.9836328,1676,2876,2
1789466413.9872372,2273,2878,2
1789466413.987477,2584,2881,2
1789466413.990282,2406,2879,2
1789466413.991622,2179,2879,2
1789466413.993956,2159,2877,2
1789466413.999537,2710,2880,2
1789466414.000149,2172,2879,2
1789466414.0003688,2382,2880,2
1789466414.00335,1863,2878,2
1789466414.003565,1945,2877,2
1789466414.0065532,2086,2876,2
1789466414.008342,2049,2879,2
1789466414.010688,2015,2878,2
1789466414.014178,1986,2878,2
1789466414.014486,1992,2877,2
1789466414.017399,2250,2878,2
1789466414.017514,2442,2879,2
1789466414.0196831,2048,2878,2
1789466414.0218701,2148,2877,2
1789466414.0244591,1847,2876,2
1789466414.025782,1921,2878,2
1789466414.028105,1921,2877,2
1789466414.029369,2357,2878,2
1789466414.03147,2871,2879,2
1789466414.034034,1943,2877,2
1789466414.0353642,1955,2877,2
1789466414.0379362,2020,2877,2
1789466414.040258,2158,2877,2
1789466414.041565,1577,2877,2
1789466414.04389,1882,2876,2
1789466414.0462568,1938,2878,2
1789466414.0475981,1988,2878,2
1789466414.049719,1684,2875,2
1789466414.05185,2135,2879,2
1789466414.054095,2852,2881,2
1789466414.055399,2603,2880,2
1789466414.063398,2072,2875,2
1789466414.066794,2140,2880,2
1789466414.0672169,2387,2879,2
1789466414.067452,1988,2878,2
1789466414.0697339,1668,2876,2
1789466414.070415,1876,2877,2
1789466414.071133,2185,2879,2
1789466414.072523,2108,2879,2
1789466414.0755682,2216,2879,2
1789466414.079294,2353,2878,2
1789466414.07951,1956,2876,2
1789466414.0797272,2432,2879,2
1789466414.081988,1693,2875,2
1789466414.083338,2161,2877,2
1789466414.0863612,2515,2881,2
1789466414.0964868,1683,2876,2
1789466414.099225,2062,2877,2
1789466414.105529,2404,2879,2
1789466414.108293,2334,2879,2
1789466414.112791,1633,2875,2
1789466414.1132102,1729,2876,2
1789466414.116193,2295,2879,2
1789466414.1163678,2155,2880,2
1789466414.116415,1655,2876,2
1789466414.116548,1700,2876,2
1789466414.116655,1938,2877,2
1789466414.1166961,2041,2879,2
1789466414.1167932,2448,2879,2
1789466414.117043,2265,2880,2
1789466414.117097,2225,2880,2
1789466414.118218,2205,2878,2
1789466414.1197581,2237,2879,2
1789466414.1224031,1969,2877,2
1789466414.123818,2276,2879,2
1789466414.1265512,1898,2878,2
1789466414.128057,1740,2876,2
1789466414.1295118,1731,2876,2
1789466414.13184,1772,2875,2
1789466414.13455,2303,2878,2
1789466414.1359491,1652,2875,2
1789466414.1374369,2222,2879,2
1789466414.1403232,1937,2876,2
1789466414.141788,2383,2880,2
1789466414.144324,2692,2879,2
1789466414.145717,2461,2879,2
1789466414.148174,2144,2878,2
1789466414.149639,2035,2876,2
1789466414.152402,2125,2877,2
1789466414.1538692,2173,2876,2
1789466414.156353,2312,2879,2
1789466414.1575308,2249,2878,2
1789466414.160052,2015,2878,2
1789466414.176456,1904,2878,2
1789466414.1817632,2208,2878,2
1789466414.18662,2092,2879,2
1789466414.1870358,1845,2877,2
1789466414.18769,1988,2878,2
1789466414.19166,2096,2877,2
1789466414.1917639,2151,2879,2
1789466414.191849,2020,2877,2
1789466414.1919339,2133,2878,2
1789466414.192003,2005,2879,2
1789466414.1920671,2249,2878,2
1789466414.1922061,2392,2879,2
1789466414.1924071,2389,2879,2
1789466414.192523,2030,2877,2
1789466414.1926599,2080,2877,2
1789466414.192781,1519,2877,2
1789466414.194068,2136,2878,2
1789466414.1954381,2063,2877,2
1789466414.204334,2072,2878,2
1789466414.208016,2011,2878,2
1789466414.208363,2128,2879,2
1789466414.210506,2105,2877,2
1789466414.211763,2710,2880,2
1789466414.214505,2379,2879,2
1789466414.217061,1478,2876,2
1789466414.2214122,2198,2878,2
1789466414.221675,1987,2876,2
1789466414.221935,1753,2875,2
1789466414.222212,1742,2876,2
1789466414.222543,2047,2876,2
1789466414.222891,2384,2879,2
1789466414.225662,1869,2875,2
1789466414.225933,2186,2878,2
1789466414.228387,2592,2879,2
1789466414.2296362,2021,2877,2
1789466414.231967,2026,2876,2
1789466414.233549,1443,2876,2
1789466414.236066,2570,2880,2
1789466414.237429,2644,2879,2
1789466414.239946,1457,2875,2
1789466414.242559,1977,2878,2
1789466414.243702,2353,2878,2
1789466414.246065,2056,2878,2
1789466414.2473989,1855,2877,2
1789466414.249991,2298,2879,2
1789466414.252436,2052,2877,2
1789466414.253783,2052,2877,2
1789466414.25649,2080,2879,2
1789466414.2577438,1694,2876,2
1789466414.259833,2146,2878,2
1789466414.26217,3113,2880,2
1789466414.263485,2362,2878,2
1789466414.2660658,1898,2877,2
1789466414.272425,1742,2875,2
1789466414.272565,1627,2876,2
1789466414.273338,2184,2877,2
1789466414.2734349,2200,2879,2
1789466414.276695,1883,2877,2
1789466414.2792819,1714,2874,2
1789466414.279959,2013,2878,2
1789466414.2839181,2019,2879,2
1789466414.2882931,2212,2879,2
1789466414.288445,2089,2876,2
1789466414.288597,2042,2877,2
1789466414.2912278,2011,2877,2
1789466414.292539,2202,2878,2
1789466414.293853,2488,2879,2
1789466414.301093,2025,2877,2
1789466414.303555,2103,2879,2
1789466414.303929,2116,2877,2
1789466414.305938,2211,2878,2
1789466414.307014,2178,2877,2
1789466414.307897,1908,2877,2
1789466414.308945,1949,2876,2
1789466414.3151412,2062,2878,2
1789466414.3154838,1939,2877,2
1789466414.315642,1858,2877,2
1789466414.3158941,1916,2875,2
1789466414.318605,2048,2878,2
1789466414.319963,2207,2877,2
1789466414.3223722,2164,2878,2
1789466414.323699,2183,2879,2
1789466414.326288,2081,2877,2
1789466414.327441,1861,2877,2
1789466414.3298051,1923,2877,2
1789466414.332261,1951,2876,2
1789466414.3335822,1973,2877,2
1789466414.335722,2096,2877,2
1789466414.337847,1991,2877,2
1789466414.3401432,2217,2880,2
1789466414.3425002,2036,2877,2
1789466414.343833,1995,2877,2
1789466414.346219,2021,2877,2
1789466414.347452,1960,2875,2
1789466414.350113,1917,2877,2
1789466414.352336,1992,2878,2
1789466414.3535,2066,2877,2
1789466414.359693,2104,2878,2
1789466414.363394,2038,2877,2
1789466414.363667,1993,2877,2
1789466414.3663528,1983,2877,2
1789466414.366943,2041,2878,2
1789466414.371287,2019,2877,2
1789466414.3763149,2029,2877,2
1789466414.3786821,2030,2878,2
1789466414.3794072,2076,2876,2
1789466414.379544,2035,2878,2
1789466414.379599,2020,2878,2
1789466414.3796601,1944,2876,2
1789466414.3797178,1922,2875,2
1789466414.3819451,1907,2875,2
1789466414.3888462,1920,2877,2
1789466414.390125,1946,2879,2
1789466414.392904,1976,2877,2
1789466414.393059,1970,2876,2
1789466414.3933718,1916,2875,2
1789466414.393554,1901,2874,2
1789466414.3972402,1946,2875,2
1789466414.3979468,1917,2877,2
1789466414.4008589,1906,2877,2
1789466414.4050932,1941,2877,2
1789466414.40542,1919,2876,2
1789466414.405581,1939,2876,2
1789466414.408066,1937,2876,2
1789466414.410163,1868,2875,2
1789466414.4125,1919,2876,2
1789466414.413562,1942,2875,2
1789466414.41605,1910,2876,2
1789466414.4182148,1926,2876,2
1789466414.41953,1973,2877,2
1789466414.421637,1992,2876,2
1789466414.424039,1953,2876,2
1789466414.425407,1930,2875,2
1789466414.4280121,1980,2878,2
1789466414.430204,2000,2879,2
1789466414.432441,1958,2876,2
1789466414.433538,1938,2876,2
1789466414.4362712,1982,2877,2
1789466414.437595,1981,2877,2
1789466414.4399412,1909,2877,2
1789466414.442608,1897,2876,2
1789466414.443763,1889,2876,2
1789466414.4511712,1952,2876,2
1789466414.451902,1880,2876,2
1789466414.452456,1809,2876,2
1789466414.4526248,1882,2877,2
1789466414.454447,1983,2877,2
1789466414.455751,2001,2875,2
1789466414.4588811,1987,2876,2
1789466414.460463,2010,2878,2
1789466414.463135,1972,2878,2
1789466414.466857,1990,2876,2
1789466414.4670331,1966,2877,2
1789466414.469491,1947,2877,2
1789466414.469719,1949,2877,2
1789466414.472281,2037,2877,2
1789466414.473463,2040,2879,2
1789466414.478409,1953,2878,2
1789466414.479892,1876,2875,2
1789466414.4819121,1921,2876,2
1789466414.482105,1940,2877,2
1789466414.484194,1907,2877,2
1789466414.486128,1943,2877,2
1789466414.488229,1951,2876,2
1789466414.4918349,1998,2877,2
1789466414.492024,2057,2878,2
1789466414.494386,2076,2878,2
1789466414.495453,2135,2878,2
1789466414.4975889,2044,2878,2
1789466414.5000372,1970,2876,2
1789466414.501392,2000,2877,2
1789466414.50349,2048,2877,2
1789466414.505814,2038,2877,2
1789466414.508131,1866,2876,2
1789466414.509433,1761,2875,2
1789466414.511897,1872,2876,2
1789466414.514231,1895,2876,2
1789466414.515532,1927,2876,2
1789466414.517859,1970,2877,2
1789466414.5199301,2073,2877,2
1789466414.52224,2066,2877,2
1789466414.5245519,2024,2878,2
1789466414.525645,1963,2876,2
1789466414.527728,1979,2875,2
1789466414.534606,2000,2877,2
1789466414.535548,2032,2877,2
1789466414.536075,1966,2877,2
1789466414.536269,2137,2878,2
1789466414.537812,2051,2876,2
1789466414.5404391,1789,2876,2
1789466414.5424771,1904,2876,2
1789466414.544142,2007,2876,2
1789466414.5477362,2086,2879,2
1789466414.547955,2073,2878,2
1789466414.5504,1895,2876,2
1789466414.551712,2032,2876,2
1789466414.5540411,1983,2876,2
1789466414.559219,2213,2879,2
1789466414.5601249,2260,2878,2
1789466414.560262,2208,2878,2
1789466414.562486,2003,2878,2
1789466414.5643609,1857,2876,2
1789466414.566624,1879,2877,2
1789466414.572306,1963,2876,2
1789466414.572591,1888,2877,2
1789466414.5727549,2009,2876,2
1789466414.57534,2084,2878,2
1789466414.576685,1731,2876,2
1789466414.577826,1969,2875,2
1789466414.580171,2059,2877,2
1789466414.582494,2278,2879,2
1789466414.583765,2279,2879,2
1789466414.586011,2079,2876,2
1789466414.588346,1880,2877,2
1789466414.589665,2180,2879,2
1789466414.591777,2172,2878,2
1789466414.593864,2173,2878,2
1789466414.596441,2009,2877,2
1789466414.597512,1912,2876,2
1789466414.5996559,1885,2876,2
1789466414.601731,2027,2877,2
1789466414.604328,2085,2877,2
1789466414.606424,1987,2876,2
1789466414.6077352,1978,2875,2
1789466414.61026,1867,2876,2
1789466414.615957,2097,2878,2
1789466414.6161149,2130,2878,2
1789466414.616714,2016,2876,2
1789466414.619661,2193,2879,2
1789466414.6213,2481,2880,2
1789466414.623112,1946,2877,2
1789466414.626106,1956,2876,2
1789466414.6263602,1988,2877,2
1789466414.629958,1673,2876,2
1789466414.630194,1721,2875,2
1789466414.632677,1828,2875,2
1789466414.633936,1974,2876,2
1789466414.6405709,2040,2878,2
1789466414.642098,1845,2875,2
1789466414.6427038,1935,2876,2
1789466414.6441522,2204,2879,2
1789466414.644462,2247,2879,2
1789466414.6470048,2331,2878,2
1789466414.6487098,2085,2878,2
1789466414.651232,1979,2876,2
1789466414.6554701,1831,2877,2
1789466414.655807,2115,2879,2
1789466414.6584058,1945,2876,2
1789466414.6586711,2101,2879,2
1789466414.659755,2121,2878,2
1789466414.661914,2109,2878,2
1789466414.663998,2137,2878,2
1789466414.666317,2085,2876,2
1789466414.668687,2015,2877,2
1789466414.670272,2074,2876,2
1789466414.672537,2021,2877,2
1789466414.673599,1988,2877,2
1789466414.675935,2091,2879,2
1789466414.6782598,2172,2877,2
1789466414.680586,2000,2878,2
1789466414.681889,2032,2876,2
1789466414.684245,1925,2877,2
1789466414.685556,2063,2878,2
1789466414.688121,2051,2876,2
1789466414.690447,2113,2879,2
1789466414.6917498,1936,2875,2
1789466414.693957,1964,2877,2
1789466414.7000031,2062,2878,2
1789466414.700682,2031,2878,2
1789466414.70182,1997,2877,2
1789466414.703487,2006,2877,2
1789466414.703679,2035,2877,2
1789466414.70727,2072,2877,2
1789466414.7101288,2036,2878,2
1789466414.71028,2047,2879,2
1789466414.7138538,2103,2877,2
1789466414.714049,2094,2878,2
1789466414.716144,2051,2877,2
1789466414.7184482,2069,2877,2
1789466414.719519,2157,2878,2
1789466414.725047,2107,2877,2
1789466414.725157,2106,2878,2
1789466414.728106,2023,2876,2
1789466414.7282481,1984,2877,2
1789466414.730026,2045,2878,2
1789466414.732587,2025,2875,2
1789466414.737648,1953,2876,2
1789466414.737776,2054,2878,2
1789466414.737941,2076,2876,2
1789466414.740453,2050,2879,2
1789466414.741787,2012,2878,2
1789466414.744162,2021,2877,2
1789466414.745522,2021,2878,2
1789466414.748082,1989,2875,2
1789466414.7505212,1962,2877,2
1789466414.7515929,2013,2877,2
1789466414.753932,2100,2877,2
1789466414.756284,2114,2879,2
1789466414.7586298,2062,2878,2
1789466414.759682,1998,2877,2
1789466414.762004,2025,2878,2
1789466414.764551,2042,2879,2
1789466414.76577,1986,2877,2
1789466414.768099,2024,2876,2
1789466414.769551,2019,2878,2
1789466414.77188,1949,2877,2
1789466414.774011,1961,2876,2
1789466414.78003,2014,2877,2
1789466414.781127,2046,2877,2
1789466414.782233,2046,2878,2
1789466414.782846,2006,2877,2
1789466414.78451,2012,2877,2
1789466414.786946,2051,2876,2
1789466414.789394,2118,2880,2
1789466414.791171,2142,2879,2
1789466414.794444,2047,2877,2
1789466414.79461,2055,2877,2
1789466414.7970319,2095,2879,2
1789466414.798101,2093,2879,2
1789466414.800395,2081,2878,2
1789466414.805954,2073,2878,2
1789466414.806061,2041,2878,2
1789466414.806696,2016,2877,2
1789466414.807999,1987,2876,2
1789466414.811271,1990,2877,2
1789466414.813261,2000,2877,2
1789466414.8157592,2021,2878,2
1789466414.8190138,1986,2877,2
1789466414.819272,1994,2878,2
1789466414.821634,2109,2878,2
1789466414.8218648,2151,2879,2
1789466414.82419,2002,2875,2
1789466414.826514,1967,2876,2
1789466414.82783,2102,2878,2
1789466414.830154,2117,2878,2
1789466414.831518,1971,2875,2
1789466414.833861,1982,2877,2
1789466414.836096,1962,2877,2
1789466414.838422,2070,2877,2
1789466414.8395169,2026,2876,2
1789466414.84184,2033,2878,2
1789466414.844394,2052,2876,2
1789466414.845691,2017,2878,2
1789466414.848244,2066,2878,2
1789466414.850357,2007,2877,2
1789466414.8514812,2083,2878,2
1789466414.853794,2098,2877,2
1789466414.860306,2185,2880,2
1789466414.860854,2096,2878,2
1789466414.861671,2027,2877,2
1789466414.862989,2058,2877,2
1789466414.86477,2013,2876,2
1789466414.8666701,1935,2877,2
1789466414.868899,1946,2878,2
1789466414.871736,2034,2878,2
1789466414.87198,2095,2879,2
1789466414.874149,2001,2877,2
1789466414.876225,2033,2878,2
1789466414.881558,2083,2878,2
1789466414.8819551,2064,2877,2
1789466414.882038,2059,2876,2
1789466414.8847911,2044,2876,2
1789466414.886921,2064,2878,2
1789466414.8889549,2090,2879,2
1789466414.890511,2086,2878,2
1789466414.893318,2109,2877,2
1789466414.8954291,2016,2877,2
1789466414.8956559,2068,2878,2
1789466414.89798,2074,2879,2
1789466414.900449,2025,2877,2
1789466414.901527,2038,2877,2
1789466414.903856,2083,2876,2
1789466414.906417,2054,2878,2
1789466414.9077141,2011,2877,2
1789466414.9101171,2065,2877,2
1789466414.912683,2097,2877,2
1789466414.913982,2135,2878,2
1789466414.91629,2044,2876,2
1789466414.91836,2056,2877,2
1789466414.9195142,2091,2877,2
1789466414.922067,2115,2879,2
1789466414.924442,2099,2878,2
1789466414.925537,2037,2876,2
1789466414.932343,2101,2877,2
1789466414.932812,2115,2878,2
1789466414.93326,2038,2877,2
1789466414.934911,2037,2877,2
1789466414.936584,2063,2878,2
1789466414.938566,2057,2877,2
1789466414.940475,2051,2878,2
1789466414.943106,2052,2877,2
1789466414.945437,2023,2877,2
1789466414.945688,2074,2878,2
1789466414.947768,2044,2879,2
1789466414.954014,1984,2877,2
1789466414.954509,2056,2878,2
1789466414.954966,2100,2878,2
1789466414.956939,2178,2879,2
1789466414.958695,2142,2878,2
1789466414.960149,2027,2877,2
1789466414.962604,2039,2879,2
1789466414.965156,2100,2879,2
1789466414.967489,2111,2879,2
1789466414.967568,2137,2878,2
1789466414.970142,2092,2878,2
1789466414.971492,2116,2879,2
1789466414.974015,2074,2878,2
1789466414.976334,1980,2877,2
1789466414.977559,2010,2877,2
1789466414.979786,2055,2878,2
1789466414.982133,2053,2876,2
1789466414.984444,2065,2878,2
1789466414.985503,2237,2880,2
1789466414.988074,1961,2875,2
1789466414.990394,1728,2876,2
1789466414.9915142,1778,2876,2
1789466414.993837,1950,2874,2
1789466414.996408,2623,2880,2
1789466414.9977129,2725,2879,2
1789466415.000061,2294,2879,2
1789466415.005835,1464,2877,2
1789466415.0082402,1453,2876,2
1789466415.008451,1951,2877,2
1789466415.008725,2010,2877,2
1789466415.0101628,1994,2878,2
1789466415.012383,1917,2878,2
1789466415.014645,1744,2877,2
1789466415.01734,1911,2876,2
1789466415.017594,2370,2880,2
1789466415.0205922,2614,2879,2
1789466415.021905,2344,2880,2
1789466415.0287502,3734,2884,2
1789466415.029239,2838,2879,2
1789466415.03088,773,2875,2
1789466415.032536,925,2877,2
1789466415.0330539,1465,2876,2
1789466415.034497,1625,2876,2
1789466415.0391219,1723,2877,2
1789466415.039401,1814,2878,2
1789466415.039617,1726,2879,2
1789466415.042526,2198,2878,2
1789466415.043584,2635,2879,2
1789466415.045652,2456,2878,2
1789466415.04822,2454,2879,2
1789466415.049518,2242,2876,2
1789466415.051606,2149,2878,2
1789466415.0539122,1585,2877,2
1789466415.056224,1595,2874,2
1789466415.057517,1638,2875,2
1789466415.060032,1937,2878,2
1789466415.06237,2116,2878,2
1789466415.063487,2105,2878,2
1789466415.065769,2104,2876,2
1789466415.068343,2678,2879,2
1789466415.069654,2630,2879,2
1789466415.0722282,1892,2876,2
1789466415.080232,1850,2877,2
1789466415.082186,1773,2875,2
1789466415.082453,1892,2876,2
1789466415.085032,1997,2878,2
1789466415.085546,1931,2875,2
1789466415.086914,1924,2875,2
1789466415.08707,1997,2877,2
1789466415.0918021,2030,2875,2
1789466415.092078,2169,2879,2
1789466415.092341,2192,2878,2
1789466415.0947578,2176,2878,2
1789466415.09583,2200,2878,2
1789466415.0980532,2859,2879,2
1789466415.103022,2310,2879,2
1789466415.104382,1472,2875,2
1789466415.10609,1614,2877,2
1789466415.106247,2120,2876,2
1789466415.108323,2192,2879,2
1789466415.110154,1977,2877,2
1789466415.112075,1925,2876,2
1789466415.1145768,1980,2877,2
1789466415.116927,1820,2875,2
1789466415.117986,2299,2879,2
1789466415.120268,2274,2879,2
1789466415.121574,2084,2875,2
1789466415.1239119,2069,2876,2
1789466415.1264708,2102,2878,2
1789466415.127594,2025,2877,2
1789466415.130147,2058,2877,2
1789466415.132461,1918,2878,2
1789466415.1335192,2016,2876,2
1789466415.1360729,2214,2879,2
1789466415.1383848,2041,2877,2
1789466415.139681,2141,2876,2
1789466415.141985,2191,2879,2
1789466415.1443,1996,2878,2
1789466415.146608,2089,2877,2
1789466415.147671,1870,2875,2
1789466415.153912,1816,2876,2
1789466415.154867,1992,2876,2
1789466415.154966,2040,2877,2
1789466415.156696,2102,2876,2
1789466415.159499,2072,2878,2
1789466415.160017,2157,2877,2
1789466415.162671,2008,2877,2
1789466415.165568,2277,2878,2
1789466415.165815,2108,2878,2
1789466415.1678898,2138,2878,2
1789466415.170475,2334,2880,2
1789466415.176237,2001,2876,2
1789466415.1789691,1788,2876,2
1789466415.17923,1933,2876,2
1789466415.179374,2114,2877,2
1789466415.1827462,1861,2874,2
1789466415.18287,1702,2874,2
1789466415.185305,1840,2875,2
1789466415.1877701,1989,2876,2
1789466415.187972,2196,2878,2
1789466415.190264,2291,2877,2
1789466415.1915672,2263,2878,2
1789466415.193892,2384,2878,2
1789466415.19645,2271,2878,2
1789466415.197746,2294,2878,2
1789466415.200057,1858,2876,2
1789466415.202285,2167,2877,2
1789466415.2037199,2355,2880,2
1789466415.206042,1606,2875,2
1789466415.208114,1470,2875,2
1789466415.209541,1695,2875,2
1789466415.2121038,1858,2876,2
1789466415.2144158,1994,2878,2
1789466415.215713,1902,2875,2
1789466415.21779,1895,2876,2
1789466415.2201128,1927,2875,2
1789466415.222432,2220,2879,2
1789466415.227089,2209,2878,2
1789466415.227642,2408,2878,2
1789466415.228093,2267,2879,2
1789466415.230099,2164,2878,2
1789466415.231968,1929,2876,2
1789466415.235931,1757,2877,2
1789466415.2360551,1938,2876,2
1789466415.238501,2081,2876,2
1789466415.240864,2294,2878,2
1789466415.241931,2008,2876,2
1789466415.244489,2005,2877,2
1789466415.248673,2078,2877,2
1789466415.249561,1960,2876,2
1789466415.2504802,1945,2878,2
1789466415.252243,2180,2877,2
1789466415.253866,2260,2878,2
1789466415.255831,2008,2877,2
1789466415.257714,2032,2878,2
1789466415.259952,1858,2875,2
1789466415.262251,2126,2879,2
1789466415.264572,2366,2878,2
1789466415.265644,2310,2880,2
1789466415.2679,1980,2877,2
1789466415.2702122,1609,2878,2
1789466415.271509,1839,2877,2
1789466415.273827,2058,2876,2
1789466415.276119,2057,2878,2
1789466415.278677,1752,2875,2
1789466415.2797241,1951,2878,2
1789466415.2822762,1972,2878,2
1789466415.283571,1960,2877,2
1789466415.285855,2398,2880,2
1789466415.288172,2353,2879,2
1789466415.2902431,1867,2876,2
1789466415.291543,1893,2876,2
1789466415.294101,2295,2878,2
1789466415.298578,2468,2878,2
1789466415.2994602,1974,2878,2
1789466415.300045,2326,2878,2
1789466415.3019679,2239,2878,2
1789466415.3053179,1938,2876,2
1789466415.307627,1873,2876,2
1789466415.307775,2099,2877,2
1789466415.3100429,1815,2876,2
1789466415.312305,1922,2875,2
1789466415.3146439,1822,2874,2
1789466415.315712,1744,2874,2
1789466415.32047,2131,2878,2
1789466415.320993,2460,2878,2
1789466415.323282,2452,2879,2
1789466415.325263,2158,2879,2
1789466415.326936,2136,2876,2
1789466415.328824,2014,2877,2
1789466415.331267,2338,2879,2
1789466415.333449,1995,2878,2
1789466415.3337102,1735,2875,2
1789466415.336276,1701,2876,2
1789466415.337576,1860,2876,2
1789466415.339658,2437,2878,2
1789466415.341891,2291,2879,2
1789466415.344479,2558,2881,2
1789466415.345613,2106,2878,2
1789466415.347908,2585,2879,2
1789466415.350202,2378,2879,2
1789466415.351543,1927,2876,2
1789466415.3541,2349,2879,2
1789466415.3562539,1847,2876,2
1789466415.358571,1540,2876,2
1789466415.359869,1288,2875,2
1789466415.3619452,1291,2875,2
1789466415.364266,1691,2875,2
1789466415.365568,1951,2878,2
1789466415.371072,1976,2878,2
1789466415.372072,1987,2877,2
1789466415.372947,2166,2879,2
1789466415.374437,3077,2881,2
1789466415.376124,2864,2880,2
1789466415.3799329,2131,2879,2
1789466415.382525,2045,2876,2
1789466415.3827279,2099,2877,2
1789466415.3848572,2319,2879,2
1789466415.386168,2074,2878,2
1789466415.387532,2309,2878,2
1789466415.393079,2154,2879,2
1789466415.393575,2241,2879,2
1789466415.394422,2569,2880,2
1789466415.3961332,2920,2882,2
1789466415.397758,1944,2877,2
1789466415.4015281,2113,2878,2
1789466415.404165,2420,2879,2
1789466415.404361,2135,2879,2
1789466415.4066901,1569,2876,2
1789466415.408003,1436,2876,2
1789466415.410563,2163,2879,2
1789466415.4118662,2889,2880,2
1789466415.4139578,2379,2879,2
1789466415.416518,2486,2880,2
1789466415.417817,2793,2881,2
1789466415.419968,2237,2879,2
1789466415.422038,1526,2876,2
1789466415.424594,2041,2877,2
1789466415.425893,1888,2877,2
1789466415.428402,1885,2875,2
1789466415.429502,1990,2878,2
1789466415.431621,1622,2875,2
1789466415.433697,2455,2879,2
1789466415.436247,2460,2878,2
1789466415.437501,2886,2879,2
1789466415.4430459,3122,2880,2
1789466415.443167,2112,2875,2
1789466415.445685,2353,2878,2
1789466415.445933,2351,2879,2
1789466415.4497778,2054,2878,2
1789466415.4512131,3408,2880,2
1789466415.453742,2671,2879,2
1789466415.453846,1046,2876,2
1789466415.45606,1706,2875,2
1789466415.458637,2370,2877,2
1789466415.4634,2230,2877,2
1789466415.4635131,1459,2875,2
1789466415.464294,2567,2879,2
1789466415.46625,2713,2879,2
1789466415.46782,1826,2876,2
1789466415.471221,1771,2874,2
1789466415.47376,2541,2880,2
1789466415.473938,2463,2880,2
1789466415.475895,2160,2878,2
1789466415.4783318,2395,2880,2
1789466415.479625,2807,2880,2
1789466415.482189,2001,2877,2
1789466415.483521,2254,2878,2
1789466415.485594,2663,2878,2
1789466415.4879029,2016,2877,2
1789466415.489964,2316,2879,2
1789466415.492269,2453,2880,2
1789466415.4945788,1844,2876,2
1789466415.495871,2269,2879,2
1789466415.498175,2335,2877,2
1789466415.50049,1494,2875,2
1789466415.501782,1891,2878,2
1789466415.504331,2105,2879,2
1789466415.5065658,2392,2879,2
1789466415.511051,2558,2879,2
1789466415.5115469,2759,2879,2
1789466415.512023,2147,2878,2
1789466415.513613,1265,2876,2
1789466415.516186,1606,2876,2
1789466415.51877,2595,2879,2
1789466415.521408,3033,2882,2
1789466415.521634,2245,2878,2
1789466415.524246,2248,2878,2
1789466415.5255191,2720,2879,2
1789466415.527856,2783,2881,2
1789466415.530187,2454,2879,2
1789466415.5315268,1782,2875,2
1789466415.533839,1915,2876,2
1789466415.536212,1991,2876,2
1789466415.538274,1949,2878,2
1789466415.540575,2177,2878,2
1789466415.541686,2478,2878,2
1789466415.543766,2462,2880,2
1789466415.546069,2162,2879,2
1789466415.5483892,1488,2877,2
1789466415.5496829,2236,2878,2
1789466415.552233,2642,2880,2
1789466415.553514,2094,2878,2
1789466415.55773,2409,2879,2
1789466415.5581791,2373,2878,2
1789466415.5603461,2084,2877,2
1789466415.561962,2675,2879,2
1789466415.565259,2764,2880,2
1789466415.568059,1684,2877,2
1789466415.568202,1173,2878,2
1789466415.570156,1578,2877,2
1789466415.57149,2241,2878,2
1789466415.574044,1157,2874,2
1789466415.576601,1779,2877,2
1789466415.5778072,2412,2879,2
1789466415.580113,2618,2880,2
1789466415.581491,1753,2877,2
1789466415.583887,2580,2880,2
1789466415.5862908,3017,2880,2
1789466415.588598,2524,2879,2
1789466415.589654,2511,2879,2
1789466415.592227,2524,2880,2
1789466415.5935261,1820,2878,2
1789466415.5960782,1459,2876,2
1789466415.5983942,1769,2876,2
1789466415.599686,1906,2877,2
1789466415.6055171,3026,2881,2
1789466415.60599,2218,2878,2
1789466415.6064472,1507,2875,2
1789466415.608418,1174,2874,2
1789466415.610404,2288,2878,2
1789466415.612399,3130,2880,2
1789466415.6139572,2111,2879,2
1789466415.616908,1945,2876,2
1789466415.618966,1977,2876,2
1789466415.6200168,1857,2877,2
1789466415.6224089,2860,2880,2
1789466415.626202,2709,2879,2
1789466415.626691,1639,2876,2
1789466415.6287842,1695,2876,2
1789466415.6307032,1672,2876,2
1789466415.6323462,2032,2877,2
1789466415.63402,2371,2879,2
1789466415.636978,1904,2877,2
1789466415.638655,2171,2878,2
1789466415.6398451,2087,2878,2
1789466415.6423979,2184,2879,2
1789466415.643573,2333,2879,2
1789466415.646144,2379,2879,2
1789466415.6487098,2607,2879,2
1789466415.650006,2471,2879,2
1789466415.652307,2386,2879,2
1789466415.654451,2234,2879,2
1789466415.655533,2466,2880,2
1789466415.657847,1996,2879,2
1789466415.660397,1352,2875,2
1789466415.661688,435,2876,2
1789466415.6642408,2302,2878,2
1789466415.6655319,3060,2881,2
1789466415.6680808,2697,2879,2
1789466415.673881,1963,2879,2
1789466415.674328,1615,2875,2
1789466415.6744409,2139,2876,2
1789466415.676526,2294,2877,2
1789466415.678818,2815,2880,2
1789466415.6804101,2392,2878,2
1789466415.681804,2160,2878,2
1789466415.684692,2232,2878,2
1789466415.686396,987,2874,2
1789466415.687701,1891,2876,2
1789466415.690122,2622,2879,2
1789466415.692204,2657,2880,2
1789466415.6943638,2663,2879,2
1789466415.6956,2291,2878,2
1789466415.697912,1763,2876,2
1789466415.700219,1613,2876,2
1789466415.7015219,2328,2879,2
1789466415.704072,2091,2876,2
1789466415.706624,1833,2875,2
1789466415.707681,2429,2878,2
1789466415.710231,1898,2878,2
1789466415.7115362,2427,2878,2
1789466415.713853,2508,2878,2
1789466415.716404,2250,2878,2
1789466415.721892,2119,2876,2
1789466415.722614,1935,2877,2
1789466415.722717,2450,2880,2
1789466415.7242932,1698,2875,2
1789466415.726282,1717,2876,2
1789466415.7278662,2507,2879,2
1789466415.729769,2741,2880,2
1789466415.732917,2102,2877,2
1789466415.7346802,2227,2879,2
1789466415.735737,1916,2876,2
1789466415.7382889,1783,2877,2
1789466415.742826,2004,2877,2
1789466415.743285,2391,2879,2
1789466415.7453609,1970,2877,2
1789466415.748436,1851,2878,2
1789466415.748545,2374,2878,2
1789466415.7506099,1740,2875,2
1789466415.753953,1258,2877,2
1789466415.7541409,2436,2878,2
1789466415.756175,2822,2881,2
1789466415.758239,2570,2879,2
1789466415.7595341,2560,2879,2
1789466415.761865,1564,2875,2
1789466415.764425,1453,2875,2
1789466415.7655308,1741,2876,2
1789466415.76785,2113,2878,2
1789466415.7701602,2546,2879,2
1789466415.771529,2028,2876,2
1789466415.773835,1613,2876,2
1789466415.7761228,1660,2875,2
1789466415.778681,1774,2874,2
1789466415.779976,2693,2879,2
1789466415.782527,2528,2879,2
1789466415.783822,2100,2875,2
1789466415.786127,2326,2879,2
1789466415.791615,1843,2877,2
1789466415.792468,2118,2877,2
1789466415.793751,2457,2880,2
1789466415.793927,2200,2878,2
1789466415.797343,2101,2879,2
1789466415.799136,2099,2879,2
1789466415.802638,1724,2876,2
1789466415.803073,2492,2879,2
1789466415.805142,2615,2879,2
1789466415.806446,1296,2877,2
1789466415.807671,1261,2876,2
1789466415.81318,2072,2878,2
1789466415.814025,2791,2880,2
1789466415.815281,1909,2877,2
1789466415.816851,1621,2875,2
1789466415.818347,2147,2877,2
1789466415.820392,2690,2880,2
1789466415.8238668,2405,2879,2
1789466415.8240159,2091,2875,2
1789466415.826109,1898,2877,2
1789466415.8284218,1879,2875,2
1789466415.829721,1946,2877,2
1789466415.8322759,1768,2875,2
1789466415.834579,2569,2879,2
1789466415.835914,1777,2875,2
1789466415.8382678,1942,2876,2
1789466415.840595,2483,2879,2
1789466415.841892,2481,2879,2
1789466415.843956,2386,2879,2
1789466415.846446,1160,2876,2
1789466415.847757,1949,2877,2
1789466415.850306,2420,2879,2
1789466415.852381,2139,2878,2
1789466415.8536909,2181,2879,2
1789466415.8562438,2109,2879,2
1789466415.8602712,2274,2878,2
1789466415.861088,2212,2878,2
1789466415.8634188,2155,2879,2
1789466415.863709,2040,2877,2
1789466415.866552,1838,2876,2
1789466415.872759,1845,2877,2
1789466415.872926,1806,2876,2
1789466415.873156,2227,2878,2
1789466415.875283,2325,2879,2
1789466415.876587,2169,2879,2
1789466415.877805,2089,2878,2
1789466415.8827431,2243,2879,2
1789466415.883212,2201,2879,2
1789466415.8854778,2439,2879,2
1789466415.8855722,2309,2880,2
1789466415.8886771,1877,2877,2
1789466415.890641,1885,2876,2
1789466415.8943539,2101,2878,2
1789466415.894519,1770,2876,2
1789466415.896571,2040,2876,2
1789466415.897632,2112,2878,2
1789466415.900183,2119,2878,2
1789466415.901526,2183,2878,2
1789466415.9038458,1842,2876,2
1789466415.9059799,2061,2877,2
1789466415.908166,2393,2879,2
1789466415.9104881,2084,2879,2
1789466415.911783,1925,2876,2
1789466415.914335,2326,2879,2
1789466415.9156291,2287,2878,2
1789466415.9177039,1802,2877,2
1789466415.9202518,2430,2879,2
1789466415.9215481,2468,2879,2
1789466415.924097,2099,2879,2
1789466415.926829,2053,2879,2
1789466415.930769,1774,2876,2
1789466415.9312708,2165,2878,2
1789466415.933463,1976,2877,2
1789466415.933651,1758,2876,2
1789466415.937105,1948,2875,2
1789466415.938859,2006,2879,2
1789466415.942552,2025,2878,2
1789466415.942698,1994,2878,2
1789466415.944432,2256,2879,2
1789466415.945739,2226,2878,2
1789466415.9515588,2077,2876,2
1789466415.9519858,2027,2878,2
1789466415.952089,2039,2877,2
1789466415.9560199,2084,2879,2
1789466415.95646,2088,2878,2
1789466415.959262,2037,2878,2
1789466415.9625971,2088,2877,2
1789466415.962784,2162,2878,2
1789466415.964776,2146,2879,2
1789466415.966075,2050,2877,2
1789466415.968323,2052,2878,2
1789466415.969623,2072,2877,2
1789466415.971935,2080,2878,2
1789466415.974484,2031,2877,2
1789466415.975774,2028,2877,2
1789466415.978322,2039,2878,2
1789466415.980628,2072,2878,2
1789466415.981893,1998,2877,2
1789466415.9844391,1974,2877,2
1789466415.985729,1985,2878,2
1789466415.9877918,2000,2877,2
1789466415.990101,1992,2876,2
1789466415.992405,1960,2876,2
1789466415.993689,1956,2877,2
1789466415.997369,2008,2878,2
1789466415.999667,1952,2876,2
1789466415.999833,1927,2876,2
1789466416.0038579,1974,2878,2
1789466416.0052118,1969,2877,2
1789466416.008789,1976,2876,2
1789466416.0091379,1954,2876,2
1789466416.0110972,1911,2876,2
1789466416.0124002,1931,2877,2
1789466416.014563,1958,2876,2
1789466416.018646,1871,2876,2
1789466416.019131,1861,2877,2
1789466416.020921,1894,2877,2
1789466416.0227041,1920,2876,2
1789466416.024207,1914,2876,2
1789466416.025899,1888,2875,2
1789466416.029213,1894,2876,2
1789466416.0312252,1954,2876,2
1789466416.032526,1894,2876,2
1789466416.03382,1862,2878,2
1789466416.036382,1901,2877,2
1789466416.0376792,1894,2876,2
1789466416.039989,1929,2877,2
1789466416.042298,1934,2877,2
1789466416.0435882,1933,2878,2
1789466416.046133,1988,2878,2
1789466416.0484412,1960,2875,2
1789466416.0507488,1925,2876,2
1789466416.0517929,1925,2876,2
1789466416.054349,1955,2876,2
1789466416.055646,1942,2877,2
1789466416.058197,1911,2875,2
1789466416.064086,1915,2875,2
1789466416.064539,1919,2876,2
1789466416.065001,1975,2875,2
1789466416.066742,1921,2875,2
1789466416.068629,1901,2877,2
1789466416.0701241,1972,2876,2
1789466416.071695,2019,2877,2
1789466416.074941,1993,2876,2
1789466416.076852,1992,2878,2
1789466416.078162,1999,2878,2
1789466416.0807161,1940,2876,2
1789466416.082012,1894,2876,2
1789466416.0843341,1899,2877,2
1789466416.0856352,1947,2877,2
1789466416.087889,1992,2877,2
1789466416.09044,1997,2875,2
1789466416.091732,1988,2878,2
1789466416.09428,1982,2878,2
1789466416.096587,2004,2879,2
1789466416.097876,2035,2878,2
1789466416.1001909,1966,2877,2
1789466416.102737,1965,2878,2
1789466416.10379,1932,2877,2
1789466416.106103,1948,2877,2
1789466416.108649,1884,2875,2
1789466416.1132329,1745,2876,2
1789466416.113684,1847,2875,2
1789466416.113764,1997,2878,2
1789466416.115919,1974,2874,2
1789466416.118793,1997,2876,2
1789466416.1207669,2117,2876,2
1789466416.124078,2184,2880,2
1789466416.124206,2106,2878,2
1789466416.1261928,1936,2876,2
1789466416.128521,1824,2876,2
1789466416.129727,2171,2879,2
1789466416.132284,1932,2877,2
1789466416.133625,1937,2877,2
1789466416.1359339,1905,2877,2
1789466416.138247,1902,2875,2
1789466416.140566,1901,2877,2
1789466416.1416209,1970,2876,2
1789466416.143927,2089,2877,2
1789466416.145982,2242,2878,2
1789466416.1482902,2061,2878,2
1789466416.1505961,1964,2875,2
1789466416.1516511,2082,2878,2
1789466416.154197,2045,2877,2
1789466416.159306,1887,2877,2
1789466416.15973,1652,2877,2
1789466416.160126,1921,2877,2
1789466416.16191,2424,2879,2
1789466416.16476,2235,2878,2
1789466416.166738,1651,2876,2
1789466416.1697721,1566,2876,2
1789466416.1699982,2192,2878,2
1789466416.172786,2180,2877,2
1789466416.174083,2286,2880,2
1789466416.176147,1871,2876,2
1789466416.1787221,1795,2876,2
1789466416.1800199,1962,2878,2
1789466416.1825159,2035,2877,2
1789466416.183807,1945,2877,2
1789466416.1863549,2080,2877,2
1789466416.187653,2211,2879,2
1789466416.190114,1956,2876,2
1789466416.192659,2249,2878,2
1789466416.193708,2213,2878,2
1789466416.1962528,2184,2878,2
1789466416.1987882,2058,2878,2
1789466416.200078,1966,2877,2
1789466416.20469,1966,2876,2
1789466416.205235,2013,2877,2
1789466416.207299,2094,2877,2
1789466416.209158,2042,2878,2
1789466416.210637,1936,2878,2
1789466416.2123241,2132,2877,2
1789466416.21556,2287,2878,2
1789466416.2156851,2152,2878,2
1789466416.2182841,2060,2876,2
1789466416.220441,2053,2876,2
1789466416.2227561,2226,2878,2
1789466416.2238069,2218,2879,2
1789466416.226208,1953,2876,2
1789466416.228513,1777,2875,2
1789466416.230829,2027,2878,2
1789466416.232125,2053,2878,2
1789466416.2341938,1998,2876,2
1789466416.2367418,1992,2878,2
1789466416.238034,2219,2879,2
1789466416.2403378,2259,2879,2
1789466416.241627,2184,2879,2
1789466416.244172,2105,2878,2
1789466416.2504032,1998,2878,2
1789466416.2508621,2105,2878,2
1789466416.250921,2119,2879,2
1789466416.252991,2050,2876,2
1789466416.2548401,1896,2876,2
1789466416.25631,2156,2879,2
1789466416.257987,2290,2878,2
1789466416.261135,2207,2878,2
1789466416.263086,2166,2877,2
1789466416.264396,2104,2879,2
1789466416.26569,1994,2876,2
1789466416.270615,1889,2878,2
1789466416.2714581,1969,2878,2
1789466416.27288,2005,2877,2
1789466416.274602,1989,2876,2
1789466416.277718,2036,2879,2
1789466416.2778912,2004,2877,2
1789466416.280925,2037,2877,2
1789466416.282878,2014,2876,2
1789466416.283942,1976,2876,2
1789466416.286496,2014,2878,2
1789466416.288567,2115,2878,2
1789466416.2896519,2172,2879,2
1789466416.292182,2044,2878,2
1789466416.2942379,1854,2875,2
1789466416.296797,1924,2878,2
1789466416.2980878,1955,2876,2
1789466416.3003619,1897,2877,2
1789466416.3024309,2091,2878,2
1789466416.303722,2091,2877,2
1789466416.30627,1930,2877,2
1789466416.308579,1841,2875,2
1789466416.309869,1847,2876,2
1789466416.3160279,1902,2876,2
1789466416.316446,2006,2879,2
1789466416.316895,1998,2877,2
1789466416.318379,1887,2877,2
1789466416.319915,1974,2877,2
1789466416.323169,1998,2876,2
1789466416.326211,2074,2878,2
1789466416.3263922,2051,2878,2
1789466416.328298,2053,2878,2
1789466416.329673,2024,2878,2
1789466416.3322299,1947,2875,2
1789466416.33455,1898,2877,2
1789466416.33585,2031,2877,2
1789466416.3381639,2018,2877,2
1789466416.340713,2012,2876,2
1789466416.342004,1942,2875,2
1789466416.3445508,1957,2878,2
1789466416.345841,2067,2877,2
1789466416.3483882,2007,2879,2
1789466416.3507059,1918,2876,2
1789466416.351755,2182,2879,2
1789466416.353976,2075,2878,2
1789466416.356527,2040,2878,2
1789466416.357812,2131,2879,2
1789466416.361266,2088,2879,2
1789466416.364034,1977,2877,2
1789466416.364147,2006,2878,2
1789466416.367357,1986,2875,2
1789466416.368958,1976,2877,2
1789466416.3720808,2028,2878,2
1789466416.3722901,2074,2877,2
1789466416.3742561,2025,2879,2
1789466416.376333,2031,2878,2
1789466416.37841,2059,2877,2
1789466416.379714,2094,2878,2
1789466416.38203,2064,2878,2
1789466416.384541,2062,2877,2
1789466416.3858318,2106,2878,2
1789466416.388384,2110,2878,2
1789466416.390754,2080,2880,2
1789466416.392044,2050,2878,2
1789466416.394589,2032,2877,2
1789466416.3956962,2079,2879,2
1789466416.397999,2076,2878,2
1789466416.400299,1993,2876,2
1789466416.4027278,2032,2877,2
1789466416.406539,2083,2877,2
1789466416.407372,2088,2876,2
1789466416.4097059,2044,2878,2
1789466416.409867,1999,2877,2
1789466416.414749,2032,2877,2
1789466416.417683,2099,2878,2
1789466416.4178848,2013,2876,2
1789466416.418028,2003,2877,2
1789466416.4199538,2072,2878,2
1789466416.4223082,2104,2877,2
1789466416.42364,2077,2877,2
1789466416.425719,2081,2877,2
1789466416.4282749,2073,2877,2
1789466416.429653,2089,2877,2
1789466416.432207,2055,2878,2
1789466416.434755,2029,2876,2
1789466416.436044,2054,2877,2
1789466416.4383519,2063,2877,2
1789466416.4396238,2054,2876,2
1789466416.442176,2014,2878,2
1789466416.4444768,2001,2876,2
1789466416.445769,2046,2877,2
1789466416.448077,2040,2879,2
1789466416.453183,1983,2877,2
1789466416.45406,1999,2877,2
1789466416.454844,2089,2878,2
1789466416.4577448,2132,2879,2
1789466416.458216,2067,2878,2
1789466416.459697,2013,2877,2
1789466416.4636831,2010,2877,2
1789466416.4639099,2017,2878,2
1789466416.466439,1952,2875,2
1789466416.468742,1963,2877,2
1789466416.469792,2025,2878,2
1789466416.472352,2051,2877,2
1789466416.473647,2010,2875,2
1789466416.476197,2018,2878,2
1789466416.478745,2033,2878,2
1789466416.4800372,2088,2877,2
1789466416.4825852,2032,2876,2
1789466416.483875,2020,2876,2
1789466416.486423,2065,2878,2
1789466416.487713,2140,2880,2
1789466416.490259,2039,2876,2
1789466416.491617,1953,2875,2
1789466416.497652,1954,2875,2
1789466416.497764,1999,2878,2
1789466416.4981928,2048,2878,2
1789466416.500339,1972,2877,2
1789466416.5023448,1986,2877,2
1789466416.50415,2025,2877,2
1789466416.5080261,2082,2879,2
1789466416.508141,2069,2878,2
1789466416.510111,1988,2878,2
1789466416.5126688,2025,2878,2
1789466416.513969,2063,2878,2
1789466416.516553,1984,2877,2
1789466416.517846,1937,2876,2
1789466416.520397,1991,2878,2
1789466416.521694,2020,2877,2
1789466416.5242429,2034,2878,2
1789466416.5256388,2014,2878,2
1789466416.52819,2025,2877,2
1789466416.530429,2110,2879,2
1789466416.531722,2036,2876,2
1789466416.534029,2009,2878,2
1789466416.536514,2031,2877,2
1789466416.538829,2058,2877,2
1789466416.543013,2083,2878,2
1789466416.543118,2042,2877,2
1789466416.5455098,1997,2877,2
1789466416.5477061,2064,2878,2
1789466416.548102,2035,2878,2
1789466416.5505521,1998,2877,2
1789466416.553171,1998,2878,2
1789466416.55509,2017,2878,2
1789466416.556159,2068,2877,2
1789466416.558532,2010,2878,2
1789466416.559826,1975,2877,2
1789466416.5621388,1984,2877,2
1789466416.564688,2041,2878,2
1789466416.565734,1965,2876,2
1789466416.568287,1966,2877,2
1789466416.569674,2023,2878,2
1789466416.572225,2061,2877,2
1789466416.5743968,2044,2878,2
1789466416.576698,2011,2877,2
1789466416.577739,2008,2877,2
1789466416.5802848,2079,2878,2
1789466416.582846,2033,2876,2
1789466416.584137,1974,2878,2
1789466416.5884979,2014,2878,2
1789466416.5889459,2071,2877,2
1789466416.590558,2089,2877,2
1789466416.59202,2028,2877,2
1789466416.595252,2000,2877,2
1789466416.597826,2027,2877,2
1789466416.597986,2032,2878,2
1789466416.59973,2022,2876,2
1789466416.6023,1977,2877,2
1789466416.603638,2078,2878,2
1789466416.605959,2144,2879,2
1789466416.608334,2046,2878,2
1789466416.610836,2013,2877,2
1789466416.61214,1998,2877,2
1789466416.614697,2074,2878,2
1789466416.615756,2015,2876,2
1789466416.6181529,1992,2878,2
1789466416.619875,1991,2878,2
1789466416.622611,2021,2877,2
1789466416.623998,2058,2878,2
1789466416.6266,2021,2877,2
1789466416.627668,2002,2878,2
1789466416.629835,2081,2878,2
1789466416.635277,2041,2875,2
1789466416.636408,2019,2878,2
1789466416.636972,2022,2877,2
1789466416.640203,2053,2876,2
1789466416.640647,2064,2876,2
1789466416.6421142,2064,2877,2
1789466416.6441479,2010,2877,2
1789466416.646989,2119,2877,2
1789466416.6498299,2083,2879,2
1789466416.6499252,1974,2877,2
1789466416.652111,2060,2878,2
1789466416.65779,2040,2878,2
1789466416.658677,2079,2876,2
1789466416.658774,2064,2879,2
1789466416.660303,2004,2877,2
1789466416.662188,2016,2878,2
1789466416.6638222,2065,2878,2
1789466416.6680179,1999,2877,2
1789466416.668158,2004,2878,2
1789466416.670191,2028,2879,2
1789466416.6725152,2082,2877,2
1789466416.6737459,2067,2878,2
1789466416.6759481,2074,2877,2
1789466416.678025,2021,2877,2
1789466416.680342,2057,2878,2
1789466416.682403,1994,2876,2
1789466416.684528,1991,2877,2
1789466416.6858199,2028,2879,2
1789466416.688124,2092,2876,2
1789466416.6902568,2060,2876,2
1789466416.69232,2003,2878,2
1789466416.693737,2001,2877,2
1789466416.695891,2069,2877,2
1789466416.698207,2067,2878,2
1789466416.700289,2025,2876,2
1789466416.705394,2028,2877,2
1789466416.705518,2070,2878,2
1789466416.705945,2103,2879,2
1789466416.7078981,2022,2878,2
1789466416.711819,1977,2877,2
1789466416.713291,1994,2877,2
1789466416.7157671,2046,2878,2
1789466416.7158642,2011,2877,2
1789466416.7179809,2010,2878,2
1789466416.720486,2075,2877,2
1789466416.721941,2085,2876,2
1789466416.7258089,2046,2878,2
1789466416.72597,2067,2877,2
1789466416.72879,2061,2877,2
1789466416.730322,2130,2877,2
1789466416.731897,2002,2875,2
1789466416.736151,1952,2878,2
1789466416.736258,2024,2877,2
1789466416.7383099,2071,2876,2
1789466416.739624,2079,2879,2
1789466416.7419488,2038,2876,2
1789466416.744268,2020,2877,2
1789466416.7468312,2071,2877,2
1789466416.748081,2084,2878,2
1789466416.75063,2010,2877,2
1789466416.75168,2039,2878,2
1789466416.7537868,2086,2878,2
1789466416.756234,2102,2879,2
1789466416.7585468,2050,2878,2
1789466416.7597692,2040,2877,2
1789466416.762316,2024,2877,2
1789466416.763639,2089,2878,2
1789466416.765706,2040,2876,2
1789466416.768275,2031,2877,2
1789466416.7731662,2103,2878,2
1789466416.773291,2067,2876,2
1789466416.7756228,2026,2877,2
1789466416.77581,2034,2877,2
1789466416.77896,2020,2876,2
1789466416.7811131,2081,2878,2
1789466416.783283,2016,2876,2
1789466416.784998,1983,2878,2
1789466416.786303,2027,2878,2
1789466416.788608,2054,2877,2
1789466416.789908,2089,2878,2
1789466416.7924669,2064,2878,2
1789466416.7937632,2033,2878,2
1789466416.7960792,2072,2877,2
1789466416.798389,2061,2879,2
1789466416.7996821,1987,2878,2
1789466416.8019898,2018,2879,2
1789466416.804299,2043,2878,2
1789466416.805632,2080,2878,2
1789466416.808173,2066,2879,2
1789466416.810482,1960,2877,2
1789466416.812819,1953,2876,2
1789466416.813872,1998,2878,2
1789466416.819374,1933,2876,2
1789466416.820564,1976,2878,2
1789466416.821802,1974,2877,2
1789466416.821992,2098,2877,2
1789466416.8239622,2220,2878,2
1789466416.827065,2325,2877,2
1789466416.82897,2258,2877,2
1789466416.831054,2180,2877,2
1789466416.832353,1893,2877,2
1789466416.834445,1695,2877,2
1789466416.835737,1776,2878,2
1789466416.838096,2043,2876,2
1789466416.8401668,2472,2879,2
1789466416.842473,2312,2878,2
1789466416.8437629,2015,2877,2
1789466416.846069,1972,2879,2
1789466416.8487449,2695,2879,2
1789466416.849816,2149,2877,2
1789466416.852149,1129,2877,2
1789466416.854712,1446,2877,2
1789466416.8560069,1941,2878,2
1789466416.858314,1732,2875,2
1789466416.859662,1575,2875,2
1789466416.8654048,1770,2877,2
1789466416.865898,2061,2878,2
1789466416.866403,2032,2876,2
1789466416.8683531,2236,2877,2
1789466416.8707042,2632,2880,2
1789466416.87391,2633,2879,2
1789466416.874015,2971,2881,2
1789466416.875951,2037,2878,2
1789466416.8791401,1522,2875,2
1789466416.880411,1471,2877,2
1789466416.881715,1604,2876,2
1789466416.883792,1899,2877,2
1789466416.885858,2276,2879,2
1789466416.888404,1914,2876,2
1789466416.889694,1643,2876,2
1789466416.8922398,2176,2879,2
1789466416.894551,1847,2876,2
1789466416.895663,1852,2877,2
1789466416.897975,2159,2877,2
1789466416.900288,2420,2879,2
1789466416.901654,2684,2879,2
1789466416.90396,2544,2878,2
1789466416.90626,1575,2876,2
1789466416.91076,1486,2876,2
1789466416.911183,1761,2876,2
1789466416.913267,2057,2877,2
1789466416.915116,2303,2879,2
1789466416.9166121,2137,2878,2
1789466416.9200058,1779,2875,2
1789466416.920196,1881,2877,2
1789466416.9222012,2289,2878,2
1789466416.924272,2231,2878,2
1789466416.9265978,2047,2876,2
1789466416.927899,2089,2877,2
1789466416.93021,2200,2879,2
1789466416.932524,2107,2878,2
1789466416.933822,1914,2875,2
1789466416.93637,1810,2877,2
1789466416.937661,1958,2876,2
1789466416.939969,2184,2879,2
1789466416.942514,2247,2879,2
1789466416.9438038,2170,2878,2
1789466416.946104,2000,2875,2
1789466416.948236,2019,2877,2
1789466416.950791,2206,2880,2
1789466416.955105,2119,2879,2
1789466416.9558752,1974,2876,2
1789466416.956652,1891,2876,2
1789466416.959409,1947,2876,2
1789466416.960654,2025,2878,2
1789466416.962646,2033,2879,2
1789466416.9645472,2173,2878,2
1789466416.9665122,2001,2875,2
1789466416.967838,1931,2877,2
1789466416.970402,2052,2876,2
1789466416.9717069,2163,2880,2
1789466416.974244,2289,2878,2
1789466416.975625,1984,2878,2
1789466416.97793,2562,2878,2
1789466416.9799979,2149,2878,2
1789466416.982303,1654,2877,2
1789466416.983617,1535,2876,2
1789466416.986165,1658,2877,2
1789466416.9887118,1857,2876,2
1789466416.989762,1948,2876,2
1789466416.992343,1846,2878,2
1789466416.993633,2007,2877,2
1789466416.999,2048,2877,2
1789466416.999105,2183,2878,2
1789466417.0016088,2220,2879,2
1789466417.001816,2130,2878,2
1789466417.004928,2192,2878,2
1789466417.006599,2002,2877,2
1789466417.008467,2148,2879,2
1789466417.010581,2196,2878,2
1789466417.011879,2226,2878,2
1789466417.014273,2153,2878,2
1789466417.016358,1728,2876,2
1789466417.018731,1997,2877,2
1789466417.019788,2189,2878,2
1789466417.022342,1973,2876,2
1789466417.023663,1798,2876,2
1789466417.025974,1695,2876,2
1789466417.028276,1921,2877,2
1789466417.030585,1971,2877,2
1789466417.031648,2234,2879,2
1789466417.0339708,1960,2877,2
1789466417.036431,2096,2878,2
1789466417.037728,2285,2880,2
1789466417.0435479,2000,2877,2
1789466417.044342,1869,2876,2
1789466417.044738,1484,2876,2
1789466417.046412,1636,2875,2
1789466417.048176,2130,2878,2
1789466417.049717,2355,2878,2
1789466417.053343,1840,2877,2
1789466417.055495,2325,2879,2
1789466417.055667,2946,2880,2
1789466417.057971,2054,2879,2
1789466417.060287,1692,2876,2
1789466417.062356,2144,2879,2
1789466417.063683,1965,2876,2
1789466417.0660028,2340,2878,2
1789466417.068458,1824,2875,2
1789466417.069748,1403,2876,2
1789466417.072294,2196,2879,2
1789466417.0747142,2416,2879,2
1789466417.075764,2094,2878,2
1789466417.078314,2130,2878,2
1789466417.080451,2462,2880,2
1789466417.082749,2030,2877,2
1789466417.084043,3059,2881,2
1789466417.0881221,2658,2880,2
1789466417.088602,1989,2876,2
1789466417.090705,1638,2876,2
1789466417.092146,2203,2878,2
1789466417.095459,2343,2878,2
1789466417.097611,2088,2878,2
1789466417.097781,2132,2878,2
1789466417.100437,2185,2879,2
1789466417.102562,1919,2877,2
1789466417.103859,2032,2876,2
1789466417.106417,2355,2879,2
1789466417.108736,2388,2879,2
1789466417.109789,1795,2875,2
1789466417.1120992,2223,2878,2
1789466417.114539,2084,2877,2
1789466417.115644,1738,2875,2
1789466417.1182,1516,2876,2
1789466417.12044,2342,2880,2
1789466417.121732,2598,2880,2
1789466417.124044,2787,2881,2
1789466417.126347,2834,2880,2
1789466417.1276522,1690,2876,2
1789466417.1318452,2098,2877,2
1789466417.1322901,1882,2877,2
1789466417.135966,1766,2878,2
1789466417.136416,2751,2880,2
1789466417.139445,2340,2878,2
1789466417.1415749,2194,2877,2
1789466417.14169,2165,2878,2
1789466417.1445189,2362,2879,2
1789466417.1458151,2505,2879,2
1789466417.148128,2551,2880,2
1789466417.150688,2439,2879,2
1789466417.151743,2154,2880,2
1789466417.154295,2136,2878,2
1789466417.156366,1941,2878,2
1789466417.1576588,2288,2878,2
1789466417.159966,2341,2878,2
1789466417.162515,2502,2880,2
1789466417.163807,2200,2879,2
1789466417.166116,2083,2876,2
1789466417.168427,2194,2875,2
1789466417.169719,2174,2879,2
1789466417.172409,2166,2878,2
1789466417.1762218,1579,2875,2
1789466417.176343,2400,2879,2
1789466417.1799428,1622,2875,2
1789466417.1804018,1630,2877,2
1789466417.18355,2525,2880,2
1789466417.183724,2836,2880,2
1789466417.185802,2475,2879,2
1789466417.188622,2269,2878,2
1789466417.189735,2254,2878,2
1789466417.192058,2257,2878,2
1789466417.19437,2694,2880,2
1789466417.196672,2944,2879,2
1789466417.19773,2715,2880,2
1789466417.2000399,2386,2879,2
1789466417.202344,2431,2879,2
1789466417.2046552,2355,2878,2
1789466417.205701,2459,2878,2
1789466417.2078269,2258,2878,2
1789466417.2103739,1999,2876,2
1789466417.211665,1729,2877,2
1789466417.213731,1995,2876,2
1789466417.2160408,2205,2879,2
1789466417.221014,2073,2878,2
1789466417.221876,2378,2879,2
1789466417.223667,2173,2878,2
1789466417.2238002,2104,2879,2
1789466417.2266262,2148,2879,2
1789466417.2286038,2369,2879,2
1789466417.230761,2678,2880,2
1789466417.23591,2198,2879,2
1789466417.235947,2000,2875,2
1789466417.239737,2159,2879,2
1789466417.239778,1495,2875,2
1789466417.239813,1841,2876,2
1789466417.250196,2415,2878,2
1789466417.25027,3025,2881,2
1789466417.2503319,2034,2878,2
1789466417.2503932,2000,2879,2
1789466417.250453,2184,2880,2
1789466417.251885,2217,2876,2
1789466417.254538,2780,2881,2
1789466417.255716,2883,2880,2
1789466417.258315,2370,2878,2
1789466417.259743,2842,2880,2
1789466417.262879,1219,2875,2
1789466417.2642581,1737,2876,2
1789466417.2657,2705,2879,2
1789466417.273487,2134,2877,2
1789466417.277353,1494,2876,2
1789466417.2824042,1468,2875,2
1789466417.282756,2470,2879,2
1789466417.2829802,2619,2879,2
1789466417.2851992,2509,2879,2
1789466417.285299,2679,2879,2
1789466417.285367,2885,2881,2
1789466417.2854888,3049,2881,2
1789466417.285675,2039,2877,2
1789466417.2883918,2287,2877,2
1789466417.2989912,2012,2877,2
1789466417.3014,1615,2876,2
1789466417.303183,1556,2876,2
1789466417.306197,2424,2878,2
1789466417.3064551,2221,2878,2
1789466417.306742,2585,2880,2
1789466417.307126,2664,2880,2
1789466417.307543,2454,2879,2
1789466417.311674,1930,2878,2
1789466417.311855,2133,2878,2
1789466417.3119318,2647,2879,2
1789466417.3120372,2450,2879,2
1789466417.3147168,2366,2878,2
1789466417.316086,1929,2877,2
1789466417.31847,1894,2876,2
1789466417.320992,3018,2882,2
1789466417.322201,2640,2879,2
1789466417.324867,1217,2876,2
1789466417.3261068,1472,2878,2
1789466417.328788,2252,2879,2
1789466417.330177,2416,2879,2
1789466417.332818,2043,2877,2
1789466417.334292,1655,2877,2
1789466417.337708,2612,2879,2
1789466417.337831,2469,2879,2
1789466417.340506,2325,2878,2
1789466417.3418748,2784,2880,2
1789466417.3498938,2627,2880,2
1789466417.35244,1986,2874,2
1789466417.352768,1735,2876,2
1789466417.353068,2267,2879,2
1789466417.355523,2379,2879,2
1789466417.357151,1846,2875,2
1789466417.358263,913,2877,2
1789466417.363904,2243,2876,2
1789466417.364277,3043,2881,2
1789466417.364629,2583,2879,2
1789466417.367191,2413,2880,2
1789466417.367523,1827,2878,2
1789466417.368932,2253,2879,2
1789466417.370361,2640,2880,2
1789466417.377602,3178,2880,2
1789466417.380179,2729,2881,2
1789466417.380606,1280,2876,2
1789466417.383003,1813,2877,2
1789466417.384436,2580,2879,2
1789466417.391026,1865,2878,2
1789466417.393835,1414,2876,2
1789466417.393947,2091,2879,2
1789466417.394017,2290,2879,2
1789466417.394081,1996,2877,2
1789466417.394142,2841,2880,2
1789466417.394203,3034,2882,2
1789466417.397014,2435,2878,2
1789466417.398407,2187,2878,2
1789466417.399764,1863,2878,2
1789466417.4024289,1683,2877,2
1789466417.403821,2615,2880,2
1789466417.406582,2305,2879,2
1789466417.4079418,2021,2878,2
1789466417.41063,2332,2879,2
1789466417.412174,2292,2879,2
1789466417.414901,2284,2880,2
1789466417.4162471,2359,2879,2
1789466417.418877,2246,2879,2
1789466417.420237,2161,2876,2
1789466417.422852,2074,2876,2
1789466417.424206,2141,2879,2
1789466417.4268732,1860,2874,2
1789466417.428291,1747,2875,2
1789466417.439753,2606,2880,2
1789466417.4420779,2415,2879,2
1789466417.4428182,2257,2878,2
1789466417.444033,1387,2876,2
1789466417.445185,2322,2879,2
1789466417.45235,2790,2880,2
1789466417.455158,1660,2876,2
1789466417.4552672,2002,2879,2
1789466417.455337,2326,2878,2
1789466417.455402,2163,2878,2
1789466417.4554722,1635,2876,2
1789466417.4555619,2208,2879,2
1789466417.455638,979,2875,2
1789466417.455735,2266,2877,2
1789466417.458359,3203,2882,2
1789466417.4659688,2034,2878,2
1789466417.4684942,1532,2875,2
1789466417.473273,1980,2878,2
1789466417.4801579,2481,2878,2
1789466417.4804878,2427,2880,2
1789466417.481002,2236,2876,2
1789466417.483739,2062,2877,2
1789466417.483849,2105,2879,2
1789466417.48393,2021,2878,2
1789466417.484002,2150,2879,2
1789466417.484066,1858,2875,2
1789466417.484133,2057,2878,2
1789466417.484222,2017,2877,2
1789466417.485746,2465,2879,2
1789466417.488359,2109,2877,2
1789466417.4897301,2178,2879,2
1789466417.4921348,2774,2879,2
1789466417.494854,2607,2880,2
1789466417.4963741,1652,2876,2
1789466417.497783,1979,2876,2
1789466417.500459,1726,2876,2
1789466417.5018501,1786,2877,2
1789466417.50427,1826,2876,2
1789466417.5069609,2070,2878,2
1789466417.5083451,2273,2878,2
1789466417.5108879,1775,2877,2
1789466417.5123641,2517,2879,2
1789466417.513747,2490,2879,2
1789466417.516429,2347,2879,2
1789466417.517796,2880,2881,2
1789466417.520431,2489,2879,2
1789466417.521783,2306,2879,2
1789466417.533221,2070,2877,2
1789466417.536623,1934,2878,2
1789466417.537864,2453,2880,2
1789466417.538155,1183,2874,2
1789466417.5415459,1537,2876,2
1789466417.546263,2229,2877,2
1789466417.546541,2287,2879,2
1789466417.54706,1758,2877,2
1789466417.5492082,2125,2878,2
1789466417.5501351,2385,2878,2
1789466417.550215,2435,2879,2
1789466417.5502799,2413,2878,2
1789466417.5503428,2177,2878,2
1789466417.550401,895,2877,2
1789466417.551914,1376,2876,2
1789466417.5545752,2022,2876,2
1789466417.561963,3011,2882,2
1789466417.565109,2342,2879,2
1789466417.565469,2262,2878,2
1789466417.5693078,1973,2878,2
1789466417.571538,2095,2877,2
1789466417.5789719,2452,2878,2
1789466417.5820842,1969,2877,2
1789466417.5824552,3035,2880,2
1789466417.5826502,2229,2878,2
1789466417.583731,1656,2877,2
1789466417.5838678,2276,2878,2
1789466417.583946,2362,2878,2
1789466417.5841038,2005,2876,2
1789466417.5841799,2425,2881,2
1789466417.584245,2366,2878,2
1789466417.5857978,1949,2878,2
1789466417.588602,2561,2879,2
1789466417.5900228,2209,2878,2
1789466417.592705,1867,2878,2
1789466417.594462,2263,2879,2
1789466417.595843,1831,2875,2
1789466417.598496,2336,2881,2
1789466417.5998578,2543,2880,2
1789466417.602687,2636,2880,2
1789466417.6047418,1934,2877,2
1789466417.606154,1532,2874,2
1789466417.6088,1911,2878,2
1789466417.6098838,2423,2879,2
1789466417.612,1709,2876,2
1789466417.6147,1970,2876,2
1789466417.615807,2340,2879,2
1789466417.617939,2517,2879,2
1789466417.62005,2404,2879,2
1789466417.62263,2685,2879,2
1789466417.623961,2372,2878,2
1789466417.6263008,2060,2878,2
1789466417.6286662,2007,2878,2
1789466417.636263,2047,2877,2
1789466417.636558,2121,2876,2
1789466417.6373482,1791,2876,2
1789466417.637988,2136,2876,2
1789466417.6387782,2202,2879,2
1789466417.6406841,2017,2877,2
1789466417.6438668,2089,2877,2
1789466417.644042,2219,2878,2
1789466417.6460311,2151,2879,2
1789466417.6490839,1881,2876,2
1789466417.653708,2363,2880,2
1789466417.653951,2065,2877,2
1789466417.654273,1867,2877,2
1789466417.6568692,1927,2876,2
1789466417.658184,1760,2876,2
1789466417.6602728,2131,2878,2
1789466417.66622,2880,2881,2
1789466417.666785,3176,2882,2
1789466417.6675131,2407,2878,2
1789466417.670023,1694,2877,2
1789466417.670402,2348,2878,2
1789466417.672914,3059,2881,2
1789466417.675089,1786,2877,2
1789466417.677284,1579,2875,2
1789466417.6818318,1926,2878,2
1789466417.682267,2027,2879,2
1789466417.6824782,1757,2875,2
1789466417.68498,1756,2877,2
1789466417.686302,2488,2879,2
1789466417.688639,1802,2875,2
1789466417.689947,2617,2880,2
1789466417.692254,3049,2881,2
1789466417.694832,2421,2877,2
1789466417.695963,1847,2876,2
1789466417.698048,1804,2877,2
1789466417.700377,2046,2876,2
1789466417.702469,2481,2879,2
1789466417.704803,2082,2876,2
1789466417.706109,1953,2876,2
1789466417.7084649,1923,2878,2
1789466417.709771,2042,2878,2
1789466417.712091,2171,2878,2
1789466417.714426,2208,2878,2
1789466417.715765,2264,2880,2
1789466417.7183318,2288,2879,2
1789466417.7208982,1686,2877,2
1789466417.721965,2645,2879,2
1789466417.729422,2016,2878,2
1789466417.730125,2157,2878,2
1789466417.7302861,2157,2879,2
1789466417.73086,2373,2878,2
1789466417.73327,2433,2880,2
1789466417.735453,2093,2877,2
1789466417.73732,1919,2877,2
1789466417.740404,1987,2878,2
1789466417.7452009,2252,2879,2
1789466417.7455208,1907,2875,2
1789466417.7456682,2240,2878,2
1789466417.746041,1839,2877,2
1789466417.748786,1977,2878,2
1789466417.750104,2070,2877,2
1789466417.752426,2365,2879,2
1789466417.758323,2075,2876,2
1789466417.759871,2196,2879,2
1789466417.7618968,2076,2878,2
1789466417.762212,1629,2876,2
1789466417.7642848,2139,2878,2
1789466417.764857,2030,2879,2
1789466417.767066,1922,2876,2
1789466417.773857,2046,2877,2
1789466417.774097,2514,2879,2
1789466417.774291,2385,2879,2
1789466417.774509,2192,2878,2
1789466417.776612,2146,2878,2
1789466417.77793,2083,2878,2
1789466417.78027,2109,2879,2
1789466417.782377,2104,2878,2
1789466417.784699,2053,2876,2
1789466417.7858062,1985,2877,2
1789466417.78837,2018,2877,2
1789466417.7905521,2097,2879,2
1789466417.791861,2122,2878,2
1789466417.794188,2078,2878,2
1789466417.796754,2102,2878,2
1789466417.798059,2109,2878,2
1789466417.800392,2021,2876,2
1789466417.8027048,2048,2878,2
1789466417.804009,2061,2877,2
1789466417.806342,2088,2879,2
1789466417.808907,2058,2878,2
1789466417.8102121,2032,2877,2
1789466417.8125272,2049,2877,2
1789466417.814611,2105,2878,2
1789466417.815923,2004,2876,2
1789466417.821908,2003,2877,2
1789466417.822504,2065,2878,2
1789466417.8230999,2042,2877,2
1789466417.825303,2000,2876,2
1789466417.827807,1951,2875,2
1789466417.828406,1964,2874,2
1789466417.832163,2006,2878,2
1789466417.8324249,1944,2876,2
1789466417.837439,1894,2877,2
1789466417.837868,1916,2877,2
1789466417.838136,1940,2876,2
1789466417.840849,1931,2876,2
1789466417.8423429,1889,2876,2
1789466417.8437812,1859,2876,2
1789466417.8521159,1902,2876,2
1789466417.853143,1917,2875,2
1789466417.854992,1844,2876,2
1789466417.8551838,1829,2877,2
1789466417.8577862,1878,2876,2
1789466417.858859,1917,2877,2
1789466417.859027,1858,2877,2
1789466417.860833,1880,2875,2
1789466417.86275,1867,2875,2
1789466417.867553,1903,2875,2
1789466417.867771,1806,2875,2
1789466417.867933,1814,2876,2
1789466417.8705971,1872,2875,2
1789466417.871915,1914,2877,2
1789466417.8742669,1870,2876,2
1789466417.876617,1860,2876,2
1789466417.877791,1916,2877,2
1789466417.8798668,1989,2878,2
1789466417.882446,1914,2875,2
1789466417.8845341,1849,2877,2
1789466417.886629,1813,2877,2
1789466417.887826,1922,2877,2
1789466417.89001,1928,2876,2
1789466417.8923578,1884,2876,2
1789466417.894691,1823,2876,2
1789466417.896022,1843,2876,2
1789466417.898346,1867,2876,2
1789466417.900671,1843,2876,2
1789466417.9019809,1867,2877,2
1789466417.904305,1914,2876,2
1789466417.906728,1955,2876,2
1789466417.9080389,1982,2877,2
1789466417.910368,1909,2876,2
1789466417.9161248,2003,2878,2
1789466417.917347,2098,2879,2
1789466417.917995,1974,2875,2
1789466417.91871,1824,2876,2
1789466417.920404,1921,2877,2
1789466417.923174,1995,2877,2
1789466417.9249978,1967,2878,2
1789466417.932321,1908,2875,2
1789466417.932758,1884,2875,2
1789466417.933014,1964,2879,2
1789466417.933286,1936,2875,2
1789466417.9358048,2090,2876,2
1789466417.936075,1999,2876,2
1789466417.9384189,1929,2878,2
1789466417.9398038,1924,2875,2
1789466417.946363,1998,2876,2
1789466417.946524,1884,2875,2
1789466417.9476101,2028,2878,2
1789466417.9494028,1950,2878,2
1789466417.9528801,1983,2876,2
1789466417.9543521,1894,2876,2
1789466417.956766,1983,2876,2
1789466417.961421,2030,2876,2
1789466417.961663,2018,2877,2
1789466417.962,2130,2878,2
1789466417.962247,2023,2877,2
1789466417.964849,1951,2878,2
1789466417.9662578,1967,2877,2
1789466417.9683468,1940,2877,2
1789466417.969836,2035,2878,2
1789466417.972477,1915,2877,2
1789466417.973821,1989,2877,2
1789466417.9764469,1967,2876,2
1789466417.977845,1978,2878,2
1789466417.980277,1992,2877,2
1789466417.982903,1903,2875,2
1789466417.984268,1897,2877,2
1789466417.9866471,1950,2876,2
1789466417.988519,2082,2878,2
1789466417.9909172,2081,2877,2
1789466417.992272,2104,2878,2
1789466417.9947531,2012,2878,2
1789466417.996178,1769,2875,2
1789466417.998834,1871,2875,2
1789466418.000211,1916,2876,2
1789466418.002589,1963,2876,2
1789466418.009398,2161,2879,2
1789466418.011223,2148,2877,2
1789466418.0143402,2079,2878,2
1789466418.016824,2054,2878,2
1789466418.0181582,2155,2879,2
1789466418.018455,2106,2878,2
1789466418.0196328,1864,2877,2
1789466418.0204842,2136,2877,2
1789466418.021624,1916,2878,2
1789466418.023825,1980,2877,2
1789466418.031137,1772,2875,2
1789466418.031616,1741,2875,2
1789466418.0317419,1999,2878,2
1789466418.03188,2151,2878,2
1789466418.031966,2081,2879,2
1789466418.034355,1898,2877,2
1789466418.0360608,1971,2876,2
1789466418.042806,2051,2878,2
1789466418.04495,1982,2877,2
1789466418.045334,1920,2876,2
1789466418.048234,2053,2878,2
1789466418.049553,2178,2878,2
1789466418.051341,1855,2875,2
1789466418.054166,2184,2878,2
1789466418.059354,2130,2879,2
1789466418.060118,1843,2877,2
1789466418.0604749,2044,2877,2
1789466418.063434,2099,2879,2
1789466418.063494,1886,2876,2
1789466418.063618,1762,2876,2
1789466418.065016,1709,2874,2
1789466418.066381,1859,2876,2
1789466418.068574,1923,2876,2
1789466418.069802,1964,2876,2
1789466418.072174,1805,2877,2
1789466418.0747762,2028,2876,2
1789466418.076116,2077,2878,2
1789466418.078527,2034,2878,2
1789466418.07989,1995,2878,2
1789466418.082292,1939,2875,2
1789466418.0848708,1903,2877,2
1789466418.086259,1950,2877,2
1789466418.087795,1988,2877,2
1789466418.089987,2012,2876,2
1789466418.092601,1993,2874,2
1789466418.0942678,1904,2876,2
1789466418.096576,1956,2878,2
1789466418.0977888,2306,2879,2
1789466418.100173,1922,2876,2
1789466418.1029692,1914,2875,2
1789466418.109931,2062,2878,2
1789466418.112781,1990,2877,2
1789466418.1168919,2007,2877,2
1789466418.120988,1940,2876,2
1789466418.121429,1969,2878,2
1789466418.126445,2003,2877,2
1789466418.126741,1845,2876,2
1789466418.129787,1989,2876,2
1789466418.1299121,2089,2877,2
1789466418.130042,2057,2878,2
1789466418.13016,2006,2877,2
1789466418.130285,1919,2876,2
1789466418.130464,2075,2879,2
1789466418.130602,2011,2877,2
1789466418.131952,1948,2876,2
1789466418.134465,1805,2877,2
1789466418.143829,1926,2877,2
1789466418.146445,2058,2877,2
1789466418.146718,2060,2876,2
1789466418.147918,1989,2877,2
1789466418.148148,1891,2875,2
1789466418.150516,1959,2875,2
1789466418.152597,1949,2875,2
1789466418.152985,1857,2875,2
1789466418.158517,1852,2877,2
1789466418.1588411,1838,2876,2
1789466418.159227,1843,2877,2
1789466418.1618402,1878,2877,2
1789466418.162831,1911,2875,2
1789466418.1629481,1950,2878,2
1789466418.16476,1908,2876,2
1789466418.166413,1877,2875,2
1789466418.168473,1850,2876,2
1789466418.171536,1894,2876,2
1789466418.173044,1942,2876,2
1789466418.1744409,1947,2877,2
1789466418.175829,1886,2875,2
1789466418.179404,1884,2876,2
1789466418.179884,1950,2878,2
1789466418.1822321,1942,2875,2
1789466418.184692,1917,2877,2
1789466418.186543,1953,2877,2
1789466418.1887438,2024,2876,2
1789466418.190114,2053,2877,2
1789466418.1987379,1976,2876,2
1789466418.1988428,1897,2876,2
1789466418.1989188,1958,2878,2
1789466418.1989849,1989,2876,2
1789466418.200473,1914,2876,2
1789466418.202084,1902,2876,2
1789466418.206136,1967,2876,2
1789466418.206194,2014,2877,2
1789466418.2171772,1964,2876,2
1789466418.2223291,1918,2876,2
1789466418.236463,1928,2876,2
1789466418.240505,1949,2876,2
1789466418.240628,1920,2876,2
1789466418.2407098,1895,2878,2
1789466418.240779,1967,2877,2
1789466418.240881,2003,2877,2
1789466418.24096,1967,2876,2
1789466418.241024,1965,2877,2
1789466418.241125,1934,2876,2
1789466418.2411919,1986,2878,2
1789466418.241282,1997,2876,2
1789466418.241345,1965,2876,2
1789466418.241408,1993,2876,2
1789466418.241485,2049,2876,2
1789466418.241549,1997,2877,2
1789466418.2428749,2002,2876,2
1789466418.244289,2048,2878,2
1789466418.254019,2074,2878,2
1789466418.256858,1986,2875,2
1789466418.257252,1901,2876,2
1789466418.257718,1814,2877,2
1789466418.262243,2046,2876,2
1789466418.263597,2087,2876,2
1789466418.266757,1940,2877,2
1789466418.266989,1884,2876,2
1789466418.272817,1956,2879,2
1789466418.2736042,2001,2877,2
1789466418.274215,2033,2875,2
1789466418.278305,2086,2877,2
1789466418.278494,2046,2877,2
1789466418.2785769,2029,2877,2
1789466418.2786298,1977,2877,2
1789466418.2786791,1981,2876,2
1789466418.2787268,1981,2878,2
1789466418.280423,2067,2877,2
1789466418.282793,2031,2878,2
1789466418.28414,1976,2877,2
1789466418.286688,1990,2877,2
1789466418.2880661,2074,2877,2
1789466418.290334,2116,2879,2
1789466418.293658,2068,2878,2
1789466418.2950568,2085,2878,2
1789466418.29643,2087,2877,2
1789466418.299102,2121,2878,2
1789466418.300208,2020,2876,2
1789466418.30249,2015,2876,2
1789466418.303864,2074,2877,2
1789466418.306496,2165,2879,2
1789466418.308751,2051,2878,2
1789466418.310133,2045,2877,2
1789466418.311885,2162,2878,2
1789466418.314701,2066,2878,2
1789466418.316042,2011,2876,2
1789466418.319372,2016,2878,2
1789466418.3214169,2107,2879,2
1789466418.33023,2105,2876,2
1789466418.3336341,2102,2878,2
1789466418.336818,2073,2877,2
1789466418.339173,2084,2877,2
1789466418.3408651,2188,2878,2
1789466418.349272,2115,2878,2
1789466418.349843,2070,2875,2
1789466418.3504891,2130,2877,2
1789466418.353886,2234,2880,2
1789466418.354062,2243,2878,2
1789466418.3541498,2165,2877,2
1789466418.354264,2136,2878,2
1789466418.354344,2128,2877,2
1789466418.354456,2143,2877,2
1789466418.354592,2042,2877,2
1789466418.354752,2123,2877,2
1789466418.3548312,2133,2878,2
1789466418.403376,2040,2876,2
1789466418.404704,2038,2878,2
1789466418.4069068,1993,2877,2
1789466418.407007,1990,2877,2
1789466418.407072,2088,2878,2
1789466418.407126,2003,2877,2
1789466418.407176,1991,2878,2
1789466418.4077408,1996,2877,2
1789466418.407923,2069,2877,2
1789466418.408073,2055,2879,2
1789466418.408225,1978,2875,2
1789466418.4083211,1968,2875,2
1789466418.408438,2090,2878,2
1789466418.4085472,2033,2879,2
1789466418.4086158,1952,2876,2
1789466418.4086862,1978,2878,2
1789466418.408751,2012,2877,2
1789466418.4088142,2015,2876,2
1789466418.4088771,2002,2876,2
1789466418.40894,1992,2878,2
1789466418.409,2034,2878,2
1789466418.40927,2105,2876,2
1789466418.409389,1984,2877,2
1789466418.4094698,1986,2876,2
1789466418.4095209,2077,2877,2
1789466418.409672,2094,2878,2
1789466418.4098408,2060,2878,2
1789466418.409916,2027,2876,2
1789466418.412493,1973,2877,2
1789466418.415589,2073,2877,2
1789466418.417102,2025,2876,2
1789466418.419115,1966,2877,2
1789466418.420446,1997,2878,2
1789466418.422463,2053,2878,2
1789466418.423981,2021,2876,2
1789466418.428376,2037,2878,2
1789466418.428432,1954,2875,2
1789466418.430901,2029,2877,2
1789466418.4323368,1977,2876,2
1789466418.4345422,1958,2877,2
1789466418.437502,1967,2878,2
1789466418.438785,2037,2878,2
1789466418.440501,2070,2877,2
1789466418.443393,2016,2878,2
1789466418.4521222,1992,2877,2
1789466418.453105,2049,2878,2
1789466418.4546099,2090,2878,2
1789466418.457077,2009,2876,2
1789466418.457491,1982,2878,2
1789466418.4606888,2021,2878,2
1789466418.463275,2081,2876,2
1789466418.4641259,2047,2878,2
1789466418.4710138,1952,2874,2
1789466418.471964,2034,2878,2
1789466418.475934,2064,2878,2
1789466418.4763541,1943,2876,2
1789466418.476428,1964,2876,2
1789466418.476702,2050,2878,2
1789466418.476873,2052,2877,2
1789466418.476939,2069,2879,2
1789466418.477003,2032,2878,2
1789466418.478463,2005,2878,2
1789466418.481326,2011,2878,2
1789466418.488523,1991,2875,2
1789466418.4950552,2011,2877,2
1789466418.4959319,2008,2878,2
1789466418.4983768,2043,2876,2
1789466418.49931,2018,2877,2
1789466418.499994,1972,2876,2
1789466418.50621,2023,2877,2
1789466418.507085,2064,2877,2
1789466418.510311,2118,2879,2
1789466418.510415,1964,2877,2
1789466418.510541,1966,2878,2
1789466418.510677,2087,2878,2
1789466418.510782,2112,2879,2
1789466418.510858,2041,2876,2
1789466418.511008,1994,2879,2
1789466418.5123048,1999,2877,2
1789466418.514828,2086,2878,2
1789466418.516201,2004,2875,2
1789466418.518441,1969,2878,2
1789466418.521079,1983,2878,2
1789466418.522173,2046,2877,2
1789466418.524532,2054,2876,2
1789466418.525951,2002,2878,2
1789466418.528546,1978,2876,2
1789466418.529946,2087,2878,2
1789466418.532337,2001,2876,2
1789466418.534844,1944,2877,2
1789466418.536253,1999,2877,2
1789466418.538771,2047,2878,2
1789466418.540064,2064,2876,2
1789466418.542668,2034,2878,2
1789466418.543991,2000,2877,2
1789466418.546593,2070,2877,2
1789466418.548945,2119,2878,2
1789466418.5503,1974,2876,2
1789466418.5524101,1980,2878,2
1789466418.554762,2034,2878,2
1789466418.5623941,2060,2876,2
1789466418.563188,2043,2877,2
1789466418.5646982,1992,2878,2
1789466418.566813,1986,2877,2
1789466418.567442,2040,2878,2
1789466418.570421,2013,2876,2
1789466418.571638,1975,2877,2
1789466418.572396,2045,2877,2
1789466418.573257,2072,2878,2
1789466418.576521,2025,2876,2
1789466418.580013,2004,2879,2
1789466418.580232,2007,2877,2
1789466418.580665,2073,2877,2
1789466418.583154,2059,2878,2
1789466418.584498,2006,2876,2
1789466418.586009,1969,2877,2
1789466418.588469,2020,2877,2
1789466418.595252,2074,2876,2
1789466418.596618,2083,2878,2
1789466418.596858,2018,2877,2
1789466418.597607,2087,2878,2
1789466418.599508,2066,2877,2
1789466418.6031601,1993,2878,2
1789466418.604456,1935,2877,2
1789466418.6063051,2004,2877,2
1789466418.6085482,2048,2878,2
1789466418.608927,2010,2877,2
1789466418.612187,1998,2877,2
1789466418.6125581,1986,2877,2
1789466418.615844,2089,2877,2
1789466418.615911,2017,2878,2
1789466418.618505,2003,2877,2
1789466418.6199071,2024,2878,2
1789466418.622509,2085,2877,2
1789466418.6249568,2045,2876,2
1789466418.6263008,2085,2878,2
1789466418.628642,1958,2877,2
1789466418.630812,2037,2878,2
1789466418.632132,2043,2877,2
1789466418.634731,1981,2877,2
1789466418.635874,2001,2878,2
1789466418.6382039,2094,2878,2
1789466418.640686,2082,2878,2
1789466418.642004,2012,2877,2
1789466418.644335,1993,2878,2
1789466418.6464179,2008,2877,2
1789466418.64919,2069,2876,2
1789466418.650581,1991,2877,2
1789466418.652072,1998,2877,2
1789466418.654804,2075,2878,2
1789466418.6561909,2093,2878,2
1789466418.658754,2048,2876,2
1789466418.660098,2055,2878,2
1789466418.667137,2010,2877,2
1789466418.66957,2080,2878,2
1789466418.6727931,2010,2875,2
1789466418.673169,2001,2876,2
1789466418.6757262,2021,2877,2
1789466418.677569,2090,2878,2
1789466418.685498,2090,2879,2
1789466418.686412,2049,2878,2
1789466418.6869388,2023,2878,2
1789466418.690542,2105,2877,2
1789466418.690757,2072,2878,2
1789466418.69088,1990,2877,2
1789466418.69105,2026,2878,2
1789466418.6911192,2098,2878,2
1789466418.69122,2102,2879,2
1789466418.692569,2085,2878,2
1789466418.694019,1994,2877,2
1789466418.703,2013,2877,2
1789466418.704445,2080,2878,2
1789466418.705143,1976,2877,2
1789466418.707505,1986,2877,2
1789466418.707686,2028,2878,2
1789466418.710324,2054,2876,2
1789466418.710963,2048,2879,2
1789466418.71162,2047,2877,2
1789466418.716096,2014,2877,2
1789466418.7164319,2068,2877,2
1789466418.7193868,2063,2879,2
1789466418.719797,2032,2877,2
1789466418.720447,2049,2878,2
1789466418.723722,2056,2878,2
1789466418.7250712,2088,2879,2
1789466418.726161,2043,2878,2
1789466418.728527,2029,2877,2
1789466418.7299578,2081,2878,2
1789466418.732416,2027,2878,2
1789466418.734613,1997,2878,2
1789466418.736094,2029,2878,2
1789466418.738656,2039,2878,2
1789466418.74,2095,2876,2
1789466418.7426739,2030,2878,2
1789466418.744012,1987,2878,2
1789466418.74613,1992,2877,2
1789466418.74855,2083,2878,2
1789466418.7508612,2037,2877,2
1789466418.7520142,2017,2878,2
1789466418.754672,2019,2878,2
1789466418.75591,2018,2877,2
1789466418.758508,2030,2877,2
1789466418.759881,2074,2878,2
1789466418.762263,1994,2877,2
1789466418.764118,2044,2877,2
1789466418.766753,1945,2875,2
1789466418.76826,1971,2876,2
1789466418.7708669,2035,2877,2
1789466418.772405,2101,2878,2
1789466418.7818491,2121,2879,2
1789466418.78385,2192,2877,2
1789466418.786772,2276,2877,2
1789466418.788141,2175,2877,2
1789466418.7888021,1958,2875,2
1789466418.790468,1859,2878,2
1789466418.791275,1972,2877,2
1789466418.793602,2135,2877,2
1789466418.79694,2044,2876,2
1789466418.797181,1930,2877,2
1789466418.797415,1802,2874,2
1789466418.797704,1793,2876,2
1789466418.8003142,1975,2875,2
1789466418.801499,2003,2876,2
1789466418.802988,2161,2879,2
1789466418.8046038,2180,2880,2
1789466418.8069062,2048,2875,2
1789466418.816597,1960,2876,2
1789466418.817482,1855,2875,2
1789466418.819869,1955,2877,2
1789466418.824018,2177,2879,2
1789466418.8252292,2152,2878,2
1789466418.8316312,1883,2877,2
1789466418.832543,1794,2877,2
1789466418.835159,1946,2876,2
1789466418.836137,2164,2879,2
1789466418.8363378,2024,2878,2
1789466418.836409,1992,2878,2
1789466418.836477,2276,2879,2
1789466418.836682,2789,2879,2
1789466418.8368661,2324,2878,2
1789466418.836972,2460,2880,2
1789466418.8383229,2946,2880,2
1789466418.841548,2715,2879,2
1789466418.8428779,1418,2876,2
1789466418.8442008,1135,2876,2
1789466418.8468149,1380,2875,2
1789466418.84791,1539,2875,2
1789466418.850326,1365,2875,2
1789466418.8527098,1591,2875,2
1789466418.854026,1713,2877,2
1789466418.856141,1795,2875,2
1789466418.8582962,2601,2879,2
1789466418.860634,3101,2880,2
1789466418.86195,2156,2877,2
1789466418.864044,2821,2880,2
1789466418.86665,1787,2877,2
1789466418.8679738,1070,2875,2
1789466418.870392,1393,2876,2
1789466418.872769,1641,2876,2
1789466418.873921,1910,2878,2
1789466418.876279,1886,2878,2
1789466418.878856,2147,2878,2
1789466418.880173,2042,2878,2
1789466418.888963,2169,2879,2
1789466418.889842,2348,2879,2
1789466418.8900428,2440,2879,2
1789466418.8908072,2162,2877,2
1789466418.891517,1760,2877,2
1789466418.8935401,1557,2876,2
1789466418.895906,2434,2879,2
1789466418.896086,2503,2879,2
1789466418.901074,1762,2876,2
1789466418.9013288,2050,2877,2
1789466418.903959,2040,2877,2
1789466418.9042501,1809,2877,2
1789466418.907264,2129,2877,2
1789466418.9083421,2354,2879,2
1789466418.910673,1910,2877,2
1789466418.9180129,1657,2874,2
1789466418.918689,1774,2875,2
1789466418.9188192,1895,2877,2
1789466418.919502,2133,2876,2
1789466418.921184,2127,2875,2
1789466418.923211,2027,2876,2
1789466418.9246562,1978,2875,2
1789466418.928156,2544,2879,2
1789466418.930908,1919,2877,2
1789466418.931108,1727,2877,2
1789466418.934001,2502,2879,2
1789466418.9342642,2144,2877,2
1789466418.93677,2159,2877,2
1789466418.938252,2003,2876,2
1789466418.9408891,1886,2877,2
1789466418.941992,1631,2875,2
1789466418.944343,1565,2876,2
1789466418.946692,1606,2875,2
1789466418.948002,2077,2878,2
1789466418.950571,2031,2878,2
1789466418.952897,1815,2877,2
1789466418.954203,2102,2878,2
1789466418.956767,2542,2880,2
1789466418.9580858,2220,2879,2
1789466418.96066,1733,2875,2
1789466418.962985,2176,2878,2
1789466418.9642959,2196,2878,2
1789466418.966613,1963,2876,2
1789466418.968089,1695,2877,2
1789466418.970212,1761,2878,2
1789466418.9725702,2008,2876,2
1789466418.980038,1961,2877,2
1789466418.980746,1909,2877,2
1789466418.981555,1877,2876,2
1789466418.984286,2317,2879,2
1789466418.984747,2200,2878,2
1789466418.986464,1887,2875,2
1789466418.987125,1878,2877,2
1789466418.988621,1930,2876,2
1789466418.9922822,2130,2879,2
1789466418.99249,2111,2879,2
1789466418.9952152,2172,2878,2
1789466418.99824,1931,2878,2
1789466418.998288,1900,2876,2
1789466419.000618,1905,2877,2
1789466419.00301,1842,2877,2
1789466419.008856,1950,2876,2
1789466419.009055,2330,2879,2
1789466419.009612,2598,2879,2
1789466419.012147,1476,2876,2
1789466419.012353,1464,2875,2
1789466419.016427,1843,2876,2
1789466419.017021,2079,2875,2
1789466419.0193632,2228,2878,2
1789466419.022231,2759,2879,2
1789466419.0225081,2789,2880,2
1789466419.025462,1476,2874,2
1789466419.0265431,1415,2876,2
1789466419.02798,1568,2876,2
1789466419.0303302,2088,2875,2
1789466419.0329092,2094,2875,2
1789466419.034091,1728,2876,2
1789466419.036671,2143,2879,2
1789466419.037993,1785,2877,2
1789466419.0400991,1808,2875,2
1789466419.042419,2180,2878,2
1789466419.044981,2265,2879,2
1789466419.046283,2376,2879,2
1789466419.048417,2387,2879,2
1789466419.0504918,1866,2877,2
1789466419.052576,1628,2876,2
1789466419.053922,2223,2878,2
1789466419.056028,2738,2880,2
1789466419.0585978,2967,2879,2
1789466419.0599391,2276,2878,2
1789466419.062767,1304,2876,2
1789466419.067543,1939,2877,2
1789466419.070401,2054,2877,2
1789466419.072587,1668,2877,2
1789466419.0729358,1788,2876,2
1789466419.075352,1514,2875,2
1789466419.075903,1524,2874,2
1789466419.0763662,1586,2875,2
1789466419.0795789,2028,2876,2
1789466419.082089,2186,2876,2
1789466419.082295,2384,2879,2
1789466419.0847628,1810,2877,2
1789466419.0860858,2184,2878,2
1789466419.088404,2164,2879,2
1789466419.094628,2143,2879,2
1789466419.094759,2077,2879,2
1789466419.095731,2336,2878,2
1789466419.097999,2474,2880,2
1789466419.098318,2700,2880,2
1789466419.101469,2208,2879,2
1789466419.1041799,2040,2877,2
1789466419.107053,2580,2879,2
1789466419.1072798,2714,2879,2
1789466419.109647,1605,2876,2
1789466419.110958,2105,2877,2
1789466419.1122339,2201,2879,2
1789466419.114479,2459,2880,2
1789466419.116836,2360,2879,2
1789466419.118159,2359,2879,2
1789466419.120489,2382,2880,2
1789466419.1225889,2416,2879,2
1789466419.124734,2616,2881,2
1789466419.125906,2544,2879,2
1789466419.127985,2590,2880,2
