timestamp,ch1,ch2,label
1789466450.102561,2145,2876,3
1789466450.10381,2161,2879,3
1789466450.104198,2100,2878,3
1789466450.106859,2057,2877,3
1789466450.1090062,2050,2877,3
1789466450.110931,2091,2878,3
1789466450.112894,2108,2880,3
1789466450.113983,2085,2877,3
1789466450.11606,2140,2879,3
1789466450.118453,2186,2877,3
1789466450.120755,2119,2878,3
1789466450.1220422,2068,2877,3
1789466450.124341,2022,2877,3
1789466450.1268852,2030,2877,3
1789466450.12817,2115,2878,3
1789466450.1304462,2057,2875,3
1789466450.132757,2113,2878,3
1789466450.134045,2101,2877,3
1789466450.136348,2145,2879,3
1789466450.138421,2124,2878,3
1789466450.140515,2056,2877,3
1789466450.1446579,2042,2877,3
1789466450.145043,2182,2878,3
1789466450.1467252,2018,2876,3
1789466450.148612,1974,2877,3
1789466450.150285,2137,2879,3
1789466450.153884,2154,2879,3
1789466450.154038,2130,2878,3
1789466450.156407,2113,2876,3
1789466450.158736,2094,2878,3
1789466450.1600251,2104,2878,3
1789466450.162144,2075,2879,3
1789466450.164683,2103,2878,3
1789466450.165968,2081,2877,3
1789466450.168274,2109,2877,3
1789466450.170814,2163,2879,3
1789466450.171893,2023,2877,3
1789466450.174212,2019,2877,3
1789466450.1767511,2087,2878,3
1789466450.178039,2107,2878,3
1789466450.180341,2083,2877,3
1789466450.185653,2058,2877,3
1789466450.186052,2149,2878,3
1789466450.18641,2176,2880,3
1789466450.189458,2089,2877,3
1789466450.191304,2077,2877,3
1789466450.1931038,2089,2877,3
1789466450.1950898,2097,2878,3
1789466450.196137,2040,2877,3
1789466450.19869,2039,2876,3
1789466450.1999948,2100,2877,3
1789466450.202546,2159,2879,3
1789466450.2039292,2147,2878,3
1789466450.2059898,2059,2878,3
1789466450.208533,2015,2877,3
1789466450.209866,2126,2878,3
1789466450.212411,2120,2879,3
1789466450.214953,2018,2878,3
1789466450.216007,2110,2876,3
1789466450.218548,2117,2878,3
1789466450.227324,2097,2878,3
1789466450.227817,2059,2877,3
1789466450.2283342,2051,2877,3
1789466450.229307,2076,2877,3
1789466450.230443,2077,2878,3
1789466450.230665,2055,2877,3
1789466450.232428,2100,2877,3
1789466450.235789,2094,2877,3
1789466450.235967,2103,2879,3
1789466450.238443,2109,2878,3
1789466450.240997,2047,2876,3
1789466450.2422888,2068,2877,3
1789466450.244597,2145,2878,3
1789466450.246911,2074,2879,3
1789466450.248199,2044,2877,3
1789466450.250544,2116,2878,3
1789466450.2518988,2142,2880,3
1789466450.254453,2153,2877,3
1789466450.2565172,2114,2878,3
1789466450.257869,2103,2877,3
1789466450.2601678,2153,2878,3
1789466450.262224,2097,2878,3
1789466450.2678552,2016,2876,3
1789466450.268265,2091,2877,3
1789466450.268669,2145,2878,3
1789466450.270135,2149,2878,3
1789466450.272764,2079,2877,3
1789466450.274265,2050,2878,3
1789466450.2763379,2105,2877,3
1789466450.2786582,2098,2878,3
1789466450.279925,2028,2875,3
1789466450.282277,2052,2877,3
1789466450.2843509,2097,2878,3
1789466450.286677,2152,2879,3
1789466450.2879648,2091,2878,3
1789466450.290279,2080,2877,3
1789466450.292466,2072,2878,3
1789466450.2950091,2116,2878,3
1789466450.296064,2078,2879,3
1789466450.298605,2026,2878,3
1789466450.2998972,2125,2878,3
1789466450.3022048,2162,2879,3
1789466450.307595,2134,2878,3
1789466450.308088,2066,2877,3
1789466450.308566,2062,2877,3
1789466450.3103402,2105,2878,3
1789466450.3135622,2119,2879,3
1789466450.315215,2048,2877,3
1789466450.317836,2091,2878,3
1789466450.318042,2096,2878,3
1789466450.320106,2187,2879,3
1789466450.322431,2144,2878,3
1789466450.3247528,2073,2877,3
1789466450.325904,2097,2878,3
1789466450.328449,2098,2878,3
1789466450.3308768,2061,2876,3
1789466450.33217,2062,2877,3
1789466450.3342369,2084,2876,3
1789466450.3363688,2117,2879,3
1789466450.338888,2112,2878,3
1789466450.340179,2089,2877,3
1789466450.342488,2104,2877,3
1789466450.347863,2144,2878,3
1789466450.348512,2076,2877,3
1789466450.3489332,2040,2876,3
1789466450.350469,2098,2878,3
1789466450.353461,2151,2879,3
1789466450.355498,2118,2878,3
1789466450.357443,2079,2877,3
1789466450.358507,2074,2877,3
1789466450.360949,2111,2878,3
1789466450.362058,2098,2879,3
1789466450.364626,2049,2877,3
1789466450.366942,2069,2878,3
1789466450.368236,2157,2878,3
1789466450.370324,2174,2878,3
1789466450.372869,2081,2877,3
1789466450.3739252,2043,2878,3
1789466450.376235,2077,2877,3
1789466450.378774,2131,2878,3
1789466450.380061,2061,2876,3
1789466450.3823948,2077,2877,3
1789466450.384577,2110,2877,3
1789466450.386892,2124,2878,3
1789466450.388198,2098,2878,3
1789466450.391974,2072,2876,3
1789466450.392471,2087,2876,3
1789466450.3945532,2154,2878,3
1789466450.396636,2080,2879,3
1789466450.3981152,2069,2876,3
1789466450.400031,2082,2877,3
1789466450.4028149,2130,2877,3
1789466450.404025,2103,2877,3
1789466450.406584,2074,2877,3
1789466450.407881,2081,2877,3
1789466450.410354,2014,2877,3
1789466450.412905,2107,2878,3
1789466450.414196,2115,2876,3
1789466450.41627,2084,2878,3
1789466450.418844,2117,2878,3
1789466450.420138,2159,2879,3
1789466450.422435,2113,2878,3
1789466450.424736,2096,2877,3
1789466450.4258938,2106,2877,3
1789466450.428052,2110,2878,3
1789466450.433912,2035,2877,3
1789466450.4340239,2048,2877,3
1789466450.436713,2123,2877,3
1789466450.436915,2144,2879,3
1789466450.4385002,2088,2878,3
1789466450.44116,2064,2877,3
1789466450.444098,2046,2877,3
1789466450.444181,2127,2879,3
1789466450.4464269,2068,2880,3
1789466450.4487,2027,2877,3
1789466450.450002,2056,2878,3
1789466450.454392,2113,2877,3
1789466450.454741,2147,2879,3
1789466450.456108,2107,2878,3
1789466450.460138,2083,2877,3
1789466450.461081,2134,2877,3
1789466450.462761,2135,2878,3
1789466450.4640572,2055,2876,3
1789466450.4664829,2090,2877,3
1789466450.468731,2130,2877,3
1789466450.470038,2155,2879,3
1789466450.4721138,2097,2878,3
1789466450.474659,2086,2877,3
1789466450.476966,2085,2877,3
1789466450.4782562,2097,2878,3
1789466450.480639,2041,2876,3
1789466450.481924,2051,2878,3
1789466450.484222,2104,2877,3
1789466450.486776,2131,2879,3
1789466450.488068,2108,2878,3
1789466450.490614,2087,2877,3
1789466450.4961689,2094,2877,3
1789466450.496305,2132,2878,3
1789466450.498313,2074,2879,3
1789466450.498421,2059,2878,3
1789466450.5014882,2099,2877,3
1789466450.503534,2144,2878,3
1789466450.505313,2161,2879,3
1789466450.506361,2110,2878,3
1789466450.508845,2076,2877,3
1789466450.510141,2118,2878,3
1789466450.512537,2122,2878,3
1789466450.513904,2078,2877,3
1789466450.516268,2126,2878,3
1789466450.518538,2130,2877,3
1789466450.519892,2146,2879,3
1789466450.52244,2111,2878,3
1789466450.524985,2067,2877,3
1789466450.526033,2087,2878,3
1789466450.5285718,2103,2878,3
1789466450.530627,2039,2878,3
1789466450.532767,2053,2878,3
1789466450.533891,2133,2877,3
1789466450.537884,2120,2878,3
1789466450.538021,2146,2878,3
1789466450.540123,2106,2877,3
1789466450.542783,2111,2877,3
1789466450.544769,2140,2878,3
1789466450.5477178,2099,2877,3
1789466450.548768,2047,2877,3
1789466450.5498931,2103,2878,3
1789466450.552215,2171,2880,3
1789466450.55476,2149,2878,3
1789466450.555881,2076,2878,3
1789466450.557944,2056,2877,3
1789466450.5604858,2083,2878,3
1789466450.562834,2088,2878,3
1789466450.5639129,2034,2877,3
1789466450.566467,2083,2878,3
1789466450.569016,2133,2878,3
1789466450.570303,2136,2880,3
1789466450.572855,2109,2878,3
1789466450.574142,2065,2877,3
1789466450.578516,2080,2878,3
1789466450.578994,2119,2878,3
1789466450.5807528,2075,2876,3
1789466450.58224,2092,2878,3
1789466450.585645,2131,2878,3
1789466450.587072,2148,2879,3
1789466450.588128,2117,2878,3
1789466450.5906718,2078,2877,3
1789466450.59275,2087,2877,3
1789466450.5938659,2157,2878,3
1789466450.596413,2099,2880,3
1789466450.5989592,2067,2878,3
1789466450.60025,2100,2878,3
1789466450.602793,2130,2876,3
1789466450.6039412,2145,2879,3
1789466450.606248,2132,2878,3
1789466450.608795,2106,2878,3
1789466450.609963,2169,2878,3
1789466450.6122618,2159,2878,3
1789466450.6172018,2067,2877,3
1789466450.6176472,2084,2877,3
1789466450.619342,2169,2877,3
1789466450.6211011,2165,2879,3
1789466450.623588,2102,2878,3
1789466450.6250181,2083,2877,3
1789466450.626567,2066,2877,3
1789466450.628671,2115,2879,3
1789466450.631026,2066,2876,3
1789466450.63209,2069,2877,3
1789466450.634402,2109,2878,3
1789466450.63686,2130,2879,3
1789466450.637907,2121,2877,3
1789466450.640451,2123,2877,3
1789466450.6429949,2130,2877,3
1789466450.64428,2150,2877,3
1789466450.6465878,2091,2879,3
1789466450.647926,2075,2877,3
1789466450.650156,2106,2878,3
1789466450.652473,2141,2877,3
1789466450.65721,2155,2879,3
1789466450.657942,2096,2879,3
1789466450.6583738,2067,2877,3
1789466450.6607502,2090,2878,3
1789466450.6622238,2132,2878,3
1789466450.664468,2082,2877,3
1789466450.66625,2109,2879,3
1789466450.66834,2145,2878,3
1789466450.6709042,2167,2879,3
1789466450.6721978,2125,2878,3
1789466450.674742,2110,2877,3
1789466450.675903,2104,2878,3
1789466450.6782432,2130,2878,3
1789466450.680786,2050,2877,3
1789466450.68208,2079,2879,3
1789466450.684214,2099,2876,3
1789466450.686529,2118,2878,3
1789466450.68861,2131,2878,3
1789466450.690676,2066,2877,3
1789466450.69612,2079,2877,3
1789466450.696579,2150,2878,3
1789466450.697036,2102,2879,3
1789466450.6986701,2038,2877,3
1789466450.700624,2087,2878,3
1789466450.7042859,2149,2877,3
1789466450.70453,2152,2879,3
1789466450.705934,2082,2879,3
1789466450.7084868,2082,2877,3
1789466450.710695,2091,2878,3
1789466450.7118819,2088,2878,3
1789466450.714192,2066,2876,3
1789466450.716488,2105,2877,3
1789466450.7187939,2144,2878,3
1789466450.719915,2139,2879,3
1789466450.7224581,2100,2878,3
1789466450.7238872,2103,2877,3
1789466450.7264278,2094,2877,3
1789466450.7289689,2113,2878,3
1789466450.730253,2071,2876,3
1789466450.7368162,2056,2877,3
1789466450.736922,2091,2878,3
1789466450.737333,2148,2879,3
1789466450.73888,2143,2878,3
1789466450.740282,2106,2877,3
1789466450.743003,2083,2877,3
1789466450.744371,2144,2878,3
1789466450.746207,2100,2879,3
1789466450.7483032,2044,2877,3
1789466450.750721,2110,2878,3
1789466450.75202,2158,2879,3
1789466450.754165,2148,2878,3
1789466450.756472,2080,2877,3
1789466450.75877,2101,2877,3
1789466450.759905,2132,2879,3
1789466450.762202,2119,2879,3
1789466450.764499,2030,2877,3
1789466450.766691,2077,2876,3
1789466450.768984,2100,2878,3
1789466450.7700229,2143,2879,3
1789466450.772251,2118,2878,3
1789466450.776591,2125,2877,3
1789466450.777334,2043,2877,3
1789466450.779116,2182,2879,3
1789466450.7810612,2094,2879,3
1789466450.783498,2061,2878,3
1789466450.7849228,2169,2878,3
1789466450.786772,2177,2879,3
1789466450.7878778,2107,2877,3
1789466450.790198,2066,2878,3
1789466450.7927418,2096,2876,3
1789466450.796504,2119,2878,3
1789466450.796884,2032,2876,3
1789466450.79863,2064,2876,3
1789466450.8000221,2113,2877,3
1789466450.802838,2179,2879,3
1789466450.804091,2150,2878,3
1789466450.806953,2058,2878,3
1789466450.808,2093,2877,3
1789466450.810306,2124,2879,3
1789466450.812613,2137,2878,3
1789466450.814683,2046,2877,3
1789466450.8167439,2089,2877,3
1789466450.8178968,2133,2878,3
1789466450.820205,2144,2880,3
1789466450.8225112,2124,2878,3
1789466450.82495,2052,2877,3
1789466450.826236,2083,2878,3
1789466450.828341,2085,2878,3
1789466450.8306382,2075,2876,3
1789466450.831869,2112,2878,3
1789466450.835598,2152,2879,3
1789466450.838001,2136,2879,3
1789466450.838198,2071,2878,3
1789466450.840822,2088,2877,3
1789466450.842699,2116,2877,3
1789466450.844147,2196,2879,3
1789466450.846726,2104,2879,3
1789466450.8480132,2026,2877,3
1789466450.850555,2069,2878,3
1789466450.851882,2200,2879,3
1789466450.8539479,2115,2878,3
1789466450.8562508,2076,2877,3
1789466450.85872,2109,2877,3
1789466450.8600042,2130,2878,3
1789466450.862308,2095,2879,3
1789466450.8648572,1987,2876,3
1789466450.8661451,2061,2877,3
1789466450.8684428,2110,2878,3
1789466450.870809,2108,2879,3
1789466450.875303,2075,2878,3
1789466450.875668,2056,2877,3
1789466450.877465,2076,2877,3
1789466450.8790898,2107,2878,3
1789466450.880547,2065,2878,3
1789466450.883187,2084,2877,3
1789466450.885138,2162,2877,3
1789466450.886442,2192,2880,3
1789466450.888751,2121,2878,3
1789466450.890039,2123,2877,3
1789466450.8923578,2089,2877,3
1789466450.89478,2097,2878,3
1789466450.896068,2078,2878,3
1789466450.898123,2068,2878,3
1789466450.9001899,2086,2878,3
1789466450.902255,2101,2876,3
1789466450.9048,2178,2878,3
1789466450.905895,2088,2877,3
1789466450.907954,2069,2877,3
1789466450.910382,2122,2878,3
1789466450.916136,2136,2878,3
1789466450.916252,2039,2876,3
1789466450.9166982,2064,2877,3
1789466450.918221,2095,2878,3
1789466450.9208808,2136,2879,3
1789466450.922452,2125,2878,3
1789466450.92578,2087,2878,3
1789466450.925866,2106,2877,3
1789466450.9281762,2123,2878,3
1789466450.930475,2068,2876,3
1789466450.931871,2062,2878,3
1789466450.934397,2099,2877,3
1789466450.936584,2139,2879,3
1789466450.937888,2123,2878,3
1789466450.940436,2096,2878,3
1789466450.942734,2084,2877,3
1789466450.94505,2155,2879,3
1789466450.9461079,2108,2879,3
1789466450.948213,2100,2878,3
1789466450.950519,2137,2877,3
1789466450.954964,2146,2880,3
1789466450.955798,2139,2878,3
1789466450.956299,2090,2877,3
1789466450.959243,2082,2877,3
1789466450.961878,2106,2878,3
1789466450.962007,2121,2877,3
1789466450.964917,2062,2877,3
1789466450.966222,2063,2877,3
1789466450.968648,2126,2877,3
1789466450.9699478,2159,2879,3
1789466450.972249,2155,2878,3
1789466450.974792,2065,2877,3
1789466450.976078,2075,2878,3
1789466450.9786198,2119,2878,3
1789466450.979903,2043,2875,3
1789466450.982444,2034,2877,3
1789466450.984749,2080,2877,3
1789466450.986006,2140,2879,3
1789466450.988309,2114,2878,3
1789466450.990786,2087,2877,3
1789466450.993984,2091,2877,3
1789466450.994581,2151,2878,3
1789466450.996108,2123,2879,3
1789466450.998988,2092,2877,3
1789466451.0014138,2124,2878,3
1789466451.0031319,2126,2877,3
1789466451.00419,2121,2878,3
1789466451.006739,2115,2877,3
1789466451.007874,2072,2877,3
1789466451.010426,2160,2877,3
1789466451.01297,2205,2878,3
1789466451.014017,2166,2879,3
1789466451.0165582,2011,2878,3
1789466451.018921,2070,2878,3
1789466451.020206,2146,2879,3
1789466451.022746,2147,2878,3
1789466451.02403,2121,2877,3
1789466451.02657,2310,2878,3
1789466451.0280519,2299,2879,3
1789466451.031253,2075,2879,3
1789466451.033202,1926,2877,3
1789466451.034401,1996,2876,3
1789466451.037224,2076,2878,3
1789466451.038461,2114,2879,3
1789466451.040123,2057,2877,3
1789466451.042445,2019,2877,3
1789466451.044758,1973,2878,3
1789466451.0459142,2144,2878,3
1789466451.0482821,2787,2881,3
1789466451.050377,2349,2880,3
1789466451.052673,1898,2877,3
1789466451.054731,2293,2879,3
1789466451.056809,2457,2878,3
1789466451.058099,1481,2875,3
1789466451.060395,1894,2876,3
1789466451.0805771,2012,2878,3
1789466451.083853,1899,2875,3
1789466451.083894,1890,2876,3
1789466451.0839229,1921,2876,3
1789466451.08395,1998,2877,3
1789466451.083977,2081,2877,3
1789466451.0840042,2096,2878,3
1789466451.0840309,2141,2878,3
1789466451.084058,2227,2878,3
1789466451.0887659,1864,2875,3
1789466451.08943,2402,2879,3
1789466451.089516,2391,2879,3
1789466451.0895438,2128,2879,3
1789466451.089571,1994,2877,3
1789466451.091191,2062,2877,3
1789466451.094319,2198,2878,3
1789466451.09435,2223,2879,3
1789466451.099133,2062,2879,3
1789466451.0991979,2209,2878,3
1789466451.10049,2222,2879,3
1789466451.103074,2140,2879,3
1789466451.1134589,2122,2876,3
1789466451.114479,1940,2876,3
1789466451.115288,2087,2877,3
1789466451.115669,2033,2878,3
1789466451.116021,1962,2877,3
1789466451.1171908,1866,2876,3
1789466451.117322,1998,2878,3
1789466451.1188202,2124,2879,3
1789466451.120567,2306,2879,3
1789466451.121891,2195,2879,3
1789466451.12446,2105,2879,3
1789466451.126723,2221,2879,3
1789466451.128012,2337,2879,3
1789466451.130316,1921,2875,3
1789466451.132632,1893,2877,3
1789466451.134937,1886,2877,3
1789466451.136222,2164,2879,3
1789466451.138656,2428,2880,3
1789466451.139942,2039,2878,3
1789466451.142241,1979,2876,3
1789466451.1445508,2124,2879,3
1789466451.146741,2035,2876,3
1789466451.150269,2012,2877,3
1789466451.150954,2043,2877,3
1789466451.1528,2103,2878,3
1789466451.154899,2245,2878,3
1789466451.157187,2179,2878,3
1789466451.158699,2156,2878,3
1789466451.160369,2332,2879,3
1789466451.1629682,2283,2879,3
1789466451.164033,2105,2876,3
1789466451.166358,2067,2878,3
1789466451.1689038,2208,2879,3
1789466451.1699488,2103,2878,3
1789466451.172011,2126,2878,3
1789466451.174309,2006,2878,3
1789466451.1768582,1996,2878,3
1789466451.1779468,2068,2879,3
1789466451.1805031,1999,2876,3
1789466451.182821,2058,2877,3
1789466451.183891,2058,2877,3
1789466451.186212,2131,2879,3
1789466451.19031,2159,2877,3
1789466451.190719,2144,2878,3
1789466451.192516,2129,2878,3
1789466451.194129,2157,2878,3
1789466451.196892,2269,2879,3
1789466451.198436,2122,2877,3
1789466451.200296,2258,2880,3
1789466451.2028532,2240,2879,3
1789466451.203906,2041,2878,3
1789466451.206209,2102,2877,3
1789466451.208652,2195,2879,3
1789466451.209944,2162,2878,3
1789466451.212013,2231,2879,3
1789466451.214556,2104,2879,3
1789466451.216979,1984,2876,3
1789466451.21827,1998,2877,3
1789466451.220567,2135,2879,3
1789466451.221926,2132,2878,3
1789466451.224482,1998,2877,3
1789466451.225864,2104,2878,3
1789466451.231215,2150,2878,3
1789466451.2316139,1908,2876,3
1789466451.234051,1934,2877,3
1789466451.2346408,2160,2877,3
1789466451.2362182,2264,2879,3
1789466451.238872,2210,2879,3
1789466451.2406342,2186,2877,3
1789466451.242709,2107,2877,3
1789466451.2440078,2204,2879,3
1789466451.246561,2185,2879,3
1789466451.2479098,2092,2878,3
1789466451.250226,2121,2877,3
1789466451.2527769,2095,2878,3
1789466451.2540648,2082,2878,3
1789466451.256375,2211,2877,3
1789466451.2586792,1990,2877,3
1789466451.259966,1986,2877,3
1789466451.2625191,2139,2878,3
1789466451.26507,2087,2876,3
1789466451.266119,2140,2877,3
1789466451.271035,2239,2880,3
1789466451.271451,2203,2879,3
1789466451.273278,2114,2878,3
1789466451.2747562,2072,2877,3
1789466451.2766001,2120,2877,3
1789466451.277898,2318,2878,3
1789466451.280926,2123,2879,3
1789466451.2822258,1964,2876,3
1789466451.2843058,2048,2877,3
1789466451.286731,2054,2875,3
1789466451.288028,1964,2875,3
1789466451.290574,2126,2877,3
1789466451.291905,2081,2877,3
1789466451.2942688,2211,2877,3
1789466451.296583,2036,2878,3
1789466451.2988968,1851,2876,3
1789466451.3001869,1967,2876,3
1789466451.302494,2101,2876,3
1789466451.3047931,2090,2879,3
1789466451.306081,2035,2878,3
1789466451.311184,2249,2877,3
1789466451.311916,2120,2877,3
1789466451.3125582,1981,2878,3
1789466451.315104,2008,2876,3
1789466451.3166778,2178,2876,3
1789466451.3193579,2333,2880,3
1789466451.321291,2302,2879,3
1789466451.322581,2279,2878,3
1789466451.3250391,1944,2878,3
1789466451.326334,2065,2877,3
1789466451.328649,2332,2878,3
1789466451.3309498,1931,2877,3
1789466451.331994,1925,2876,3
1789466451.334539,2051,2877,3
1789466451.336742,2110,2877,3
1789466451.3380291,1953,2875,3
1789466451.34033,2119,2877,3
1789466451.3426292,2152,2877,3
1789466451.3439171,2100,2878,3
1789466451.34621,2112,2878,3
1789466451.3516958,2040,2876,3
1789466451.352054,1881,2878,3
1789466451.35216,1963,2878,3
1789466451.3550642,2086,2875,3
1789466451.3564491,1970,2878,3
1789466451.3581069,2053,2877,3
1789466451.3611178,2081,2877,3
1789466451.362165,2088,2877,3
1789466451.364464,2134,2879,3
1789466451.36703,2228,2878,3
1789466451.368324,2209,2877,3
1789466451.370538,2097,2876,3
1789466451.3726048,2053,2878,3
1789466451.373895,1991,2878,3
1789466451.376438,1919,2877,3
1789466451.378746,1993,2877,3
1789466451.380032,1901,2874,3
1789466451.3825762,2084,2876,3
1789466451.383898,2136,2876,3
1789466451.3862,2317,2879,3
1789466451.391058,2235,2878,3
1789466451.391571,2059,2877,3
1789466451.393406,2049,2877,3
1789466451.394994,2104,2877,3
1789466451.3965251,2252,2878,3
1789466451.399188,2057,2876,3
1789466451.401152,2057,2877,3
1789466451.402216,2164,2879,3
1789466451.4046679,2213,2879,3
1789466451.4059699,2073,2878,3
1789466451.408275,1965,2877,3
1789466451.410822,2118,2877,3
1789466451.4121118,2164,2876,3
1789466451.414657,2147,2879,3
1789466451.415947,2169,2880,3
1789466451.418495,2227,2879,3
1789466451.419872,2547,2880,3
1789466451.4224188,2021,2878,3
1789466451.424726,1804,2875,3
1789466451.4260118,2062,2877,3
1789466451.431354,2087,2878,3
1789466451.431466,2053,2877,3
1789466451.433413,2103,2879,3
1789466451.435061,2048,2879,3
1789466451.4366531,1995,2876,3
1789466451.439428,2116,2879,3
1789466451.441325,2264,2878,3
1789466451.4423769,2196,2878,3
1789466451.4446871,2651,2880,3
1789466451.447,2158,2878,3
1789466451.44829,1908,2877,3
1789466451.450837,2175,2879,3
1789466451.452126,2202,2879,3
1789466451.454668,2150,2879,3
1789466451.4558809,2231,2878,3
1789466451.458428,2442,2879,3
1789466451.460974,2064,2878,3
1789466451.462262,1827,2876,3
1789466451.4648051,1771,2877,3
1789466451.466093,2044,2877,3
1789466451.471493,2162,2877,3
1789466451.47187,2457,2878,3
1789466451.471946,2431,2879,3
1789466451.474818,1824,2878,3
1789466451.476748,1774,2875,3
1789466451.479718,2124,2877,3
1789466451.481583,2071,2876,3
1789466451.4828842,2251,2879,3
1789466451.4841752,2010,2875,3
1789466451.48673,1816,2876,3
1789466451.488808,2097,2879,3
1789466451.489886,2387,2877,3
1789466451.492369,2591,2879,3
1789466451.4949162,1898,2876,3
1789466451.4959638,1797,2877,3
1789466451.498508,1963,2878,3
1789466451.4999092,2385,2879,3
1789466451.502461,2918,2880,3
1789466451.504829,1698,2876,3
1789466451.505899,2796,2881,3
1789466451.508571,3640,2883,3
1789466451.512185,1511,2875,3
1789466451.513202,978,2878,3
1789466451.514682,1470,2878,3
1789466451.5163388,1878,2878,3
1789466451.519148,1884,2876,3
1789466451.520891,1841,2878,3
1789466451.5226948,1627,2877,3
1789466451.5239968,1733,2878,3
1789466451.526332,3085,2881,3
1789466451.528885,2570,2879,3
1789466451.529928,3164,2880,3
1789466451.532473,2830,2880,3
1789466451.534775,1083,2876,3
1789466451.5360608,906,2877,3
1789466451.538362,1515,2877,3
1789466451.540659,2518,2878,3
1789466451.5427399,1829,2877,3
1789466451.545067,1581,2878,3
1789466451.5462668,1514,2875,3
1789466451.548813,2128,2878,3
1789466451.552842,2620,2877,3
1789466451.553576,2644,2880,3
1789466451.555122,2453,2880,3
1789466451.557046,1594,2875,3
1789466451.559448,1839,2877,3
1789466451.561402,2530,2879,3
1789466451.562923,3195,2882,3
1789466451.564223,2556,2879,3
1789466451.566781,1469,2877,3
1789466451.568079,2750,2880,3
1789466451.5706291,2075,2878,3
1789466451.5729542,1166,2875,3
1789466451.574005,1575,2874,3
1789466451.576559,1451,2874,3
1789466451.5778701,1239,2874,3
1789466451.5802891,1766,2875,3
1789466451.582832,1814,2875,3
1789466451.5839171,2092,2876,3
1789466451.5862222,2287,2876,3
1789466451.588521,2278,2878,3
1789466451.593101,2334,2878,3
1789466451.593538,2463,2879,3
1789466451.595553,2939,2881,3
1789466451.596931,1408,2876,3
1789466451.5985322,789,2875,3
1789466451.599981,1553,2875,3
1789466451.601999,1920,2877,3
1789466451.6044722,1914,2877,3
1789466451.60654,2193,2878,3
1789466451.6088371,1585,2877,3
1789466451.6101289,1207,2874,3
1789466451.6121888,1797,2876,3
1789466451.614486,2420,2879,3
1789466451.61681,2201,2877,3
1789466451.6178958,1968,2877,3
1789466451.620209,1957,2876,3
1789466451.6225111,1745,2876,3
1789466451.6248162,2411,2879,3
1789466451.626106,2303,2879,3
1789466451.62865,1694,2874,3
1789466451.634476,993,2876,3
1789466451.6351738,1685,2876,3
1789466451.6363132,2888,2880,3
1789466451.636445,2301,2880,3
1789466451.638239,1163,2875,3
1789466451.641092,1334,2875,3
1789466451.6432629,2184,2878,3
1789466451.645151,2423,2879,3
1789466451.646395,1695,2877,3
1789466451.648932,1472,2877,3
1789466451.6502268,1731,2877,3
1789466451.6527202,2436,2879,3
1789466451.653908,2593,2880,3
1789466451.656217,1700,2876,3
1789466451.6582851,1504,2876,3
1789466451.660589,1843,2875,3
1789466451.6628962,2730,2879,3
1789466451.664186,3649,2882,3
1789466451.66673,3022,2879,3
1789466451.668015,338,2875,3
1789466451.670312,1185,2877,3
1789466451.6750069,2992,2881,3
1789466451.6757581,2220,2879,3
1789466451.676517,1435,2875,3
1789466451.6787462,1263,2876,3
1789466451.680465,1376,2875,3
1789466451.68204,2099,2878,3
1789466451.6842291,2772,2880,3
1789466451.6869,2275,2878,3
1789466451.688195,2844,2880,3
1789466451.690652,2187,2879,3
1789466451.692723,2000,2879,3
1789466451.694011,2151,2879,3
1789466451.696309,2060,2879,3
1789466451.698615,1661,2876,3
1789466451.700921,1825,2876,3
1789466451.702214,2114,2877,3
1789466451.704522,1911,2875,3
1789466451.7068338,2285,2879,3
1789466451.70812,2042,2878,3
1789466451.710426,1811,2875,3
1789466451.7127192,2532,2880,3
1789466451.7171829,2215,2879,3
1789466451.7179961,2135,2877,3
1789466451.71937,2977,2880,3
1789466451.721379,2516,2878,3
1789466451.723845,2637,2880,3
1789466451.726128,2240,2878,3
1789466451.726322,1947,2875,3
1789466451.7290392,2339,2879,3
1789466451.7303329,2220,2879,3
1789466451.7326348,2104,2877,3
1789466451.734754,2342,2879,3
1789466451.7359009,2021,2878,3
1789466451.738205,2290,2878,3
1789466451.7405,3332,2882,3
1789466451.7418728,2902,2881,3
1789466451.7441652,2157,2878,3
1789466451.746314,2864,2880,3
1789466451.74862,2673,2879,3
1789466451.749911,1832,2876,3
1789466451.752459,2050,2876,3
1789466451.757925,2225,2879,3
1789466451.758761,2143,2877,3
1789466451.7595441,2292,2878,3
1789466451.760978,2825,2880,3
1789466451.762744,2361,2878,3
1789466451.764438,2736,2879,3
1789466451.768109,2372,2880,3
1789466451.76839,1883,2876,3
1789466451.7702148,2528,2880,3
1789466451.7727768,2581,2879,3
1789466451.774081,2479,2878,3
1789466451.7766411,1789,2877,3
1789466451.777934,2542,2879,3
1789466451.780431,3236,2881,3
1789466451.782976,2199,2879,3
1789466451.784265,2081,2878,3
1789466451.786583,2126,2878,3
1789466451.787897,2131,2877,3
1789466451.790205,2693,2880,3
1789466451.79251,3236,2884,3
1789466451.794979,1649,2876,3
1789466451.796266,1630,2876,3
1789466451.80187,2157,2878,3
1789466451.8019981,2454,2879,3
1789466451.802717,2588,2881,3
1789466451.804306,2152,2877,3
1789466451.8070269,1650,2875,3
1789466451.8088782,1531,2876,3
1789466451.8115368,1772,2877,3
1789466451.813169,2011,2878,3
1789466451.814216,2544,2879,3
1789466451.816524,1802,2876,3
1789466451.817892,1939,2878,3
1789466451.820456,2631,2880,3
1789466451.822777,2840,2880,3
1789466451.823905,2778,2879,3
1789466451.8259761,2327,2879,3
1789466451.828524,1382,2875,3
1789466451.829906,1870,2876,3
1789466451.832203,2204,2878,3
1789466451.8345149,2035,2878,3
1789466451.836668,1904,2875,3
1789466451.8379562,1773,2877,3
1789466451.84009,1786,2875,3
1789466451.84496,2097,2877,3
1789466451.84541,2324,2878,3
1789466451.847137,2102,2878,3
1789466451.848951,2332,2879,3
1789466451.8507571,2741,2879,3
1789466451.8546681,2634,2879,3
1789466451.854784,2958,2881,3
1789466451.8565838,2650,2879,3
1789466451.857882,1631,2875,3
1789466451.860369,1665,2876,3
1789466451.862869,2037,2877,3
1789466451.864161,1802,2876,3
1789466451.866461,1982,2876,3
1789466451.869018,1932,2877,3
1789466451.870311,1982,2878,3
1789466451.872857,2800,2881,3
1789466451.8739011,2255,2879,3
1789466451.876447,2200,2880,3
1789466451.878745,2480,2880,3
1789466451.88105,1744,2878,3
1789466451.8821042,1988,2878,3
1789466451.887594,2224,2877,3
1789466451.888052,1881,2877,3
1789466451.888871,1573,2875,3
1789466451.89052,1934,2877,3
1789466451.892312,2208,2877,3
1789466451.895253,2075,2878,3
1789466451.898145,2422,2878,3
1789466451.898292,2558,2880,3
1789466451.901006,2303,2879,3
1789466451.9020538,2020,2877,3
1789466451.904379,1861,2876,3
1789466451.906938,1829,2878,3
1789466451.908247,1963,2878,3
1789466451.910561,2298,2877,3
1789466451.91276,2552,2878,3
1789466451.914051,2769,2879,3
1789466451.91614,1840,2876,3
1789466451.9186869,1908,2878,3
1789466451.920753,2098,2877,3
1789466451.9219,2167,2877,3
1789466451.924212,2203,2879,3
1789466451.9265192,2263,2877,3
1789466451.9320042,2287,2878,3
1789466451.932377,2441,2879,3
1789466451.932471,2173,2878,3
1789466451.9339771,2059,2877,3
1789466451.936714,2653,2880,3
1789466451.9385128,2409,2880,3
1789466451.941324,2602,2879,3
1789466451.943184,1589,2875,3
1789466451.9445288,1799,2876,3
1789466451.946605,2480,2879,3
1789466451.948713,1675,2875,3
1789466451.950908,1462,2876,3
1789466451.9521978,2303,2877,3
1789466451.954587,2655,2880,3
1789466451.956644,2049,2878,3
1789466451.9589388,1922,2878,3
1789466451.9602282,2103,2878,3
1789466451.96277,2028,2879,3
1789466451.9638772,1846,2876,3
1789466451.9664268,2316,2879,3
1789466451.968496,2485,2879,3
1789466451.974118,2348,2879,3
1789466451.974467,2290,2879,3
1789466451.9745762,2752,2880,3
1789466451.976373,2244,2879,3
1789466451.97969,1809,2875,3
1789466451.9836018,1676,2876,3
1789466451.983829,1868,2877,3
1789466451.983932,2015,2876,3
1789466451.9864142,2181,2879,3
1789466451.988721,2038,2877,3
1789466451.99002,2187,2877,3
1789466451.992575,2474,2878,3
1789466451.994845,2203,2878,3
1789466451.996136,2224,2879,3
1789466451.998682,2279,2877,3
1789466451.999973,2393,2880,3
1789466452.002269,2759,2880,3
1789466452.004813,2392,2878,3
1789466452.006104,1518,2875,3
1789466452.008647,1671,2876,3
1789466452.0099368,2062,2877,3
1789466452.015584,2094,2875,3
1789466452.016311,2532,2879,3
1789466452.016711,1839,2876,3
1789466452.0196202,1921,2877,3
1789466452.021306,2073,2878,3
1789466452.0225449,2061,2878,3
1789466452.025435,2159,2878,3
1789466452.026927,2281,2879,3
1789466452.027979,2219,2879,3
1789466452.030292,2003,2876,3
1789466452.032615,2105,2876,3
1789466452.034924,2195,2878,3
1789466452.036214,2162,2878,3
1789466452.0383291,2261,2878,3
1789466452.040881,2339,2877,3
1789466452.041931,2340,2878,3
1789466452.0442948,2326,2879,3
1789466452.046845,2574,2880,3
1789466452.047932,2221,2879,3
1789466452.049997,1613,2877,3
1789466452.0520582,1682,2876,3
1789466452.054115,1907,2875,3
1789466452.0575309,1901,2876,3
1789466452.059676,1920,2877,3
1789466452.061267,1934,2877,3
1789466452.062817,2201,2877,3
1789466452.066852,2282,2879,3
1789466452.067033,1850,2877,3
1789466452.0688808,2015,2877,3
1789466452.069924,2263,2877,3
1789466452.072473,2150,2879,3
1789466452.0745542,2019,2878,3
1789466452.0770261,1953,2877,3
1789466452.078314,2008,2877,3
1789466452.080863,1955,2878,3
1789466452.0819168,2138,2877,3
1789466452.084037,2323,2880,3
1789466452.086581,2631,2880,3
1789466452.088684,2411,2880,3
1789466452.089996,2063,2878,3
1789466452.092544,1704,2876,3
1789466452.094849,1804,2875,3
1789466452.098829,1948,2876,3
1789466452.099261,1934,2877,3
1789466452.101332,1986,2876,3
1789466452.102793,2052,2877,3
1789466452.1043122,2181,2878,3
1789466452.106185,2145,2877,3
1789466452.1092732,2200,2878,3
1789466452.1107972,2257,2878,3
1789466452.1120908,2187,2879,3
1789466452.114295,2129,2879,3
1789466452.116617,2159,2875,3
1789466452.117911,2124,2876,3
1789466452.1203861,2235,2879,3
1789466452.1226869,2304,2878,3
1789466452.1239848,2045,2877,3
1789466452.126192,2092,2878,3
1789466452.128737,2051,2878,3
1789466452.130029,2012,2876,3
1789466452.132294,2076,2877,3
1789466452.1348422,2219,2880,3
1789466452.13613,2296,2879,3
1789466452.1423051,2029,2877,3
1789466452.143061,1967,2878,3
1789466452.144557,2013,2878,3
1789466452.144781,2266,2878,3
1789466452.146404,2093,2879,3
1789466452.149291,1939,2876,3
1789466452.152272,2150,2877,3
1789466452.15238,2242,2879,3
1789466452.154806,2204,2878,3
1789466452.1561012,1857,2875,3
1789466452.1584058,1911,2876,3
1789466452.160845,2025,2875,3
1789466452.162084,2288,2880,3
1789466452.16463,2049,2876,3
1789466452.166754,2078,2877,3
1789466452.167906,2024,2875,3
1789466452.1704488,1937,2876,3
1789466452.172998,2033,2876,3
1789466452.1742852,2052,2878,3
1789466452.176584,2196,2878,3
1789466452.177964,2015,2879,3
1789466452.180734,2117,2878,3
1789466452.184258,2052,2876,3
1789466452.1846578,2138,2880,3
1789466452.186496,2453,2879,3
1789466452.189203,2303,2879,3
1789466452.1907141,1971,2875,3
1789466452.1936991,2268,2878,3
1789466452.195173,2404,2880,3
1789466452.196233,1899,2875,3
1789466452.198538,1702,2877,3
1789466452.2006888,2027,2876,3
1789466452.201982,1942,2877,3
1789466452.2045262,1971,2877,3
1789466452.20658,1876,2875,3
1789466452.207937,2062,2878,3
1789466452.2102458,2276,2878,3
1789466452.212543,2511,2878,3
1789466452.213929,2198,2879,3
1789466452.2164779,1920,2877,3
1789466452.218787,2152,2877,3
1789466452.220074,1980,2878,3
1789466452.225696,1982,2877,3
1789466452.225822,2019,2878,3
1789466452.226235,2221,2878,3
1789466452.2279758,1908,2877,3
1789466452.2307682,2038,2878,3
1789466452.232557,2098,2876,3
1789466452.235636,2579,2882,3
1789466452.237371,2592,2880,3
1789466452.2387352,2002,2877,3
1789466452.239892,1873,2876,3
1789466452.242201,2103,2879,3
1789466452.2445152,2140,2879,3
1789466452.245881,2421,2878,3
1789466452.2481852,1886,2875,3
1789466452.250693,1704,2875,3
1789466452.2527628,2187,2880,3
1789466452.2538712,2235,2879,3
1789466452.256172,1941,2876,3
1789466452.258471,2251,2879,3
1789466452.260913,2254,2878,3
1789466452.261954,2097,2878,3
1789466452.268011,2035,2878,3
1789466452.268458,1992,2876,3
1789466452.2685492,1917,2878,3
1789466452.270545,2058,2876,3
1789466452.273508,2333,2880,3
1789466452.2750342,2334,2879,3
1789466452.277905,2543,2878,3
1789466452.2780428,2739,2878,3
1789466452.2804239,1680,2875,3
1789466452.282847,1601,2878,3
1789466452.2840278,1886,2878,3
1789466452.2865841,1995,2878,3
1789466452.287893,2149,2879,3
1789466452.290188,2092,2878,3
1789466452.2924879,1796,2877,3
1789466452.295052,1848,2877,3
1789466452.296341,2188,2878,3
1789466452.298645,2188,2877,3
1789466452.300711,2245,2878,3
1789466452.302908,2335,2878,3
1789466452.304319,2229,2879,3
1789466452.306879,2112,2878,3
1789466452.31092,1999,2877,3
1789466452.311386,1925,2878,3
1789466452.3133929,2380,2878,3
1789466452.3152928,2222,2879,3
1789466452.317122,2271,2879,3
1789466452.321594,2173,2877,3
1789466452.321774,2141,2878,3
1789466452.3219688,2031,2877,3
1789466452.324656,2053,2878,3
1789466452.3259468,2042,2877,3
1789466452.328259,1814,2875,3
1789466452.330566,1813,2876,3
1789466452.3319209,2009,2877,3
1789466452.334042,2104,2877,3
1789466452.336349,2258,2879,3
1789466452.3388932,2226,2878,3
1789466452.339933,2147,2878,3
1789466452.342237,2090,2878,3
1789466452.3445399,2136,2878,3
1789466452.3466072,2126,2878,3
1789466452.347896,2104,2879,3
1789466452.350442,2178,2876,3
1789466452.3542469,2188,2877,3
1789466452.3550239,2240,2880,3
1789466452.356724,2213,2878,3
1789466452.3581371,2135,2877,3
1789466452.3612401,2012,2878,3
1789466452.3644228,2055,2878,3
1789466452.364565,2072,2877,3
1789466452.3664682,2032,2877,3
1789466452.367882,2080,2877,3
1789466452.370209,2068,2877,3
1789466452.372772,2146,2878,3
1789466452.373934,2007,2877,3
1789466452.375999,2014,2877,3
1789466452.378309,2071,2878,3
1789466452.3804832,2033,2877,3
1789466452.3825762,2015,2877,3
1789466452.3848472,2091,2878,3
1789466452.385904,2181,2879,3
1789466452.388022,2119,2878,3
1789466452.390578,2134,2878,3
1789466452.391917,2100,2877,3
1789466452.394228,2108,2878,3
1789466452.3983738,2093,2879,3
1789466452.398815,2055,2877,3
1789466452.4005919,2124,2877,3
1789466452.4022841,2136,2878,3
1789466452.405115,2084,2879,3
1789466452.4081979,2131,2877,3
1789466452.408315,2165,2877,3
1789466452.410209,2392,2878,3
1789466452.412761,2396,2879,3
1789466452.413884,2128,2879,3
1789466452.416197,1785,2876,3
1789466452.4185011,1984,2878,3
1789466452.420807,2072,2877,3
1789466452.422101,1933,2875,3
1789466452.424165,1904,2878,3
1789466452.426656,1971,2877,3
1789466452.427946,1830,2875,3
1789466452.430258,1962,2877,3
1789466452.432805,2033,2876,3
1789466452.434114,2097,2878,3
1789466452.436429,2162,2877,3
1789466452.442189,2149,2878,3
1789466452.442328,2107,2877,3
1789466452.442406,2038,2877,3
1789466452.444382,2075,2877,3
1789466452.447178,2082,2878,3
1789466452.449176,2113,2879,3
1789466452.452333,2175,2878,3
1789466452.4526238,2191,2880,3
1789466452.4542131,2181,2879,3
1789466452.4563022,2140,2878,3
1789466452.4584188,2161,2878,3
1789466452.460842,2245,2879,3
1789466452.461924,2149,2878,3
1789466452.4640372,1911,2877,3
1789466452.466159,2117,2877,3
1789466452.46871,2267,2880,3
1789466452.471029,2003,2877,3
1789466452.47232,1984,2876,3
1789466452.4743848,2017,2877,3
1789466452.476694,1946,2878,3
1789466452.478998,1966,2878,3
1789466452.480051,1998,2875,3
1789466452.486759,2000,2877,3
1789466452.487159,2091,2877,3
1789466452.4884,2128,2876,3
1789466452.488489,2120,2879,3
1789466452.4905941,2057,2878,3
1789466452.493185,2117,2877,3
1789466452.4962711,2133,2878,3
1789466452.496373,2137,2878,3
1789466452.498382,2042,2876,3
1789466452.500936,2024,2877,3
1789466452.5020008,2091,2878,3
1789466452.504247,2133,2879,3
1789466452.5065658,2095,2878,3
1789466452.507891,2093,2877,3
1789466452.5102878,2127,2877,3
1789466452.5126028,2093,2878,3
1789466452.513946,2012,2876,3
1789466452.516267,2193,2880,3
1789466452.518506,2237,2879,3
1789466452.520818,2107,2877,3
1789466452.522152,2027,2876,3
1789466452.524426,2018,2878,3
1789466452.53056,2064,2878,3
1789466452.531094,2101,2879,3
1789466452.531508,1994,2876,3
1789466452.5334668,2039,2877,3
1789466452.5354502,2074,2877,3
1789466452.537535,2169,2880,3
1789466452.5390232,2217,2878,3
1789466452.5422568,2154,2878,3
1789466452.5423832,2096,2878,3
1789466452.544058,2087,2878,3
1789466452.546616,2081,2878,3
1789466452.547921,2036,2876,3
1789466452.55164,2043,2878,3
1789466452.5540679,2105,2876,3
1789466452.554198,2199,2880,3
1789466452.556949,2044,2878,3
1789466452.558827,2101,2877,3
1789466452.561752,2068,2878,3
1789466452.563724,2042,2878,3
1789466452.565022,2023,2876,3
1789466452.5661361,2002,2877,3
1789466452.5684521,2089,2878,3
1789466452.5709481,2127,2879,3
1789466452.5722492,2117,2878,3
1789466452.574802,2087,2877,3
1789466452.576044,2081,2877,3
1789466452.578481,2186,2878,3
1789466452.5810292,2193,2879,3
1789466452.582318,2251,2879,3
1789466452.584623,2253,2879,3
1789466452.586816,2151,2879,3
1789466452.588104,2088,2878,3
1789466452.590427,1968,2875,3
1789466452.5960052,1958,2876,3
1789466452.596735,2002,2876,3
1789466452.598538,2221,2878,3
1789466452.5986829,2078,2878,3
1789466452.60006,2090,2878,3
1789466452.603374,2222,2878,3
1789466452.606074,2383,2879,3
1789466452.606289,2086,2879,3
1789466452.609045,2673,2880,3
1789466452.610336,2061,2878,3
1789466452.6128929,1801,2875,3
1789466452.614203,1507,2876,3
1789466452.6167538,1653,2877,3
1789466452.619066,1963,2877,3
1789466452.6203609,1955,2875,3
1789466452.622911,2300,2879,3
1789466452.6239629,2846,2880,3
1789466452.626326,2390,2879,3
1789466452.628872,1799,2876,3
1789466452.6301591,1678,2877,3
1789466452.632297,2028,2878,3
1789466452.634845,2035,2877,3
1789466452.638902,2044,2875,3
1789466452.6393201,1812,2878,3
1789466452.64144,2180,2878,3
1789466452.642833,1803,2877,3
1789466452.644243,1711,2875,3
1789466452.646139,2258,2877,3
1789466452.648718,2930,2880,3
1789466452.650273,2786,2880,3
1789466452.65259,1903,2876,3
1789466452.654818,1455,2876,3
1789466452.656113,1643,2876,3
1789466452.6581812,1973,2878,3
1789466452.6607249,2248,2878,3
1789466452.663203,2290,2878,3
1789466452.664258,1904,2876,3
1789466452.666713,1856,2877,3
1789466452.66902,2284,2879,3
1789466452.670308,2186,2879,3
1789466452.672621,1982,2874,3
1789466452.6749198,2708,2879,3
1789466452.6759648,2287,2878,3
1789466452.682104,1631,2876,3
1789466452.682831,1735,2876,3
1789466452.6833012,2077,2876,3
1789466452.685977,2195,2876,3
1789466452.686392,2193,2879,3
1789466452.6915488,1872,2875,3
1789466452.6917388,1875,2878,3
1789466452.693533,1947,2878,3
1789466452.694837,2155,2878,3
1789466452.696901,2123,2878,3
1789466452.697962,2152,2877,3
1789466452.700043,2072,2878,3
1789466452.702591,2136,2876,3
1789466452.704891,2138,2879,3
1789466452.7060008,2202,2878,3
1789466452.708183,2438,2878,3
1789466452.710494,2033,2877,3
1789466452.712794,2194,2878,3
1789466452.714036,2095,2876,3
1789466452.716581,1952,2877,3
1789466452.719062,2023,2878,3
1789466452.720356,2060,2877,3
1789466452.725291,2110,2878,3
1789466452.7263858,1909,2877,3
1789466452.727454,1673,2875,3
1789466452.7292118,1986,2878,3
1789466452.732249,2200,2880,3
1789466452.732404,2289,2879,3
1789466452.734902,2225,2880,3
1789466452.736768,2314,2879,3
1789466452.738066,2238,2879,3
1789466452.740375,2241,2879,3
1789466452.742802,1857,2876,3
1789466452.7440991,1951,2876,3
1789466452.7466502,1834,2875,3
1789466452.747941,1812,2876,3
1789466452.750259,1974,2876,3
1789466452.75232,2137,2879,3
1789466452.754385,2104,2877,3
1789466452.756934,2090,2877,3
1789466452.758226,2054,2878,3
1789466452.760525,2178,2879,3
1789466452.763069,2024,2876,3
1789466452.7645419,2074,2878,3
1789466452.768013,2070,2876,3
1789466452.76848,2245,2879,3
1789466452.7704582,2608,2879,3
1789466452.773404,2017,2877,3
1789466452.774879,1984,2877,3
1789466452.777465,1736,2876,3
1789466452.779392,1703,2877,3
1789466452.780701,1955,2878,3
1789466452.7819898,2003,2876,3
1789466452.7845418,1868,2877,3
1789466452.787095,1732,2876,3
1789466452.788386,2070,2877,3
1789466452.790796,2020,2877,3
1789466452.792083,2280,2878,3
1789466452.7946281,2446,2880,3
1789466452.796931,2231,2879,3
1789466452.7979782,1888,2878,3
1789466452.8005319,2215,2877,3
1789466452.8028429,2244,2879,3
1789466452.804045,2135,2879,3
1789466452.806347,2247,2877,3
1789466452.81103,2002,2877,3
1789466452.811456,1872,2875,3
1789466452.813069,1931,2876,3
1789466452.814775,2119,2877,3
1789466452.817703,2267,2879,3
1789466452.820141,2238,2878,3
1789466452.820297,2331,2878,3
1789466452.823,1554,2874,3
1789466452.8241868,1887,2876,3
1789466452.8262458,2176,2879,3
1789466452.828565,2104,2877,3
1789466452.83064,1885,2876,3
1789466452.832026,2095,2876,3
1789466452.83458,2135,2879,3
1789466452.836638,2072,2878,3
1789466452.8391922,2037,2877,3
1789466452.840481,2135,2878,3
1789466452.842946,2194,2878,3
1789466452.844234,2252,2879,3
1789466452.8467782,2185,2877,3
1789466452.848068,1828,2876,3
1789466452.853031,2049,2876,3
1789466452.853442,2304,2880,3
1789466452.855475,2309,2877,3
1789466452.857816,2058,2877,3
1789466452.860231,1939,2877,3
1789466452.860311,2297,2878,3
1789466452.862655,2657,2879,3
1789466452.864208,2164,2878,3
1789466452.866524,2404,2881,3
1789466452.8688462,2169,2879,3
1789466452.870156,1411,2876,3
1789466452.8724601,1597,2875,3
1789466452.875008,1924,2876,3
1789466452.876054,2103,2878,3
1789466452.8783538,2083,2878,3
1789466452.8809001,1978,2878,3
1789466452.882188,1967,2876,3
1789466452.884732,2026,2877,3
1789466452.887028,2104,2877,3
1789466452.888078,2362,2879,3
1789466452.890383,2383,2879,3
1789466452.895853,2179,2878,3
1789466452.896302,1855,2875,3
1789466452.8969631,2017,2877,3
1789466452.8984902,2072,2876,3
1789466452.901527,2092,2877,3
1789466452.903023,2147,2879,3
1789466452.905334,2128,2878,3
1789466452.90725,2069,2877,3
1789466452.908306,2060,2878,3
1789466452.910868,2117,2878,3
1789466452.913038,2239,2879,3
1789466452.914093,2374,2879,3
1789466452.9166431,2123,2876,3
1789466452.917933,2001,2875,3
1789466452.920427,2120,2877,3
1789466452.922976,2005,2876,3
1789466452.924277,2020,2877,3
1789466452.926823,2026,2877,3
1789466452.928112,2053,2878,3
1789466452.9306629,2006,2879,3
1789466452.931953,2115,2879,3
1789466452.9344058,2080,2876,3
1789466452.937866,2120,2878,3
1789466452.940216,2236,2878,3
1789466452.940413,2308,2879,3
1789466452.943158,2180,2877,3
1789466452.9469671,1973,2876,3
1789466452.947201,1993,2875,3
1789466452.9486878,1996,2876,3
1789466452.9499872,2273,2879,3
1789466452.9521532,2127,2879,3
1789466452.9547148,1979,2877,3
1789466452.956845,2097,2877,3
1789466452.959095,2297,2878,3
1789466452.9601438,2526,2879,3
1789466452.962692,2217,2878,3
1789466452.964996,1723,2876,3
1789466452.966045,1832,2877,3
1789466452.968606,1974,2877,3
1789466452.971175,2062,2875,3
1789466452.9724648,2004,2878,3
1789466452.975014,1940,2877,3
1789466452.976064,1808,2873,3
1789466452.9805791,2145,2878,3
1789466452.980955,2081,2878,3
1789466452.98303,2203,2880,3
1789466452.984391,2295,2879,3
1789466452.987623,2309,2879,3
1789466452.989844,2007,2877,3
1789466452.991699,2085,2879,3
1789466452.9928179,2071,2878,3
1789466452.99396,1989,2878,3
1789466452.996514,1924,2875,3
1789466452.998723,2190,2879,3
1789466453.000793,2232,2879,3
1789466453.003102,2088,2877,3
1789466453.004392,2087,2877,3
1789466453.006907,2011,2875,3
1789466453.008196,2073,2879,3
1789466453.0107388,2127,2878,3
1789466453.013047,2088,2878,3
1789466453.014345,1970,2875,3
1789466453.0169,1952,2877,3
1789466453.017945,2305,2880,3
1789466453.02319,2288,2879,3
1789466453.023934,2037,2878,3
1789466453.025353,2075,2878,3
1789466453.0267441,2175,2879,3
1789466453.0298162,2162,2878,3
1789466453.032157,1887,2876,3
1789466453.0323,2025,2876,3
1789466453.034936,2003,2876,3
1789466453.036129,2048,2877,3
1789466453.0384362,2111,2878,3
1789466453.040992,2124,2878,3
1789466453.042288,2120,2877,3
1789466453.0443919,2072,2878,3
1789466453.0468512,2224,2879,3
1789466453.0491588,2214,2879,3
1789466453.050449,1992,2876,3
1789466453.052512,1836,2877,3
1789466453.055059,2012,2877,3
1789466453.056112,2167,2878,3
1789466453.058215,2126,2877,3
1789466453.060273,1897,2876,3
1789466453.065614,2020,2878,3
1789466453.065744,2002,2877,3
1789466453.067574,2167,2879,3
1789466453.068944,2452,2879,3
1789466453.070305,2246,2879,3
1789466453.072296,1888,2875,3
1789466453.074481,2096,2878,3
1789466453.076053,2142,2878,3
1789466453.078364,2094,2878,3
1789466453.080686,2164,2879,3
1789466453.0820348,2098,2879,3
1789466453.084588,1997,2877,3
1789466453.087135,1990,2876,3
1789466453.088425,2176,2879,3
1789466453.090969,2155,2879,3
1789466453.0921018,2149,2877,3
1789466453.094657,2245,2878,3
1789466453.095996,2252,2879,3
1789466453.098309,2054,2875,3
1789466453.100618,1971,2876,3
1789466453.1033118,2131,2877,3
1789466453.107579,2104,2876,3
1789466453.1079779,2064,2879,3
1789466453.108439,1916,2876,3
1789466453.110467,1945,2877,3
1789466453.113206,2034,2878,3
1789466453.1151109,1952,2876,3
1789466453.117409,1940,2876,3
1789466453.119353,2184,2880,3
1789466453.120418,2485,2880,3
1789466453.122976,2546,2879,3
1789466453.124033,2198,2878,3
1789466453.126317,2950,2880,3
1789466453.128464,2058,2878,3
1789466453.13103,1372,2877,3
1789466453.132326,1986,2877,3
1789466453.1344068,2567,2880,3
1789466453.136717,2156,2879,3
1789466453.139002,1681,2875,3
1789466453.140055,1804,2876,3
1789466453.142605,3398,2883,3
1789466453.1449091,3104,2881,3
1789466453.1460328,2156,2878,3
1789466453.1515641,1962,2877,3
1789466453.152381,2032,2877,3
1789466453.15251,1549,2878,3
1789466453.1541061,1063,2876,3
1789466453.156995,1548,2876,3
1789466453.158874,2480,2878,3
1789466453.161196,2884,2880,3
1789466453.163211,2094,2879,3
1789466453.1645281,733,2874,3
1789466453.16709,1869,2877,3
1789466453.168781,2855,2881,3
1789466453.17111,2432,2876,3
1789466453.172404,2243,2880,3
1789466453.174562,2634,2880,3
1789466453.1766348,2569,2880,3
1789466453.179193,2966,2881,3
1789466453.180251,1723,2875,3
1789466453.182571,907,2877,3
1789466453.1846788,2527,2880,3
1789466453.1860962,2124,2878,3
1789466453.188371,808,2876,3
1789466453.1905012,835,2875,3
1789466453.196258,1064,2874,3
1789466453.196689,1879,2877,3
1789466453.197113,2869,2881,3
1789466453.198936,3257,2881,3
1789466453.201547,1259,2877,3
1789466453.204194,1848,2878,3
1789466453.204349,2937,2881,3
1789466453.206979,2387,2880,3
1789466453.209051,1798,2878,3
1789466453.210353,1549,2878,3
1789466453.2171142,2677,2881,3
1789466453.217887,1739,2877,3
1789466453.218709,1230,2875,3
1789466453.219878,2640,2879,3
1789466453.2201211,2728,2878,3
1789466453.223306,1778,2878,3
1789466453.225037,1531,2876,3
1789466453.2275982,1317,2874,3
1789466453.229671,1164,2874,3
1789466453.230978,1471,2874,3
1789466453.2322729,2376,2879,3
1789466453.234647,2431,2880,3
1789466453.236177,2825,2879,3
1789466453.238774,1698,2875,3
1789466453.241142,1308,2877,3
1789466453.2424488,2905,2881,3
1789466453.2447639,836,2876,3
1789466453.247083,719,2874,3
1789466453.248137,1394,2876,3
1789466453.250449,1596,2876,3
1789466453.2527611,1556,2876,3
1789466453.2550662,1375,2876,3
1789466453.256356,1414,2877,3
1789466453.258935,2166,2878,3
1789466453.262793,3099,2880,3
1789466453.262914,1262,2875,3
1789466453.265533,880,2875,3
1789466453.267427,1531,2877,3
1789466453.270485,2106,2877,3
1789466453.273503,2111,2876,3
1789466453.275838,2032,2879,3
1789466453.276045,2399,2879,3
1789466453.276083,1662,2876,3
1789466453.2784052,111,2874,3
1789466453.283809,599,2875,3
1789466453.2842538,1101,2877,3
1789466453.2867641,1253,2877,3
1789466453.2870028,1190,2875,3
1789466453.289152,1001,2876,3
1789466453.290845,1285,2875,3
1789466453.295134,1240,2875,3
1789466453.295367,1223,2875,3
1789466453.2969742,1754,2876,3
1789466453.298286,1444,2876,3
1789466453.300361,1457,2877,3
1789466453.302709,1352,2876,3
1789466453.3048341,1284,2875,3
1789466453.3069172,1491,2876,3
1789466453.308063,3034,2881,3
1789466453.3101408,1938,2877,3
1789466453.3123782,1248,2874,3
1789466453.31499,1286,2877,3
1789466453.316298,1981,2877,3
1789466453.318812,2714,2881,3
1789466453.32011,1980,2878,3
1789466453.322581,1137,2875,3
1789466453.324901,1328,2875,3
1789466453.326207,1577,2876,3
1789466453.332366,2567,2880,3
1789466453.33287,2653,2879,3
1789466453.3330078,2214,2876,3
1789466453.335219,2071,2877,3
1789466453.336996,2859,2881,3
1789466453.33883,1509,2876,3
1789466453.34108,1273,2876,3
1789466453.344092,2159,2878,3
1789466453.3443542,2595,2880,3
1789466453.3465579,2128,2878,3
1789466453.348886,2309,2879,3
1789466453.354283,2535,2879,3
1789466453.355171,2462,2879,3
1789466453.355594,2831,2880,3
1789466453.356993,1766,2875,3
1789466453.3584352,1502,2876,3
1789466453.364992,1886,2876,3
1789466453.36517,2222,2878,3
1789466453.365414,1675,2875,3
1789466453.367307,1827,2876,3
1789466453.368416,2428,2878,3
1789466453.370806,2100,2878,3
1789466453.373198,2201,2878,3
1789466453.374495,2344,2879,3
1789466453.376877,2588,2880,3
1789466453.379197,2540,2880,3
1789466453.3804858,1962,2876,3
1789466453.382803,2305,2879,3
1789466453.384095,2480,2880,3
1789466453.386396,1898,2876,3
1789466453.3888278,1872,2875,3
1789466453.3901281,2471,2880,3
1789466453.3924322,2594,2879,3
1789466453.3949802,2469,2879,3
1789466453.39627,2355,2879,3
1789466453.401664,2283,2878,3
1789466453.40178,2736,2880,3
1789466453.404418,2611,2879,3
1789466453.404583,1539,2876,3
1789466453.4061801,1622,2876,3
1789466453.4094532,2262,2879,3
1789466453.4124959,2535,2880,3
1789466453.412711,2169,2878,3
1789466453.414655,1288,2875,3
1789466453.417114,1766,2877,3
1789466453.421843,2506,2880,3
1789466453.421951,2764,2880,3
1789466453.422831,2326,2879,3
1789466453.42462,2065,2878,3
1789466453.42669,2739,2880,3
1789466453.428189,2150,2878,3
1789466453.4324071,2047,2878,3
1789466453.43259,1935,2877,3
1789466453.434645,2516,2880,3
1789466453.436974,2251,2879,3
1789466453.438272,1925,2876,3
1789466453.440748,1987,2875,3
1789466453.442045,2331,2879,3
1789466453.444281,2228,2878,3
1789466453.4465961,2501,2878,3
1789466453.4486651,2222,2878,3
1789466453.450732,1735,2875,3
1789466453.45279,2006,2875,3
1789466453.4548638,2773,2879,3
1789466453.4561548,2159,2880,3
1789466453.458598,1990,2878,3
1789466453.4608982,2074,2878,3
1789466453.4620411,2176,2878,3
1789466453.4679239,2214,2878,3
1789466453.4684181,2185,2879,3
1789466453.4692621,2397,2880,3
1789466453.4706051,2327,2879,3
1789466453.472509,2001,2876,3
1789466453.4756548,2189,2878,3
1789466453.478785,2359,2878,3
1789466453.47896,2177,2878,3
1789466453.480869,2967,2880,3
1789466453.4832482,1834,2875,3
1789466453.4877372,1765,2876,3
1789466453.488211,2457,2879,3
1789466453.488681,1974,2876,3
1789466453.490561,2417,2879,3
1789466453.4933188,2869,2879,3
1789466453.495289,1315,2874,3
1789466453.498592,1326,2875,3
1789466453.498731,2055,2876,3
1789466453.500224,2311,2879,3
1789466453.502656,1811,2877,3
1789466453.504988,2138,2878,3
1789466453.5062861,2995,2882,3
1789466453.5088398,2089,2878,3
1789466453.511143,1565,2876,3
1789466453.512434,1955,2877,3
1789466453.51498,2245,2878,3
1789466453.516271,2245,2879,3
1789466453.518836,2078,2877,3
1789466453.520134,2074,2878,3
1789466453.5224588,2256,2879,3
1789466453.5249379,2252,2879,3
1789466453.5261,2476,2879,3
1789466453.5284119,2920,2881,3
1789466453.533777,2209,2879,3
1789466453.534561,1913,2878,3
1789466453.534644,2259,2876,3
1789466453.536651,1798,2876,3
1789466453.538783,2252,2878,3
1789466453.540225,2321,2877,3
1789466453.5451891,1536,2874,3
1789466453.545368,2640,2879,3
1789466453.547325,2212,2878,3
1789466453.5486321,1662,2876,3
1789466453.554316,1755,2878,3
1789466453.555551,1748,2877,3
1789466453.555997,1992,2877,3
1789466453.556136,2035,2878,3
1789466453.560456,1692,2877,3
1789466453.561336,1771,2877,3
1789466453.566368,2066,2878,3
1789466453.566549,2320,2879,3
1789466453.566744,2361,2879,3
1789466453.568748,2433,2880,3
1789466453.570008,2865,2881,3
1789466453.572605,2397,2878,3
1789466453.5755,1749,2875,3
1789466453.576614,1800,2876,3
1789466453.579133,2227,2879,3
1789466453.580966,2751,2879,3
1789466453.582504,2082,2878,3
1789466453.584973,1657,2875,3
1789466453.586412,1685,2876,3
1789466453.5887868,1850,2876,3
1789466453.590168,2336,2880,3
1789466453.5925078,2078,2878,3
1789466453.594811,1916,2878,3
1789466453.597064,2373,2880,3
1789466453.5982049,2228,2878,3
1789466453.605453,1970,2877,3
1789466453.608454,3145,2881,3
1789466453.608984,1890,2877,3
1789466453.611766,1537,2876,3
1789466453.6140108,2272,2879,3
1789466453.619821,1859,2876,3
1789466453.6204338,1601,2876,3
1789466453.6227021,1688,2876,3
1789466453.622848,1797,2876,3
1789466453.6229692,2028,2877,3
1789466453.6230662,2379,2879,3
1789466453.623136,2782,2880,3
1789466453.62447,2539,2880,3
1789466453.6329138,1927,2875,3
1789466453.63477,1941,2876,3
1789466453.6350908,1985,2877,3
1789466453.6372302,1950,2877,3
1789466453.6386821,1981,2875,3
1789466453.639976,1827,2876,3
1789466453.645226,2024,2878,3
1789466453.6456802,2321,2877,3
1789466453.646121,2327,2878,3
1789466453.648352,2345,2879,3
1789466453.648639,2342,2879,3
1789466453.64878,1562,2877,3
1789466453.651102,1832,2876,3
1789466453.652451,2183,2876,3
1789466453.654569,2027,2879,3
1789466453.656965,2076,2878,3
1789466453.658116,2205,2878,3
1789466453.660351,1812,2877,3
1789466453.662761,1757,2875,3
1789466453.6650429,2244,2878,3
1789466453.666104,2357,2878,3
1789466453.668297,2337,2880,3
1789466453.670665,1929,2877,3
1789466453.6720252,2032,2878,3
1789466453.6741,2099,2877,3
1789466453.676163,1755,2876,3
1789466453.67872,1919,2876,3
1789466453.684801,2332,2879,3
1789466453.6857758,2479,2879,3
1789466453.686791,2364,2879,3
1789466453.690016,1696,2876,3
1789466453.691775,1799,2877,3
1789466453.698633,2153,2878,3
1789466453.698946,1738,2876,3
1789466453.699233,1836,2875,3
1789466453.699417,2031,2879,3
1789466453.701212,2020,2876,3
1789466453.7020679,2138,2879,3
1789466453.7021818,2158,2878,3
1789466453.704824,2163,2878,3
1789466453.7100601,2183,2879,3
1789466453.710547,2162,2878,3
1789466453.7110772,2162,2878,3
1789466453.7126558,2265,2880,3
1789466453.714324,2112,2879,3
1789466453.716147,1985,2877,3
1789466453.721798,2098,2876,3
1789466453.7238889,2078,2877,3
1789466453.72402,2114,2879,3
1789466453.724137,2053,2878,3
1789466453.726389,2327,2879,3
1789466453.730269,2369,2878,3
1789466453.730439,1780,2877,3
1789466453.732952,1809,2877,3
1789466453.73435,2075,2877,3
1789466453.737055,2105,2877,3
1789466453.738391,1960,2876,3
1789466453.740951,1940,2876,3
1789466453.7422478,1975,2877,3
1789466453.744319,2071,2877,3
1789466453.746391,2110,2879,3
1789466453.74894,2061,2877,3
1789466453.7502358,2108,2878,3
1789466453.752927,2204,2880,3
1789466453.7543209,2239,2879,3
1789466453.7613282,2152,2878,3
1789466453.761858,2070,2879,3
1789466453.7619991,2127,2877,3
1789466453.7638972,2220,2878,3
1789466453.7654111,2119,2879,3
1789466453.767157,2073,2876,3
1789466453.7745469,2151,2876,3
1789466453.774775,2250,2879,3
1789466453.775063,2175,2878,3
1789466453.775331,2110,2878,3
1789466453.777623,2175,2877,3
1789466453.778975,2208,2878,3
1789466453.780122,2198,2879,3
1789466453.786911,2138,2879,3
1789466453.790734,2088,2877,3
1789466453.79585,2213,2879,3
1789466453.8003159,2277,2879,3
1789466453.800513,2265,2878,3
1789466453.803102,2144,2877,3
1789466453.8031502,2077,2878,3
1789466453.8035789,2101,2878,3
1789466453.8037062,2084,2876,3
1789466453.803761,2090,2877,3
1789466453.8038,2118,2877,3
1789466453.805278,2174,2879,3
1789466453.8065028,2127,2878,3
1789466453.808697,2194,2878,3
1789466453.811064,2253,2878,3
1789466453.812201,2267,2878,3
1789466453.814486,2318,2879,3
1789466453.81689,2307,2880,3
1789466453.818124,2233,2880,3
1789466453.820666,2265,2879,3
1789466453.823141,2199,2878,3
1789466453.824597,2268,2879,3
1789466453.826059,2197,2878,3
1789466453.828737,2125,2877,3
1789466453.831072,2048,2879,3
1789466453.83215,1989,2877,3
1789466453.834826,2072,2877,3
1789466453.837169,2150,2877,3
1789466453.843127,2131,2879,3
1789466453.843751,2019,2878,3
1789466453.84481,2069,2877,3
1789466453.846285,2083,2878,3
1789466453.848757,2124,2877,3
1789466453.8493,2251,2879,3
1789466453.8512268,2236,2879,3
1789466453.856816,2249,2878,3
1789466453.85701,2183,2879,3
1789466453.857194,2193,2878,3
1789466453.859545,2210,2878,3
1789466453.860852,2171,2878,3
1789466453.8677702,2206,2878,3
1789466453.868408,2141,2879,3
1789466453.870839,2016,2877,3
1789466453.870998,2045,2876,3
1789466453.87125,2141,2875,3
1789466453.873266,2158,2879,3
1789466453.875333,2089,2878,3
1789466453.8771122,2136,2877,3
1789466453.88098,2129,2877,3
1789466453.88132,2139,2879,3
1789466453.883769,2188,2879,3
1789466453.8848588,2164,2877,3
1789466453.886035,2121,2877,3
1789466453.8886669,2267,2879,3
1789466453.89009,2051,2879,3
1789466453.8922381,2084,2877,3
1789466453.894336,2112,2877,3
1789466453.896704,2370,2878,3
1789466453.8980732,2345,2879,3
1789466453.90047,2000,2877,3
1789466453.903143,1911,2876,3
1789466453.904458,1953,2878,3
1789466453.90693,2131,2876,3
1789466453.9080691,2008,2878,3
1789466453.910172,1979,2877,3
1789466453.912679,1918,2877,3
1789466453.914766,1902,2876,3
1789466453.921723,2031,2877,3
1789466453.9229288,2255,2880,3
1789466453.92385,2313,2879,3
1789466453.9252381,2387,2879,3
1789466453.92555,2242,2878,3
1789466453.9281862,2162,2878,3
1789466453.928672,2057,2878,3
1789466453.931624,2084,2878,3
1789466453.935613,2126,2879,3
1789466453.935822,1980,2877,3
1789466453.938517,2242,2879,3
1789466453.9387798,2186,2880,3
1789466453.9402308,2230,2879,3
1789466453.946961,2275,2879,3
1789466453.947621,2015,2878,3
1789466453.9481568,2250,2878,3
1789466453.948658,2107,2877,3
1789466453.9503849,2085,2877,3
1789466453.95321,2100,2877,3
1789466453.9549708,1923,2877,3
1789466453.9566379,1931,2874,3
1789466453.960416,2075,2878,3
1789466453.960531,2142,2877,3
1789466453.962742,2207,2878,3
1789466453.9648662,1995,2876,3
1789466453.966093,2062,2875,3
1789466453.96867,2385,2880,3
1789466453.97079,2271,2879,3
1789466453.972076,2245,2878,3
1789466453.974359,1990,2876,3
1789466453.976715,1941,2874,3
1789466453.978092,1996,2876,3
1789466453.980279,2083,2879,3
1789466453.982601,2097,2878,3
1789466453.984907,2057,2876,3
1789466453.986211,2091,2879,3
1789466453.98851,2022,2876,3
1789466453.990997,2065,2879,3
1789466453.992067,2318,2878,3
1789466453.9943838,2215,2878,3
1789466454.000959,2076,2878,3
1789466454.001587,2040,2876,3
1789466454.002681,2042,2877,3
1789466454.003725,2053,2876,3
1789466454.005145,2121,2879,3
1789466454.006965,2092,2878,3
1789466454.008798,2145,2878,3
1789466454.010994,2188,2878,3
1789466454.014433,2150,2878,3
1789466454.0146189,1953,2877,3
1789466454.016439,2108,2877,3
1789466454.0185568,2095,2877,3
1789466454.024801,2171,2879,3
1789466454.025557,2155,2878,3
1789466454.0270998,2045,2877,3
1789466454.027214,2156,2879,3
1789466454.0291672,2107,2878,3
1789466454.030818,2054,2879,3
1789466454.036133,2004,2877,3
1789466454.036469,2100,2878,3
1789466454.0366552,2143,2877,3
1789466454.038746,2114,2879,3
1789466454.040816,2090,2878,3
1789466454.04294,2027,2877,3
1789466454.044071,2042,2878,3
1789466454.046622,2093,2879,3
1789466454.049108,2063,2876,3
1789466454.0504131,2109,2878,3
1789466454.052969,2131,2877,3
1789466454.054264,2099,2879,3
1789466454.056793,2102,2878,3
1789466454.0580878,2118,2878,3
1789466454.060415,2122,2877,3
1789466454.06294,2142,2878,3
1789466454.064237,2066,2876,3
1789466454.066489,2072,2878,3
1789466454.069039,2093,2878,3
1789466454.073534,2152,2879,3
1789466454.074097,2179,2878,3
1789466454.075319,2103,2877,3
1789466454.0765839,2103,2877,3
1789466454.0800278,2125,2878,3
1789466454.08175,2159,2879,3
1789466454.085629,2140,2879,3
1789466454.0857742,2124,2877,3
1789466454.0877702,2075,2877,3
1789466454.088833,2115,2879,3
1789466454.090128,2026,2878,3
1789466454.0954251,2048,2877,3
1789466454.0958369,2048,2878,3
1789466454.098121,2040,2878,3
1789466454.099651,2034,2878,3
1789466454.10116,1998,2877,3
1789466454.103283,2057,2877,3
1789466454.10673,2130,2879,3
1789466454.1069639,2148,2879,3
1789466454.1090088,2093,2877,3
1789466454.110347,2109,2877,3
1789466454.112902,2129,2877,3
1789466454.1149929,2077,2879,3
1789466454.1162891,2105,2877,3
1789466454.118659,2136,2877,3
1789466454.120971,2181,2879,3
1789466454.1220212,2137,2878,3
1789466454.1245692,2090,2877,3
1789466454.127119,2060,2877,3
1789466454.128413,2152,2878,3
1789466454.130962,2093,2879,3
1789466454.132071,2079,2876,3
1789466454.134534,2071,2877,3
1789466454.137028,2140,2879,3
1789466454.1383219,2133,2878,3
1789466454.144256,2107,2877,3
1789466454.14516,2085,2877,3
1789466454.146732,2068,2878,3
1789466454.1468742,2200,2878,3
1789466454.148669,2096,2879,3
1789466454.150265,2072,2878,3
1789466454.152301,2125,2878,3
1789466454.155812,2146,2879,3
1789466454.1579351,2068,2877,3
1789466454.158108,2074,2878,3
1789466454.1602051,2085,2878,3
1789466454.165815,2095,2877,3
1789466454.166296,2071,2879,3
1789466454.166743,2021,2876,3
1789466454.1686249,2070,2877,3
1789466454.170526,2131,2879,3
1789466454.173789,2170,2878,3
1789466454.176898,2146,2878,3
1789466454.177012,2137,2877,3
1789466454.179032,2164,2879,3
1789466454.1801028,2179,2879,3
1789466454.182664,2055,2877,3
1789466454.1849349,2131,2878,3
1789466454.186234,2205,2879,3
1789466454.188551,2221,2878,3
1789466454.190609,2095,2878,3
1789466454.192676,1987,2877,3
1789466454.1940632,2023,2878,3
1789466454.1966121,2114,2878,3
1789466454.198923,2071,2876,3
1789466454.2000651,2023,2878,3
1789466454.202626,2045,2877,3
1789466454.204936,2088,2876,3
1789466454.20623,2082,2878,3
1789466454.208547,2041,2877,3
1789466454.2136939,2050,2877,3
1789466454.214207,2066,2879,3
1789466454.214624,2036,2877,3
1789466454.216491,2042,2877,3
1789466454.218464,2023,2878,3
1789466454.221728,2105,2877,3
1789466454.224818,2176,2878,3
1789466454.2249742,2085,2877,3
1789466454.227096,2045,2877,3
1789466454.228406,2057,2876,3
1789466454.2345831,2048,2877,3
1789466454.2350342,2068,2877,3
1789466454.235157,2061,2878,3
1789466454.236921,2082,2877,3
1789466454.238467,2135,2879,3
1789466454.240403,2142,2877,3
1789466454.2449448,2109,2877,3
1789466454.245183,2171,2877,3
1789466454.247125,2186,2878,3
1789466454.248428,2070,2876,3
1789466454.250499,2079,2877,3
1789466454.252813,2148,2878,3
1789466454.255122,2172,2879,3
1789466454.256413,2247,2878,3
1789466454.25858,2097,2877,3
1789466454.261129,1887,2875,3
1789466454.262421,2026,2876,3
1789466454.264967,2045,2876,3
1789466454.266258,1957,2877,3
1789466454.2688031,1929,2878,3
1789466454.271035,2206,2879,3
1789466454.272324,2313,2877,3
1789466454.274563,2173,2878,3
1789466454.280532,2419,2878,3
1789466454.280971,2260,2878,3
1789466454.281385,1783,2877,3
1789466454.2829702,1826,2878,3
1789466454.2844381,2153,2878,3
1789466454.287551,2589,2880,3
1789466454.290103,2377,2879,3
1789466454.290333,1991,2877,3
1789466454.29302,1803,2875,3
1789466454.294313,2482,2880,3
1789466454.296632,2286,2879,3
1789466454.299194,1544,2877,3
1789466454.3004,1511,2878,3
1789466454.302701,1651,2877,3
1789466454.305002,1862,2876,3
1789466454.306302,1915,2878,3
1789466454.308608,1849,2878,3
1789466454.310915,2383,2878,3
1789466454.312206,2885,2880,3
1789466454.31428,1745,2877,3
1789466454.3165948,1654,2878,3
1789466454.3191621,2241,2878,3
1789466454.3202188,2240,2877,3
1789466454.325719,2386,2879,3
1789466454.326554,2283,2877,3
1789466454.327046,2085,2879,3
1789466454.328675,2115,2878,3
1789466454.3301492,1774,2877,3
1789466454.333389,1807,2877,3
1789466454.336022,2088,2879,3
1789466454.336107,2205,2877,3
1789466454.338946,2080,2879,3
1789466454.3402398,1828,2877,3
1789466454.342491,1841,2878,3
1789466454.344977,2487,2879,3
1789466454.346103,2935,2881,3
1789466454.34865,1808,2876,3
1789466454.35082,1650,2877,3
1789466454.353142,2244,2879,3
1789466454.354194,2245,2878,3
1789466454.356506,2237,2879,3
1789466454.3590631,1598,2877,3
1789466454.360121,1338,2876,3
1789466454.362668,1548,2875,3
1789466454.365091,2111,2877,3
1789466454.3663821,2533,2880,3
1789466454.371073,2564,2880,3
1789466454.37151,2389,2879,3
1789466454.373664,2202,2878,3
1789466454.375459,1760,2876,3
1789466454.377206,2084,2878,3
1789466454.378547,2277,2878,3
1789466454.381232,2354,2878,3
1789466454.383171,2301,2880,3
1789466454.384501,1985,2876,3
1789466454.386821,1706,2877,3
1789466454.388893,1887,2877,3
1789466454.3900642,1905,2876,3
1789466454.392614,1896,2878,3
1789466454.395164,2085,2878,3
1789466454.3962162,2406,2879,3
1789466454.398527,2087,2878,3
1789466454.4008892,2092,2877,3
1789466454.4022,2166,2877,3
1789466454.4047601,2216,2877,3
1789466454.4061718,2186,2879,3
1789466454.408248,2090,2878,3
1789466454.410814,2082,2877,3
1789466454.4120781,1898,2877,3
1789466454.4169002,2068,2878,3
1789466454.4177752,1951,2876,3
1789466454.419505,2022,2876,3
1789466454.421053,2179,2877,3
1789466454.423289,2388,2879,3
1789466454.427051,1941,2876,3
1789466454.427289,2011,2877,3
1789466454.428996,1970,2877,3
1789466454.431375,2118,2878,3
1789466454.4324229,2062,2877,3
1789466454.4384582,2184,2878,3
1789466454.438897,2612,2880,3
1789466454.440342,3255,2883,3
1789466454.440578,2367,2879,3
1789466454.445832,1259,2875,3
1789466454.446017,1395,2875,3
1789466454.448699,1740,2877,3
1789466454.448837,1806,2877,3
1789466454.451147,1825,2877,3
1789466454.4524531,1942,2878,3
1789466454.454783,1997,2878,3
1789466454.456089,1908,2878,3
1789466454.4587982,2094,2878,3
1789466454.460097,2360,2878,3
1789466454.4621692,2450,2880,3
1789466454.4647338,2372,2879,3
1789466454.466053,1974,2877,3
1789466454.4683762,1931,2877,3
1789466454.4704509,2096,2879,3
1789466454.472517,2056,2878,3
1789466454.4746509,1983,2878,3
1789466454.4761338,2175,2878,3
1789466454.480474,2699,2879,3
1789466454.4805079,2183,2878,3
1789466454.486426,1995,2878,3
1789466454.486527,1850,2877,3
1789466454.487065,1853,2877,3
1789466454.489436,1886,2876,3
1789466454.491373,1921,2875,3
1789466454.492794,1908,2878,3
1789466454.494793,2062,2878,3
1789466454.497456,2021,2879,3
1789466454.499497,2016,2875,3
1789466454.500969,2087,2877,3
1789466454.50243,2201,2877,3
1789466454.506675,2216,2878,3
1789466454.507141,2186,2878,3
1789466454.5096672,2074,2879,3
1789466454.511895,2445,2878,3
1789466454.5148768,2480,2879,3
1789466454.515108,1680,2876,3
1789466454.517707,1790,2877,3
1789466454.519735,2053,2877,3
1789466454.520798,2145,2878,3
1789466454.523107,2081,2879,3
1789466454.524405,1950,2877,3
1789466454.526935,1934,2877,3
1789466454.528069,2002,2877,3
1789466454.5303721,2037,2878,3
1789466454.532594,2250,2879,3
1789466454.5351522,2211,2878,3
1789466454.536452,2156,2877,3
1789466454.539011,2125,2876,3
1789466454.540308,2116,2878,3
1789466454.542623,2002,2878,3
1789466454.544937,1873,2874,3
1789466454.546093,2136,2878,3
1789466454.548644,2197,2878,3
1789466454.5550668,2282,2879,3
1789466454.5558872,2131,2877,3
1789466454.5579531,2038,2877,3
1789466454.558109,2054,2877,3
1789466454.5583518,1941,2877,3
1789466454.5612679,2005,2877,3
1789466454.5632021,2481,2879,3
1789466454.565519,2096,2878,3
1789466454.567157,1680,2876,3
1789466454.568652,2226,2880,3
1789466454.570034,1923,2879,3
1789466454.572358,1986,2878,3
1789466454.574671,2074,2879,3
1789466454.577122,2147,2878,3
1789466454.578175,1971,2877,3
1789466454.580724,1777,2876,3
1789466454.5830421,1911,2876,3
1789466454.584098,2348,2879,3
1789466454.586648,2138,2877,3
1789466454.588882,2213,2878,3
1789466454.5901718,2933,2880,3
1789466454.592479,2282,2878,3
1789466454.59503,1528,2875,3
1789466454.596323,1751,2876,3
1789466454.601557,1635,2877,3
1789466454.602404,1851,2878,3
1789466454.603693,1998,2875,3
1789466454.605312,1923,2877,3
1789466454.6068969,1946,2878,3
1789466454.609071,2020,2878,3
1789466454.611381,2033,2878,3
1789466454.6131232,2202,2878,3
1789466454.614421,2234,2879,3
1789466454.616491,2350,2880,3
1789466454.6206641,2234,2879,3
1789466454.6222348,2087,2878,3
1789466454.622348,2001,2879,3
1789466454.625646,1973,2878,3
1789466454.626886,2404,2879,3
1789466454.628596,2376,2878,3
1789466454.6307352,1967,2875,3
1789466454.6327522,1977,2877,3
1789466454.635075,1969,2876,3
1789466454.636371,2053,2876,3
1789466454.638945,2057,2876,3
1789466454.640239,2044,2879,3
1789466454.6427908,1967,2877,3
1789466454.645107,1934,2877,3
1789466454.6461608,2042,2879,3
1789466454.648223,2207,2879,3
1789466454.650542,2151,2877,3
1789466454.653095,1955,2878,3
1789466454.654138,2008,2877,3
1789466454.656448,2130,2878,3
1789466454.6590028,2108,2878,3
1789466454.660296,2060,2877,3
1789466454.666547,2157,2878,3
1789466454.667061,2170,2878,3
1789466454.66716,2163,2878,3
1789466454.669025,2194,2877,3
1789466454.671019,2152,2878,3
1789466454.672501,2100,2879,3
1789466454.6743412,1928,2876,3
1789466454.6765282,1823,2875,3
1789466454.6787221,1857,2876,3
1789466454.681036,1943,2876,3
1789466454.682097,2026,2877,3
1789466454.684496,2255,2879,3
1789466454.686806,2164,2879,3
1789466454.6880991,2108,2879,3
1789466454.6904252,2119,2878,3
1789466454.6929789,2025,2878,3
1789466454.694271,2134,2879,3
1789466454.6968179,2228,2878,3
1789466454.6981099,2149,2879,3
1789466454.7006578,1818,2877,3
1789466454.702361,1959,2877,3
1789466454.704812,2122,2876,3
1789466454.70611,2284,2879,3
1789466454.712061,2038,2878,3
1789466454.712945,1921,2876,3
1789466454.71344,2119,2878,3
1789466454.716115,2113,2878,3
1789466454.71621,2135,2879,3
1789466454.719481,2075,2875,3
1789466454.721921,2132,2879,3
1789466454.722115,2094,2880,3
1789466454.724842,2129,2878,3
1789466454.72614,2057,2878,3
1789466454.728487,2104,2878,3
1789466454.730815,2220,2878,3
1789466454.7328892,1965,2876,3
1789466454.734185,1902,2877,3
1789466454.736492,2098,2877,3
1789466454.738806,2090,2876,3
1789466454.740057,2189,2878,3
1789466454.742368,2189,2878,3
1789466454.744683,2052,2877,3
1789466454.746049,2103,2878,3
1789466454.7486038,2308,2879,3
1789466454.751043,2276,2879,3
1789466454.752337,1940,2878,3
1789466454.757044,2088,2877,3
1789466454.757848,1839,2875,3
1789466454.759336,1949,2876,3
1789466454.7612102,2188,2879,3
1789466454.7631412,2126,2878,3
1789466454.7645152,1960,2877,3
1789466454.766707,1985,2877,3
1789466454.768663,2019,2877,3
1789466454.7700422,2001,2877,3
1789466454.7726011,2247,2880,3
1789466454.775081,2172,2878,3
1789466454.776374,2199,2878,3
1789466454.778922,2088,2877,3
1789466454.780041,2223,2878,3
1789466454.78224,1981,2877,3
1789466454.784789,1728,2877,3
1789466454.786081,2020,2877,3
1789466454.788453,2237,2880,3
1789466454.790762,2165,2878,3
1789466454.792922,2162,2877,3
1789466454.794004,2140,2877,3
1789466454.7960708,2089,2878,3
1789466454.801143,1914,2877,3
1789466454.801644,1955,2877,3
1789466454.803999,2164,2877,3
1789466454.804213,2139,2877,3
1789466454.80703,2139,2879,3
1789466454.808872,2073,2877,3
1789466454.811109,1916,2877,3
1789466454.813073,1957,2877,3
1789466454.8141272,2098,2878,3
1789466454.816437,2152,2877,3
1789466454.8185852,2045,2877,3
1789466454.820891,2296,2880,3
1789466454.822183,2191,2879,3
1789466454.824251,2113,2878,3
1789466454.826566,2149,2877,3
1789466454.829055,2285,2878,3
1789466454.8301098,2124,2878,3
1789466454.832416,1939,2876,3
1789466454.834734,2123,2876,3
1789466454.836801,2156,2877,3
1789466454.838092,2089,2876,3
1789466454.840641,2034,2878,3
1789466454.845546,1927,2877,3
1789466454.845981,1993,2877,3
1789466454.848076,2076,2878,3
1789466454.8482418,2086,2879,3
1789466454.851131,2458,2879,3
1789466454.853044,2201,2881,3
1789466454.8553112,2350,2879,3
1789466454.857271,2189,2879,3
1789466454.858586,1488,2876,3
1789466454.86114,1676,2876,3
1789466454.862432,1910,2875,3
1789466454.8649511,2070,2878,3
1789466454.8660312,2339,2879,3
1789466454.868237,3094,2881,3
1789466454.870786,1745,2876,3
1789466454.872025,1277,2877,3
1789466454.874331,2022,2877,3
1789466454.876642,2237,2877,3
1789466454.8789482,2383,2880,3
1789466454.880239,2347,2879,3
1789466454.8827882,3122,2881,3
1789466454.884081,2883,2880,3
1789466454.886204,182,2875,3
1789466454.8908129,845,2877,3
1789466454.891945,2367,2878,3
1789466454.8931022,2421,2880,3
1789466454.8946261,2043,2878,3
1789466454.897847,1636,2877,3
1789466454.900213,1061,2873,3
1789466454.900342,1350,2876,3
1789466454.902326,2485,2879,3
1789466454.904882,3751,2882,3
1789466454.906176,2710,2880,3
1789466454.908731,3244,2881,3
1789466454.910987,3183,2881,3
1789466454.912278,2195,2878,3
1789466454.914591,520,2876,3
1789466454.916901,2065,2877,3
1789466454.918197,2934,2880,3
1789466454.9204538,2125,2878,3
1789466454.922584,699,2875,3
1789466454.924654,1148,2876,3
1789466454.926953,1921,2876,3
1789466454.928063,2023,2878,3
1789466454.930618,1676,2877,3
1789466454.935306,2041,2879,3
1789466454.935749,1792,2876,3
1789466454.937644,1755,2875,3
1789466454.9394891,2285,2879,3
1789466454.941108,2582,2879,3
1789466454.942979,3035,2880,3
1789466454.945385,3264,2881,3
1789466454.946999,3059,2880,3
1789466454.9482949,3518,2883,3
1789466454.9506052,1128,2877,3
1789466454.953134,1091,2877,3
1789466454.954185,2133,2878,3
1789466454.956491,1837,2877,3
1789466454.958861,1779,2875,3
1789466454.9601521,1942,2878,3
1789466454.962699,2412,2879,3
1789466454.9650612,2957,2881,3
1789466454.966353,2363,2878,3
1789466454.968904,2170,2878,3
1789466454.970069,2729,2878,3
1789466454.972128,2615,2880,3
1789466454.974439,2472,2880,3
1789466454.976626,2948,2881,3
1789466454.980319,1517,2876,3
1789466454.980716,846,2875,3
1789466454.9831228,1614,2875,3
1789466454.984719,2611,2880,3
1789466454.98659,2920,2881,3
1789466454.9883,2305,2879,3
1789466454.9908109,2627,2879,3
1789466454.9928808,3646,2883,3
1789466454.9940531,2382,2877,3
1789466454.996138,1086,2875,3
1789466454.998452,2144,2878,3
1789466455.0007622,1943,2877,3
1789466455.0021398,1753,2877,3
1789466455.0042229,2183,2877,3
1789466455.0063539,1991,2878,3
1789466455.0087638,1901,2877,3
1789466455.0109901,2742,2881,3
1789466455.012084,2137,2877,3
1789466455.014637,2163,2879,3
1789466455.016945,2486,2878,3
1789466455.0180569,2890,2880,3
1789466455.020291,2797,2880,3
1789466455.0264719,2197,2879,3
1789466455.0276349,2301,2877,3
1789466455.027773,2402,2879,3
1789466455.030732,2301,2878,3
1789466455.031168,2205,2878,3
1789466455.036919,3238,2881,3
1789466455.0370822,2815,2880,3
1789466455.037386,2167,2877,3
1789466455.03901,1949,2876,3
1789466455.040076,1970,2877,3
1789466455.042203,1619,2875,3
1789466455.047009,1691,2875,3
1789466455.0478148,2187,2878,3
1789466455.049361,2341,2878,3
1789466455.051276,2111,2877,3
1789466455.0527139,3084,2881,3
1789466455.0543659,3491,2883,3
1789466455.057216,1991,2876,3
1789466455.0591629,1743,2876,3
1789466455.060467,1952,2876,3
1789466455.063021,2301,2879,3
1789466455.064072,2411,2880,3
1789466455.0663779,2260,2878,3
1789466455.068686,2047,2878,3
1789466455.071157,1995,2876,3
1789466455.072224,2497,2880,3
1789466455.074778,3306,2883,3
1789466455.076839,2318,2879,3
1789466455.078132,3315,2881,3
1789466455.080693,3679,2883,3
1789466455.082059,547,2874,3
1789466455.084362,1462,2876,3
1789466455.0866802,2386,2878,3
1789466455.092948,2538,2880,3
1789466455.0933928,2567,2880,3
1789466455.093859,2496,2879,3
1789466455.0953898,2474,2878,3
1789466455.097017,2935,2880,3
1789466455.098539,3165,2881,3
1789466455.10036,2685,2879,3
1789466455.106849,2113,2877,3
1789466455.1068869,2147,2877,3
1789466455.1069188,2224,2877,3
1789466455.123494,2247,2878,3
1789466455.1238542,1977,2877,3
1789466455.124179,1981,2878,3
1789466455.124675,1963,2878,3
1789466455.126385,2218,2878,3
1789466455.1269639,2351,2877,3
1789466455.1270368,2757,2881,3
1789466455.127106,2388,2879,3
1789466455.127166,2358,2879,3
1789466455.1272252,2166,2879,3
1789466455.128735,1572,2875,3
1789466455.131318,850,2874,3
1789466455.1326778,1186,2877,3
1789466455.134036,1633,2877,3
1789466455.1366808,1943,2877,3
1789466455.138056,1892,2876,3
1789466455.140654,1782,2878,3
1789466455.142003,1797,2877,3
1789466455.1447198,2251,2878,3
1789466455.1460779,2696,2880,3
1789466455.148745,1686,2876,3
1789466455.150122,1955,2877,3
1789466455.1527622,2137,2878,3
1789466455.1541061,2360,2879,3
1789466455.15679,2048,2878,3
1789466455.165482,1436,2875,3
1789466455.167607,1696,2876,3
1789466455.169536,2883,2880,3
1789466455.171499,2876,2879,3
1789466455.1788878,762,2876,3
1789466455.178987,1208,2876,3
1789466455.179109,1861,2877,3
1789466455.179179,2014,2877,3
1789466455.1792488,1798,2878,3
1789466455.179317,1927,2877,3
1789466455.179381,2094,2879,3
1789466455.1808,2035,2878,3
1789466455.1822,2246,2878,3
1789466455.190542,2529,2879,3
1789466455.1908622,2456,2878,3
1789466455.191196,2301,2878,3
1789466455.19474,2556,2880,3
1789466455.197394,2390,2880,3
1789466455.200989,2042,2878,3
1789466455.2012858,1674,2875,3
1789466455.201697,1853,2876,3
1789466455.201937,2602,2879,3
1789466455.204179,2856,2879,3
1789466455.204304,2090,2877,3
1789466455.206997,2095,2878,3
1789466455.208361,1863,2875,3
1789466455.211613,2067,2878,3
1789466455.213047,1991,2878,3
1789466455.214518,2048,2878,3
1789466455.217173,2218,2879,3
1789466455.218575,2201,2877,3
1789466455.221282,2102,2875,3
1789466455.2225401,2038,2877,3
1789466455.225185,1961,2876,3
1789466455.227114,2304,2879,3
1789466455.2286599,1849,2874,3
1789466455.230346,2229,2878,3
1789466455.233058,1868,2876,3
1789466455.234429,1533,2876,3
1789466455.237348,1707,2877,3
1789466455.248291,1818,2876,3
1789466455.2490098,1982,2877,3
1789466455.251018,1979,2879,3
1789466455.2568,2259,2878,3
1789466455.25727,2160,2878,3
1789466455.2575412,1761,2876,3
1789466455.25776,2007,2877,3
1789466455.260087,1810,2878,3
1789466455.260973,1943,2877,3
1789466455.261065,1874,2877,3
1789466455.261142,1418,2875,3
1789466455.261206,1400,2876,3
1789466455.262549,1706,2875,3
1789466455.2640908,1897,2878,3
1789466455.27499,2339,2878,3
1789466455.279478,2364,2879,3
1789466455.2857978,2321,2880,3
1789466455.288357,2150,2877,3
1789466455.2891788,1778,2876,3
1789466455.28927,1438,2876,3
1789466455.28934,1844,2876,3
1789466455.289403,2037,2878,3
1789466455.2894652,1192,2875,3
1789466455.289527,1164,2875,3
1789466455.2895901,1318,2876,3
1789466455.289651,1645,2877,3
1789466455.290998,1860,2875,3
1789466455.292344,2462,2879,3
1789466455.2949839,2400,2880,3
1789466455.296484,884,2876,3
1789466455.299189,1015,2874,3
1789466455.300538,1578,2877,3
1789466455.302099,1775,2876,3
1789466455.304824,2252,2879,3
1789466455.306187,1684,2875,3
1789466455.309055,821,2876,3
1789466455.310587,1479,2876,3
1789466455.3142998,2002,2878,3
1789466455.314463,1527,2875,3
1789466455.316865,1597,2876,3
1789466455.318861,1753,2877,3
1789466455.320328,2257,2879,3
1789466455.3230212,2055,2878,3
1789466455.324374,1836,2875,3
1789466455.332461,1838,2876,3
1789466455.33379,1491,2876,3
1789466455.338698,1909,2877,3
1789466455.3407931,2094,2875,3
1789466455.341589,2033,2876,3
1789466455.3485708,1999,2876,3
1789466455.34905,1799,2875,3
1789466455.349408,1552,2876,3
1789466455.3498182,1957,2876,3
1789466455.350262,2245,2879,3
1789466455.350583,2460,2878,3
1789466455.353203,2771,2880,3
1789466455.353555,802,2876,3
1789466455.3536289,1129,2875,3
1789466455.3550038,1964,2875,3
1789466455.35628,1722,2875,3
1789466455.364023,1451,2877,3
1789466455.36587,1494,2876,3
1789466455.367751,1716,2875,3
1789466455.372386,2093,2878,3
1789466455.373588,1931,2875,3
1789466455.375642,1934,2877,3
1789466455.3804228,2195,2877,3
1789466455.381291,2104,2877,3
1789466455.3834171,1887,2877,3
1789466455.3843799,1760,2876,3
1789466455.3844569,1915,2878,3
1789466455.384541,1940,2878,3
1789466455.384604,2534,2878,3
1789466455.3846662,2543,2879,3
1789466455.386027,2630,2879,3
1789466455.3888052,1725,2876,3
1789466455.390147,864,2877,3
1789466455.392873,2003,2876,3
1789466455.394254,2578,2879,3
1789466455.396766,1817,2877,3
1789466455.3982038,1353,2875,3
1789466455.400825,1858,2878,3
1789466455.4021661,2015,2878,3
1789466455.404902,1892,2877,3
1789466455.406262,1893,2878,3
1789466455.408881,2024,2877,3
1789466455.410246,2170,2879,3
1789466455.4130619,1935,2879,3
1789466455.414712,1836,2877,3
1789466455.416068,1848,2877,3
1789466455.4187741,2249,2878,3
1789466455.4201741,1852,2877,3
1789466455.422791,2007,2877,3
1789466455.431039,2119,2877,3
1789466455.4336839,2127,2876,3
1789466455.434019,2062,2878,3
1789466455.437114,2332,2878,3
1789466455.438499,2234,2878,3
1789466455.440195,1474,2874,3
1789466455.4475,1778,2877,3
1789466455.44818,2473,2880,3
1789466455.451186,2013,2877,3
1789466455.451312,2250,2879,3
1789466455.4513862,2199,2878,3
1789466455.451452,1748,2875,3
1789466455.451514,1716,2876,3
1789466455.451591,1728,2876,3
1789466455.4529421,1941,2876,3
1789466455.454338,1971,2877,3
1789466455.462894,2190,2879,3
1789466455.463587,2252,2878,3
1789466455.4642801,2374,2879,3
1789466455.46616,2018,2878,3
1789466455.4664278,1789,2875,3
1789466455.468653,1826,2877,3
1789466455.4692302,2094,2877,3
1789466455.4708748,2116,2876,3
1789466455.4734972,2031,2876,3
1789466455.478088,1933,2875,3
1789466455.478221,2109,2878,3
1789466455.478443,1882,2875,3
1789466455.502517,1642,2876,3
1789466455.502605,1936,2877,3
1789466455.502653,2226,2879,3
1789466455.502698,2020,2876,3
1789466455.507818,1726,2877,3
1789466455.5158029,1718,2877,3
1789466455.5200472,2499,2879,3
1789466455.5201,2456,2879,3
1789466455.520143,1285,2875,3
1789466455.520185,1633,2876,3
1789466455.520227,1855,2876,3
1789466455.520268,1835,2877,3
1789466455.52031,1854,2877,3
1789466455.520352,1704,2876,3
1789466455.520393,2207,2878,3
1789466455.5204349,2362,2879,3
1789466455.5205162,1947,2878,3
1789466455.520559,1683,2876,3
1789466455.520635,1736,2877,3
1789466455.520679,1949,2877,3
1789466455.521246,1955,2877,3
1789466455.529761,1800,2877,3
1789466455.5456798,1755,2877,3
1789466455.545876,1732,2877,3
1789466455.546823,1847,2877,3
1789466455.546897,2405,2878,3
1789466455.546962,2262,2879,3
1789466455.547019,2121,2878,3
1789466455.547067,2224,2878,3
1789466455.547116,2088,2877,3
1789466455.5471659,1988,2877,3
1789466455.547216,1879,2876,3
1789466455.5472598,1851,2877,3
1789466455.547304,2053,2878,3
1789466455.548566,2229,2879,3
1789466455.551349,2437,2879,3
1789466455.557157,2478,2879,3
1789466455.5577788,2236,2879,3
1789466455.5584571,1943,2877,3
1789466455.559103,1905,2876,3
1789466455.5607529,1661,2876,3
1789466455.562939,1744,2876,3
1789466455.564918,1883,2876,3
1789466455.568037,1827,2874,3
1789466455.572614,1834,2875,3
1789466455.572886,2045,2875,3
1789466455.573108,2089,2877,3
1789466455.575295,2191,2879,3
1789466455.576621,2189,2879,3
1789466455.577952,2043,2878,3
1789466455.580105,2151,2879,3
1789466455.582685,2222,2878,3
1789466455.584778,2050,2879,3
1789466455.58609,2052,2876,3
1789466455.588421,1736,2878,3
1789466455.590971,1851,2876,3
1789466455.592282,2006,2877,3
1789466455.594605,2076,2879,3
1789466455.596766,2094,2878,3
1789466455.598073,2039,2878,3
1789466455.600637,1977,2878,3
1789466455.6019468,2025,2877,3
1789466455.604362,2194,2880,3
1789466455.606692,2075,2877,3
1789466455.608777,2094,2877,3
1789466455.610084,2166,2877,3
1789466455.612415,2143,2876,3
1789466455.6148229,1999,2877,3
1789466455.621021,1881,2875,3
1789466455.6212091,1984,2877,3
1789466455.622357,2145,2880,3
1789466455.6233659,2174,2879,3
1789466455.6252642,2098,2877,3
1789466455.627882,2149,2879,3
1789466455.628843,1884,2876,3
1789466455.6302762,2178,2878,3
1789466455.632451,2016,2878,3
1789466455.637027,2026,2876,3
1789466455.6372328,1936,2876,3
1789466455.639642,1813,2876,3
1789466455.640948,2263,2878,3
1789466455.642088,2355,2878,3
1789466455.648167,1799,2876,3
1789466455.649153,2058,2878,3
1789466455.650038,2244,2878,3
1789466455.650198,1963,2876,3
1789466455.653755,1831,2876,3
1789466455.654303,2059,2877,3
1789466455.6577349,2170,2879,3
1789466455.661728,2164,2878,3
1789466455.662085,1974,2878,3
1789466455.6623008,2308,2879,3
1789466455.664799,2043,2878,3
1789466455.666105,1844,2877,3
1789466455.6685069,1941,2876,3
1789466455.670843,1805,2878,3
1789466455.672147,1952,2877,3
1789466455.6742861,2028,2876,3
1789466455.6766772,1931,2878,3
1789466455.6787488,1941,2877,3
1789466455.6800141,2051,2878,3
1789466455.682584,2000,2875,3
1789466455.683994,2058,2877,3
1789466455.6866171,2090,2878,3
1789466455.688948,2281,2879,3
1789466455.690295,2092,2878,3
1789466455.692669,2048,2879,3
1789466455.693982,1971,2878,3
1789466455.696078,1928,2875,3
1789466455.698407,1916,2876,3
1789466455.70495,2042,2877,3
1789466455.7055092,2209,2879,3
1789466455.706182,2062,2877,3
1789466455.706756,2183,2878,3
1789466455.708632,2194,2877,3
1789466455.710979,2045,2877,3
1789466455.712472,1963,2875,3
1789466455.71908,2329,2880,3
1789466455.719288,2216,2880,3
1789466455.719445,1790,2877,3
1789466455.722006,1754,2876,3
1789466455.7220511,1979,2876,3
1789466455.7247202,1941,2876,3
1789466455.72626,1958,2877,3
1789466455.7314591,2004,2878,3
1789466455.732625,2096,2879,3
1789466455.734693,2028,2878,3
1789466455.7348359,1807,2877,3
1789466455.738391,2355,2879,3
1789466455.7399511,2271,2879,3
1789466455.740591,2142,2879,3
1789466455.7426271,1955,2876,3
1789466455.7498062,2005,2878,3
1789466455.7498538,2099,2878,3
1789466455.7498949,2072,2878,3
1789466455.7499368,2060,2876,3
1789466455.752036,1939,2877,3
1789466455.754111,2006,2876,3
1789466455.756917,2117,2879,3
1789466455.7579882,2034,2878,3
1789466455.760336,2033,2878,3
1789466455.762974,2152,2878,3
1789466455.764292,1986,2879,3
1789466455.76638,2017,2877,3
1789466455.768553,1978,2877,3
1789466455.770698,1919,2877,3
1789466455.772801,1986,2877,3
1789466455.7741098,2089,2879,3
1789466455.776682,1947,2876,3
1789466455.7779992,2149,2877,3
1789466455.780322,2137,2878,3
1789466455.7824142,2018,2879,3
1789466455.784749,2056,2876,3
1789466455.785938,2107,2878,3
1789466455.793688,2147,2878,3
1789466455.794345,2055,2876,3
1789466455.79498,1888,2877,3
1789466455.7957308,1991,2877,3
1789466455.797908,2082,2877,3
1789466455.800163,2054,2879,3
1789466455.8002748,1981,2876,3
1789466455.802492,2031,2878,3
1789466455.80972,2128,2877,3
1789466455.810098,2164,2879,3
1789466455.810355,2129,2878,3
1789466455.810553,2030,2877,3
1789466455.813162,2048,2878,3
1789466455.8144891,2124,2878,3
1789466455.816845,2086,2878,3
1789466455.823283,2044,2877,3
1789466455.82401,2109,2877,3
1789466455.825016,2158,2880,3
1789466455.82669,2140,2878,3
1789466455.826916,2070,2878,3
1789466455.829802,2068,2877,3
1789466455.8303769,2136,2877,3
1789466455.8382661,2110,2878,3
1789466455.83856,2001,2875,3
1789466455.839061,2064,2878,3
1789466455.839419,2089,2877,3
1789466455.841913,2116,2879,3
1789466455.842151,2075,2878,3
1789466455.844248,2102,2877,3
1789466455.846581,2076,2878,3
1789466455.848692,2055,2878,3
1789466455.850008,1974,2876,3
1789466455.852496,2011,2877,3
1789466455.8548899,2137,2878,3
1789466455.855964,2167,2879,3
1789466455.85834,2121,2878,3
1789466455.860428,2066,2877,3
1789466455.8627589,2048,2877,3
1789466455.864073,2118,2878,3
1789466455.866411,2070,2879,3
1789466455.868505,1971,2877,3
1789466455.8700001,2025,2878,3
1789466455.87259,2125,2877,3
1789466455.87494,2084,2878,3
1789466455.876252,2098,2877,3
1789466455.87835,2099,2878,3
1789466455.881218,2194,2877,3
1789466455.8865259,2115,2878,3
1789466455.887742,2005,2877,3
1789466455.88899,2068,2878,3
1789466455.8906739,2115,2877,3
1789466455.891026,2111,2879,3
1789466455.894701,2066,2878,3
1789466455.895571,1982,2877,3
1789466455.899402,2070,2877,3
1789466455.904012,2094,2878,3
1789466455.9044428,2055,2877,3
1789466455.904669,2074,2877,3
1789466455.904869,2230,2880,3
1789466455.907614,2215,2879,3
1789466455.909066,2137,2878,3
1789466455.9104059,2030,2876,3
1789466455.91739,2063,2878,3
1789466455.918449,2143,2878,3
1789466455.920991,2040,2875,3
1789466455.921296,2030,2878,3
1789466455.921524,2052,2878,3
1789466455.924382,2067,2876,3
1789466455.925877,2097,2878,3
1789466455.926058,2002,2877,3
1789466455.928823,1964,2875,3
1789466455.933017,2103,2879,3
1789466455.9333508,2117,2878,3
1789466455.936806,2137,2879,3
1789466455.936953,2034,2876,3
1789466455.9382882,2015,2878,3
1789466455.940715,2098,2876,3
1789466455.942813,2133,2878,3
1789466455.9439292,2045,2877,3
1789466455.946029,2036,2877,3
1789466455.948124,2023,2879,3
1789466455.950463,2005,2876,3
1789466455.952839,1976,2877,3
1789466455.9539819,2041,2878,3
1789466455.956317,2161,2879,3
1789466455.958745,2082,2878,3
1789466455.9600818,2088,2878,3
1789466455.9621649,2070,2877,3
1789466455.964514,2106,2878,3
1789466455.96709,2100,2880,3
1789466455.9683998,1984,2877,3
1789466455.970979,2094,2878,3
1789466455.972288,2136,2879,3
1789466455.9748611,2068,2879,3
1789466455.980819,2029,2878,3
1789466455.982048,2002,2877,3
1789466455.983205,2083,2878,3
1789466455.983904,2090,2878,3
1789466455.987764,2095,2880,3
1789466455.9891121,2017,2876,3
1789466455.9896169,2100,2877,3
1789466455.996511,2104,2879,3
1789466455.9966578,2109,2878,3
1789466455.996881,2059,2877,3
1789466455.997109,2115,2877,3
1789466455.9998589,2061,2878,3
1789466456.000084,2059,2877,3
1789466456.002173,2044,2877,3
1789466456.010869,2026,2878,3
1789466456.0130932,2134,2879,3
1789466456.013359,2105,2878,3
1789466456.015869,2082,2878,3
1789466456.016062,1949,2874,3
1789466456.017588,2081,2878,3
1789466456.01817,2080,2879,3
1789466456.01877,2007,2877,3
1789466456.024658,2089,2876,3
1789466456.024897,2153,2879,3
1789466456.025264,2090,2878,3
1789466456.027324,2083,2878,3
1789466456.028411,2046,2877,3
1789466456.031095,2138,2878,3
1789466456.032344,2081,2879,3
1789466456.034636,2033,2876,3
1789466456.038322,2076,2877,3
1789466456.03841,2057,2875,3
1789466456.040761,2021,2876,3
1789466456.042079,2032,2878,3
1789466456.044412,2028,2877,3
1789466456.046504,2102,2877,3
1789466456.0485902,2104,2877,3
1789466456.051017,2023,2877,3
1789466456.052455,2026,2878,3
1789466456.055083,2109,2877,3
1789466456.056612,2151,2879,3
1789466456.058795,2078,2878,3
1789466456.060471,2051,2878,3
1789466456.0626938,2071,2877,3
1789466456.064055,2122,2879,3
1789466456.066741,2073,2880,3
1789466456.067936,2094,2876,3
1789466456.079285,2070,2878,3
1789466456.082585,2141,2879,3
1789466456.084395,2214,2878,3
1789466456.0853062,2255,2879,3
1789466456.0865622,2169,2877,3
1789466456.0923688,2097,2878,3
1789466456.092981,1856,2877,3
1789466456.093411,2086,2877,3
1789466456.096529,2150,2877,3
1789466456.0969238,1976,2878,3
1789466456.097047,1731,2877,3
1789466456.0971022,1856,2875,3
1789466456.0971498,2055,2877,3
1789466456.097195,2095,2877,3
1789466456.098551,2045,2878,3
1789466456.101249,2007,2876,3
1789466456.1073458,2107,2877,3
1789466456.108709,2200,2880,3
1789466456.111508,2186,2879,3
1789466456.113985,2545,2879,3
1789466456.1142342,2943,2880,3
1789466456.115925,2311,2877,3
1789466456.117166,1590,2875,3
1789466456.1182451,1543,2877,3
1789466456.123761,2126,2878,3
1789466456.124209,2228,2878,3
1789466456.1246028,2152,2879,3
1789466456.128265,2417,2879,3
1789466456.128371,1262,2875,3
1789466456.128441,1540,2876,3
1789466456.13065,2202,2879,3
1789466456.1319811,2267,2880,3
1789466456.134706,2218,2879,3
1789466456.136878,2381,2879,3
1789466456.1384819,1573,2875,3
1789466456.139949,1394,2876,3
1789466456.142842,1947,2876,3
1789466456.144177,2343,2879,3
1789466456.146752,2599,2878,3
1789466456.149612,2779,2879,3
1789466456.1510432,2516,2879,3
1789466456.152374,1540,2877,3
1789466456.155104,1927,2878,3
1789466456.156522,1465,2878,3
1789466456.158865,1640,2875,3
1789466456.1604009,2116,2878,3
1789466456.163019,1669,2874,3
1789466456.1644008,1567,2875,3
1789466456.172759,2032,2879,3
1789466456.1743722,2667,2879,3
1789466456.175626,2112,2876,3
1789466456.1811059,2047,2877,3
1789466456.1829278,2478,2879,3
1789466456.1892009,2544,2879,3
1789466456.1896122,2164,2878,3
1789466456.1927302,2197,2879,3
1789466456.192839,1543,2876,3
1789466456.192949,1569,2875,3
1789466456.193665,1896,2876,3
1789466456.193722,2352,2879,3
1789466456.194177,2767,2879,3
1789466456.1942809,2379,2878,3
1789466456.194804,1957,2878,3
1789466456.1961322,1655,2875,3
1789466456.2061288,1852,2876,3
1789466456.208294,1904,2876,3
1789466456.2161841,2038,2877,3
1789466456.220431,2093,2876,3
1789466456.2236621,2116,2878,3
1789466456.223983,2034,2878,3
1789466456.2241762,2040,2878,3
1789466456.224253,2066,2878,3
1789466456.224311,2247,2879,3
1789466456.224425,2189,2880,3
1789466456.224502,2265,2879,3
1789466456.224569,2417,2879,3
1789466456.224633,2291,2880,3
1789466456.224697,1703,2876,3
1789466456.2261,1647,2876,3
1789466456.228794,1994,2877,3
1789466456.23022,2238,2878,3
1789466456.232683,2435,2877,3
1789466456.23394,2197,2879,3
1789466456.236259,1563,2875,3
1789466456.238674,1797,2877,3
1789466456.2400708,2028,2877,3
1789466456.242881,2083,2877,3
1789466456.2441611,2030,2878,3
1789466456.246756,2108,2878,3
1789466456.247979,2029,2878,3
1789466456.2505972,1953,2875,3
1789466456.253091,1991,2876,3
1789466456.254475,2172,2879,3
1789466456.256025,2280,2879,3
1789466456.258263,2142,2878,3
1789466456.2608662,2135,2878,3
1789466456.262177,2047,2878,3
1789466456.273706,2029,2878,3
1789466456.278108,2123,2879,3
1789466456.28163,2356,2880,3
1789466456.285121,2059,2876,3
1789466456.285575,1707,2877,3
1789466456.285763,1957,2877,3
1789466456.286101,1982,2877,3
1789466456.286248,1859,2875,3
1789466456.286486,1992,2878,3
1789466456.289203,2006,2878,3
1789466456.2894561,2044,2878,3
1789466456.289599,2042,2879,3
1789466456.289726,2077,2876,3
1789466456.290897,2167,2877,3
1789466456.292257,2216,2879,3
1789466456.299907,2117,2879,3
1789466456.300537,2072,2878,3
1789466456.3031821,2027,2878,3
1789466456.30336,1979,2879,3
1789466456.3035269,1949,2876,3
1789466456.306596,2083,2876,3
1789466456.3078048,2417,2880,3
1789466456.308488,2249,2879,3
1789466456.311542,2013,2876,3
1789466456.315208,2067,2879,3
1789466456.315604,2157,2878,3
1789466456.318635,2168,2878,3
1789466456.318768,2366,2878,3
1789466456.3201458,1976,2876,3
1789466456.322338,1854,2878,3
1789466456.3247511,1853,2876,3
1789466456.326091,2029,2875,3
1789466456.3281941,1930,2875,3
1789466456.330534,2060,2878,3
1789466456.3319528,2040,2876,3
1789466456.334042,2103,2878,3
1789466456.336145,1931,2876,3
1789466456.3384829,2095,2879,3
1789466456.341123,2160,2877,3
1789466456.342508,1890,2877,3
1789466456.345121,2251,2879,3
1789466456.346435,2569,2879,3
1789466456.348534,2409,2878,3
1789466456.349947,1684,2876,3
1789466456.3525472,1589,2877,3
1789466456.354932,1964,2876,3
1789466456.3560069,2196,2877,3
1789466456.364241,2134,2879,3
1789466456.3655648,2000,2878,3
1789466456.3678489,2108,2878,3
1789466456.3680608,2138,2878,3
1789466456.3703911,1838,2876,3
1789466456.371698,1892,2876,3
1789466456.372503,2170,2878,3
1789466456.3731148,2166,2877,3
1789466456.376544,2323,2879,3
1789466456.3799958,2203,2878,3
1789466456.382445,1947,2877,3
1789466456.383255,2039,2877,3
1789466456.383311,1930,2876,3
1789466456.384434,1881,2876,3
1789466456.3870158,2021,2878,3
1789466456.392211,1937,2876,3
1789466456.392877,2152,2879,3
1789466456.393568,2085,2879,3
1789466456.39502,2027,2877,3
1789466456.399529,2194,2878,3
1789466456.400121,2227,2879,3
1789466456.401258,2075,2877,3
1789466456.4043741,1971,2878,3
1789466456.407597,1973,2877,3
1789466456.407965,1974,2877,3
1789466456.408229,1860,2877,3
1789466456.41092,1786,2875,3
1789466456.4122481,1869,2877,3
1789466456.414891,1987,2877,3
1789466456.416209,1920,2876,3
1789466456.418559,1915,2877,3
1789466456.4200451,2200,2880,3
1789466456.422219,2466,2880,3
1789466456.4248052,2038,2877,3
1789466456.425924,2055,2878,3
1789466456.428496,2063,2878,3
1789466456.430045,2125,2879,3
1789466456.4323761,1935,2875,3
1789466456.434989,1858,2876,3
1789466456.4363039,1958,2877,3
1789466456.43848,2292,2879,3
1789466456.441108,2108,2878,3
1789466456.4424179,2250,2878,3
1789466456.44514,2125,2878,3
1789466456.4462981,2073,2878,3
1789466456.4487941,2131,2878,3
1789466456.450115,2135,2879,3
1789466456.456734,2150,2875,3
1789466456.457336,2241,2879,3
1789466456.45857,2301,2879,3
1789466456.460911,2215,2878,3
1789466456.461168,2136,2877,3
1789466456.463551,2497,2878,3
1789466456.465238,2161,2878,3
1789466456.4722261,1887,2876,3
1789466456.472492,1809,2877,3
1789466456.472681,2163,2877,3
1789466456.472825,2158,2878,3
1789466456.475923,2271,2878,3
1789466456.47599,2259,2878,3
1789466456.478164,2100,2878,3
1789466456.4804978,2099,2878,3
1789466456.4878159,2139,2876,3
1789466456.488949,2043,2878,3
1789466456.489571,2290,2880,3
1789466456.489735,2280,2879,3
1789466456.491683,2212,2878,3
1789466456.4952981,2064,2877,3
1789466456.495937,1833,2874,3
1789466456.496556,1885,2877,3
1789466456.499499,2128,2875,3
1789466456.5027819,2168,2877,3
1789466456.503295,2064,2877,3
1789466456.506266,2142,2878,3
1789466456.506349,1907,2874,3
1789466456.508937,1937,2879,3
1789466456.510516,2077,2878,3
1789466456.51204,2237,2878,3
1789466456.514383,2655,2881,3
1789466456.516726,2416,2879,3
1789466456.5181801,1976,2876,3
1789466456.520759,2391,2879,3
1789466456.521937,2157,2876,3
1789466456.5245152,2278,2878,3
1789466456.52685,2078,2878,3
1789466456.528161,2197,2878,3
1789466456.5305018,2333,2878,3
1789466456.5319371,2316,2878,3
1789466456.534036,2350,2879,3
1789466456.5365272,2685,2879,3
1789466456.537927,2115,2876,3
1789466456.540514,2132,2876,3
1789466456.5430841,1986,2876,3
1789466456.544213,2189,2878,3
1789466456.546313,2333,2877,3
1789466456.552896,2024,2877,3
1789466456.553666,1925,2876,3
1789466456.554833,2265,2879,3
1789466456.557157,2296,2879,3
1789466456.557388,2263,2879,3
1789466456.559341,2374,2879,3
1789466456.5611122,2411,2879,3
1789466456.564071,2354,2878,3
1789466456.564236,2479,2879,3
1789466456.567159,2203,2877,3
1789466456.569876,2022,2877,3
1789466456.569973,2349,2877,3
1789466456.5724192,2900,2879,3
1789466456.575177,3009,2882,3
1789466456.579849,2142,2878,3
1789466456.580537,1698,2875,3
1789466456.5816178,2370,2879,3
1789466456.583856,3707,2882,3
1789466456.584055,2378,2879,3
1789466456.586806,249,2875,3
1789466456.588405,494,2875,3
1789466456.59024,1636,2875,3
1789466456.593175,2038,2877,3
1789466456.595724,1729,2878,3
1789466456.597051,1604,2876,3
1789466456.598148,2582,2880,3
1789466456.6004841,2746,2878,3
1789466456.6029189,2721,2880,3
1789466456.6039958,2061,2878,3
1789466456.606087,2825,2880,3
1789466456.608493,3347,2880,3
1789466456.610852,2137,2878,3
1789466456.6119199,1197,2876,3
1789466456.6141398,1243,2875,3
1789466456.616478,1467,2876,3
1789466456.618559,1962,2877,3
1789466456.620893,1411,2877,3
1789466456.621954,1777,2877,3
1789466456.624037,1920,2877,3
1789466456.626129,3131,2882,3
1789466456.628268,2705,2879,3
1789466456.6306078,1653,2876,3
1789466456.636228,1870,2878,3
1789466456.637889,1626,2877,3
1789466456.6399438,1812,2877,3
1789466456.6403682,2121,2876,3
1789466456.6422882,2033,2876,3
1789466456.643735,2279,2879,3
1789466456.650048,2384,2880,3
1789466456.6503522,1421,2874,3
1789466456.6506848,927,2875,3
1789466456.6525812,1808,2878,3
1789466456.653085,2205,2877,3
1789466456.654401,2696,2880,3
1789466456.656734,2589,2880,3
1789466456.658047,2620,2880,3
1789466456.6625578,1995,2878,3
1789466456.6631942,2275,2879,3
1789466456.664483,1999,2877,3
1789466456.667845,2755,2880,3
1789466456.668448,1843,2878,3
1789466456.67199,1427,2878,3
1789466456.675103,2193,2878,3
1789466456.6753159,2303,2879,3
1789466456.677753,1723,2878,3
1789466456.679185,1620,2875,3
1789466456.680493,1861,2877,3
1789466456.6830819,2135,2877,3
1789466456.6842508,2220,2877,3
1789466456.6865761,2329,2878,3
1789466456.688649,2200,2878,3
1789466456.690974,2222,2877,3
1789466456.692093,1682,2877,3
1789466456.694604,1563,2876,3
1789466456.6959202,1927,2877,3
1789466456.698263,2353,2880,3
1789466456.700594,2415,2880,3
1789466456.70193,2307,2880,3
1789466456.704513,2515,2879,3
1789466456.706922,1767,2876,3
1789466456.7082398,2619,2880,3
1789466456.710541,2270,2878,3
1789466456.712928,1641,2877,3
1789466456.714217,2120,2877,3
1789466456.720601,1586,2877,3
1789466456.7222242,2475,2880,3
1789466456.722563,2633,2879,3
1789466456.724989,1151,2875,3
1789466456.725693,1123,2876,3
1789466456.7275462,1491,2876,3
1789466456.7336378,1984,2877,3
1789466456.7377532,2014,2877,3
1789466456.737833,1922,2877,3
1789466456.737879,1955,2876,3
1789466456.737959,2697,2879,3
1789466456.7380009,3326,2881,3
1789466456.740327,2289,2878,3
1789466456.742241,1510,2875,3
1789466456.748526,1673,2877,3
1789466456.749026,2079,2878,3
1789466456.749938,2006,2879,3
1789466456.7517061,2466,2879,3
1789466456.753633,1909,2878,3
1789466456.75546,1667,2875,3
1789466456.758123,2141,2878,3
1789466456.761392,2235,2879,3
1789466456.761936,2256,2879,3
1789466456.7622242,2724,2880,3
1789466456.7645252,3368,2883,3
1789466456.76598,3229,2881,3
1789466456.7688162,1883,2878,3
1789466456.770144,852,2877,3
1789466456.772714,1820,2877,3
1789466456.774029,2359,2880,3
1789466456.776365,2233,2880,3
1789466456.77895,2157,2879,3
1789466456.7801769,2393,2879,3
1789466456.7827551,2313,2879,3
1789466456.783967,2061,2878,3
1789466456.78606,2271,2879,3
1789466456.788621,2269,2877,3
1789466456.790842,1996,2876,3
1789466456.792145,2443,2879,3
1789466456.794713,2340,2879,3
1789466456.796017,1939,2878,3
1789466456.798351,1701,2877,3
1789466456.800986,2437,2880,3
1789466456.8073971,2970,2881,3
1789466456.8075159,2327,2879,3
1789466456.808557,1898,2877,3
1789466456.810668,2023,2878,3
1789466456.81088,1991,2877,3
1789466456.813331,2102,2878,3
1789466456.8145862,2014,2878,3
1789466456.8175979,2147,2878,3
1789466456.821111,2205,2878,3
1789466456.821318,2069,2879,3
1789466456.823327,2251,2879,3
1789466456.824394,2706,2880,3
1789466456.826967,2645,2880,3
1789466456.828623,2880,2880,3
1789466456.8335218,2541,2878,3
1789466456.834164,2026,2878,3
1789466456.834729,2424,2878,3
1789466456.8369422,2294,2878,3
1789466456.839367,1995,2876,3
1789466456.8415282,2230,2877,3
1789466456.8471859,2741,2879,3
1789466456.847405,2752,2878,3
1789466456.847677,2575,2879,3
1789466456.850007,2247,2878,3
1789466456.8502688,2872,2879,3
1789466456.852604,2409,2878,3
1789466456.854699,1503,2875,3
1789466456.8560069,1783,2877,3
1789466456.858329,2138,2877,3
1789466456.860644,2270,2879,3
1789466456.862714,1261,2876,3
1789466456.8640199,1583,2875,3
1789466456.8665779,1613,2876,3
1789466456.8679428,1683,2875,3
1789466456.8705,2077,2876,3
1789466456.873034,2592,2879,3
1789466456.8740962,2521,2879,3
1789466456.876412,2475,2879,3
1789466456.87873,2154,2878,3
1789466456.88082,2010,2878,3
1789466456.881956,1814,2876,3
1789466456.884272,1738,2876,3
1789466456.890259,1840,2877,3
1789466456.890383,2570,2879,3
1789466456.890497,2527,2879,3
1789466456.893134,1875,2877,3
1789466456.894845,2305,2878,3
1789466456.896916,1902,2875,3
1789466456.898877,1680,2877,3
1789466456.9020429,2273,2877,3
1789466456.902267,1866,2876,3
1789466456.904585,1735,2876,3
1789466456.906662,1582,2875,3
1789466456.9079628,1765,2875,3
1789466456.913023,2398,2878,3
1789466456.9134998,2931,2880,3
1789466456.9154508,2815,2880,3
1789466456.917535,1909,2877,3
1789466456.919722,1678,2877,3
1789466456.92134,1650,2877,3
1789466456.9246159,2152,2877,3
1789466456.9247308,2134,2878,3
1789466456.926943,1770,2877,3
1789466456.928001,1543,2877,3
1789466456.9305558,1640,2875,3
1789466456.933045,1921,2877,3
1789466456.934109,2345,2879,3
1789466456.936415,1964,2877,3
1789466456.938972,2586,2879,3
1789466456.940201,2137,2878,3
1789466456.942514,1518,2875,3
1789466456.945089,1795,2878,3
1789466456.9461498,2099,2878,3
1789466456.948708,2678,2880,3
1789466456.9510112,2567,2879,3
1789466456.9523158,2574,2879,3
1789466456.954637,1415,2877,3
1789466456.956904,1476,2878,3
1789466456.957954,2330,2879,3
1789466456.963464,2022,2878,3
1789466456.963978,1545,2876,3
1789466456.9644952,1577,2876,3
1789466456.966801,1968,2878,3
1789466456.969067,2978,2880,3
1789466456.970838,3782,2883,3
1789466456.9727201,2038,2876,3
1789466456.9762108,703,2876,3
1789466456.97649,1577,2876,3
1789466456.9786198,1933,2876,3
1789466456.979925,1903,2876,3
1789466456.982246,1691,2877,3
1789466456.9874518,1727,2878,3
1789466456.987983,1758,2877,3
1789466456.988508,2079,2878,3
1789466456.990838,2443,2879,3
1789466456.993275,2511,2878,3
1789466456.994782,2785,2881,3
1789466456.9967308,2727,2880,3
1789466457.000323,2352,2879,3
1789466457.0005782,1966,2877,3
1789466457.002795,1403,2875,3
1789466457.004173,1747,2877,3
1789466457.007195,2244,2876,3
1789466457.008496,2544,2879,3
1789466457.010601,2233,2879,3
1789466457.0129972,1553,2875,3
1789466457.014295,1779,2876,3
1789466457.016622,1793,2875,3
1789466457.0190191,1947,2876,3
1789466457.020315,2198,2878,3
1789466457.0223832,2003,2875,3
1789466457.024704,2201,2879,3
1789466457.0259671,2597,2878,3
1789466457.028527,3503,2882,3
1789466457.0308611,1901,2877,3
1789466457.032157,1879,2876,3
1789466457.034715,2598,2879,3
1789466457.037081,2468,2880,3
1789466457.041534,2269,2879,3
1789466457.0421429,2197,2878,3
1789466457.042688,1396,2876,3
1789466457.044841,1743,2876,3
1789466457.046954,1885,2877,3
1789466457.0487108,2023,2879,3
1789466457.0506399,2056,2878,3
1789466457.054467,2072,2879,3
1789466457.054601,2034,2875,3
1789466457.056888,2108,2876,3
1789466457.0583198,2344,2879,3
1789466457.060935,2330,2879,3
1789466457.0658402,2259,2878,3
1789466457.065971,2092,2878,3
1789466457.066431,2275,2878,3
1789466457.06899,1875,2875,3
1789466457.071094,1480,2877,3
1789466457.0728488,1621,2875,3
1789466457.07476,1780,2876,3
1789466457.078469,2340,2878,3
1789466457.0786939,1947,2878,3
1789466457.0809689,1750,2875,3
1789466457.08203,2238,2879,3
1789466457.085054,1556,2876,3
1789466457.0861921,1342,2877,3
1789466457.088629,2367,2879,3
1789466457.091014,2282,2879,3
1789466457.092066,1523,2875,3
1789466457.094621,1188,2876,3
1789466457.096944,1729,2875,3
1789466457.098238,1992,2878,3
1789466457.1005518,1859,2876,3
1789466457.10288,1906,2877,3
1789466457.1041842,1881,2876,3
1789466457.1062531,2190,2879,3
1789466457.108588,1517,2877,3
1789466457.110668,1460,2876,3
1789466457.1119628,1797,2875,3
1789466457.1179829,1882,2877,3
1789466457.118438,1982,2878,3
1789466457.118996,1825,2874,3
1789466457.120828,1762,2876,3
1789466457.123017,1963,2877,3
1789466457.1247108,2326,2878,3
1789466457.126605,2207,2879,3
1789466457.1301498,2259,2879,3
1789466457.130408,2407,2878,3
1789466457.132141,2016,2878,3
1789466457.1347551,1511,2876,3
1789466457.137027,1754,2877,3
1789466457.14205,2118,2877,3
1789466457.1425788,1940,2876,3
1789466457.1433961,1752,2875,3
1789466457.144751,1689,2875,3
1789466457.1471329,2028,2879,3
1789466457.1487749,2088,2878,3
1789466457.150198,2100,2877,3
1789466457.153791,2271,2879,3
1789466457.154083,2126,2878,3
1789466457.156745,1736,2875,3
1789466457.158866,1742,2876,3
1789466457.159938,2028,2877,3
1789466457.1622741,2179,2878,3
1789466457.164397,2687,2879,3
1789466457.166702,2238,2879,3
1789466457.169044,946,2875,3
1789466457.1703439,1390,2875,3
1789466457.1728482,2071,2878,3
1789466457.174143,2140,2877,3
1789466457.176697,1736,2877,3
1789466457.1779468,1368,2874,3
1789466457.180018,1612,2876,3
1789466457.1825721,1806,2877,3
1789466457.184876,1773,2875,3
1789466457.1861172,1862,2877,3
1789466457.192262,2067,2878,3
1789466457.192673,2150,2877,3
1789466457.193226,2110,2877,3
1789466457.195284,1969,2877,3
1789466457.1971478,2017,2878,3
1789466457.198833,1969,2877,3
1789466457.200541,1813,2874,3
1789466457.204215,1712,2875,3
1789466457.204372,1733,2876,3
1789466457.20663,1808,2877,3
1789466457.207932,2001,2875,3
1789466457.2104461,2175,2879,3
1789466457.212783,2219,2878,3
1789466457.2167659,1662,2875,3
1789466457.217236,1319,2876,3
1789466457.219418,1474,2876,3
1789466457.22142,1654,2875,3
1789466457.222773,1822,2877,3
1789466457.224874,1833,2875,3
1789466457.228418,1708,2877,3
1789466457.22854,1803,2878,3
1789466457.230787,1792,2877,3
1789466457.232096,1987,2876,3
1789466457.234448,2159,2875,3
1789466457.2370172,2221,2877,3
1789466457.2383208,2031,2876,3
1789466457.240384,2180,2876,3
1789466457.242937,1925,2875,3
1789466457.2442398,1802,2875,3
1789466457.2465541,1816,2874,3
1789466457.248756,2054,2877,3
1789466457.250827,1992,2875,3
1789466457.252098,1960,2877,3
1789466457.254348,2043,2876,3
1789466457.2566621,2100,2878,3
1789466457.2579358,2073,2876,3
1789466457.2602508,1930,2877,3
1789466457.266709,1866,2875,3
1789466457.2672698,1990,2878,3
1789466457.269346,1980,2874,3
1789466457.269608,1935,2875,3
1789466457.271334,2009,2877,3
1789466457.2734962,2047,2875,3
1789466457.275261,2119,2878,3
1789466457.278817,2086,2878,3
1789466457.278998,2062,2878,3
1789466457.281141,2197,2878,3
1789466457.282443,1909,2875,3
1789466457.28495,1835,2875,3
1789466457.28953,1789,2877,3
1789466457.2899892,1847,2877,3
1789466457.290857,1932,2876,3
1789466457.2925131,2021,2878,3
1789466457.295213,2118,2877,3
1789466457.2976131,1748,2875,3
1789466457.3010938,1741,2875,3
1789466457.3011992,2077,2875,3
1789466457.3034759,2044,2877,3
1789466457.304791,2014,2877,3
1789466457.306093,2013,2876,3
1789466457.3081741,1948,2875,3
1789466457.3107,1884,2874,3
1789466457.311994,1750,2875,3
1789466457.314333,2155,2878,3
1789466457.316403,2101,2878,3
1789466457.318605,2003,2875,3
1789466457.319917,1973,2876,3
1789466457.322248,2042,2877,3
1789466457.3248,1987,2877,3
1789466457.32594,1905,2875,3
1789466457.328309,1930,2875,3
1789466457.3306198,2051,2878,3
1789466457.3319192,2065,2878,3
1789466457.334058,1864,2875,3
1789466457.339693,1980,2876,3
1789466457.34034,2067,2876,3
1789466457.340804,2137,2876,3
1789466457.3424902,2066,2879,3
1789466457.345224,2038,2878,3
1789466457.3475761,1979,2877,3
1789466457.351168,2156,2878,3
1789466457.3513951,2121,2878,3
1789466457.3534799,1887,2876,3
1789466457.354798,1888,2877,3
1789466457.356096,2059,2877,3
1789466457.3585548,2036,2876,3
1789466457.362726,2039,2878,3
1789466457.3635578,1972,2877,3
1789466457.365126,2062,2878,3
1789466457.366872,2089,2878,3
1789466457.36869,2012,2876,3
1789466457.3707619,2056,2876,3
1789466457.374225,2186,2878,3
1789466457.3744252,2141,2877,3
1789466457.376568,2078,2878,3
1789466457.377942,2024,2877,3
1789466457.3804102,2046,2878,3
1789466457.3827252,2008,2877,3
1789466457.384883,1954,2876,3
1789466457.3859499,1940,2876,3
1789466457.3882618,2069,2878,3
1789466457.3905768,2102,2877,3
1789466457.3927932,2061,2878,3
1789466457.394088,2039,2876,3
1789466457.3961658,1992,2877,3
1789466457.398485,2139,2877,3
1789466457.400993,2130,2877,3
1789466457.402257,2054,2877,3
1789466457.404854,2011,2876,3
1789466457.406036,2100,2877,3
1789466457.408282,2108,2877,3
1789466457.412388,2084,2877,3
1789466457.41296,1994,2877,3
1789466457.415319,2090,2877,3
1789466457.4175968,2151,2878,3
1789466457.418965,2031,2875,3
1789466457.4208598,1978,2876,3
1789466457.4244359,2125,2877,3
1789466457.424578,1918,2876,3
1789466457.426732,1949,2875,3
1789466457.429055,1991,2877,3
1789466457.4307299,2008,2876,3
1789466457.435186,2018,2876,3
1789466457.43598,1999,2878,3
1789466457.436905,1979,2877,3
1789466457.439795,2024,2877,3
1789466457.4415371,2255,2879,3
1789466457.443619,1914,2876,3
1789466457.4470751,2061,2878,3
1789466457.44719,2132,2877,3
1789466457.448958,2265,2878,3
1789466457.4500139,2080,2878,3
1789466457.452339,1771,2876,3
1789466457.454665,1937,2877,3
1789466457.456973,2042,2876,3
1789466457.458271,2068,2877,3
1789466457.460574,2020,2875,3
1789466457.4628868,1945,2877,3
1789466457.464182,2129,2877,3
1789466457.466484,1859,2874,3
1789466457.469038,1911,2876,3
1789466457.47033,2128,2876,3
1789466457.4726348,2068,2878,3
1789466457.4747121,2139,2877,3
1789466457.476002,2142,2878,3
1789466457.47855,1956,2877,3
1789466457.4834912,2211,2877,3
1789466457.483969,2122,2877,3
1789466457.48405,1975,2876,3
1789466457.486207,1906,2877,3
1789466457.489158,2082,2877,3
1789466457.491148,2077,2878,3
1789466457.4943302,2024,2877,3
1789466457.494495,2031,2878,3
1789466457.496402,1807,2875,3
1789466457.498484,2174,2877,3
1789466457.5009751,2096,2878,3
1789466457.502275,1986,2877,3
1789466457.504826,2112,2876,3
1789466457.5061162,2183,2876,3
1789466457.5086641,2086,2877,3
1789466457.5099561,2169,2878,3
1789466457.512255,2062,2876,3
1789466457.514804,2020,2877,3
1789466457.516099,1783,2876,3
1789466457.518659,1987,2876,3
1789466457.5207858,2050,2877,3
1789466457.5220768,1906,2878,3
1789466457.524385,2251,2879,3
1789466457.5288289,2110,2878,3
1789466457.52963,1844,2875,3
1789466457.5314372,2330,2878,3
1789466457.5329978,2203,2878,3
1789466457.534888,1806,2876,3
1789466457.536475,1899,2877,3
1789466457.539861,2146,2878,3
1789466457.540213,2072,2877,3
1789466457.54294,2086,2878,3
1789466457.543991,2071,2877,3
1789466457.54655,1933,2876,3
1789466457.5479171,2242,2879,3
1789466457.5504699,1958,2877,3
1789466457.5528681,2059,2877,3
1789466457.5541718,2080,2878,3
1789466457.556731,2115,2877,3
1789466457.558026,2044,2876,3
1789466457.560574,2043,2878,3
1789466457.5627441,1925,2878,3
1789466457.565055,2015,2877,3
1789466457.566112,2026,2878,3
1789466457.5685482,2029,2877,3
1789466457.570702,1991,2877,3
1789466457.5758662,2054,2877,3
1789466457.5766652,2044,2877,3
1789466457.576776,1934,2875,3
1789466457.578005,1991,2877,3
1789466457.580975,2083,2877,3
1789466457.582926,2123,2877,3
1789466457.586186,1956,2876,3
1789466457.586344,1839,2877,3
1789466457.588338,2093,2877,3
1789466457.5906749,2129,2877,3
1789466457.591915,2078,2879,3
1789466457.596509,2017,2877,3
1789466457.596991,1857,2875,3
1789466457.598835,1950,2875,3
1789466457.601001,2038,2878,3
1789466457.6025448,2010,2877,3
1789466457.606816,1951,2877,3
1789466457.6069472,2084,2877,3
1789466457.6090932,2147,2880,3
1789466457.610394,2115,2878,3
1789466457.6128,2013,2877,3
1789466457.615245,2102,2879,3
1789466457.6162932,2076,2878,3
1789466457.618657,2027,2876,3
1789466457.6208289,2011,2877,3
1789466457.62194,2011,2878,3
1789466457.624256,2040,2877,3
1789466457.6265721,1987,2875,3
1789466457.6279209,1955,2878,3
1789466457.6302478,2106,2877,3
1789466457.632552,2155,2879,3
1789466457.6339169,2048,2878,3
1789466457.636234,1961,2877,3
1789466457.638369,2104,2877,3
1789466457.640665,2166,2880,3
1789466457.64537,2101,2879,3
1789466457.645833,1997,2878,3
1789466457.645973,1962,2877,3
1789466457.649357,2049,2878,3
1789466457.6506822,1954,2875,3
1789466457.6529589,1973,2876,3
1789466457.656065,2079,2878,3
1789466457.6581912,2080,2877,3
1789466457.658416,2079,2878,3
1789466457.6608572,1966,2875,3
1789466457.662153,2001,2878,3
1789466457.664911,2146,2878,3
1789466457.666034,2029,2878,3
1789466457.671886,1990,2876,3
1789466457.672519,2032,2877,3
1789466457.67376,2095,2878,3
1789466457.675989,2119,2879,3
1789466457.6823099,2031,2876,3
1789466457.683501,2012,2878,3
1789466457.685556,2095,2877,3
1789466457.6856,2085,2878,3
1789466457.686284,2051,2879,3
1789466457.686319,2018,2877,3
1789466457.6889431,2056,2877,3
1789466457.69001,2108,2876,3
1789466457.692342,2046,2876,3
1789466457.694994,2045,2878,3
1789466457.6960928,2018,2877,3
1789466457.6984131,2094,2877,3
1789466457.700483,2010,2876,3
1789466457.7026188,1983,2876,3
1789466457.703975,1978,2876,3
1789466457.706298,2060,2878,3
1789466457.708459,2073,2877,3
1789466457.7109702,2044,2876,3
1789466457.712034,2013,2877,3
1789466457.714259,2100,2877,3
1789466457.7167768,2071,2877,3
1789466457.717967,1969,2875,3
1789466457.7240279,1999,2877,3
1789466457.7248871,2094,2877,3
1789466457.7308018,2092,2876,3
1789466457.732361,2165,2878,3
1789466457.7324831,2097,2877,3
1789466457.732574,2085,2877,3
1789466457.73564,2085,2877,3
1789466457.736186,2098,2878,3
1789466457.736367,2070,2876,3
1789466457.7380228,1999,2877,3
1789466457.740341,2063,2877,3
1789466457.7426581,2033,2875,3
1789466457.743968,1968,2876,3
1789466457.746309,2027,2877,3
1789466457.753694,2104,2877,3
1789466457.7554119,1997,2875,3
1789466457.7555351,1990,2876,3
1789466457.755696,2142,2878,3
1789466457.7577941,2386,2881,3
1789466457.761132,2149,2879,3
1789466457.761266,1990,2874,3
1789466457.764246,2053,2879,3
1789466457.764423,2193,2878,3
1789466457.766752,2130,2878,3
1789466457.7680588,2216,2878,3
1789466457.770499,1791,2876,3
1789466457.772745,1801,2876,3
1789466457.7740412,2567,2881,3
1789466457.776605,2389,2879,3
1789466457.778678,1711,2875,3
1789466457.779974,1871,2876,3
1789466457.782041,1864,2876,3
1789466457.784435,1749,2876,3
1789466457.7859561,1740,2876,3
1789466457.7885172,1812,2877,3
1789466457.789973,2056,2878,3
1789466457.7922828,2175,2878,3
