timestamp,ch1,ch2,label
1789469558.782686,21602078,2878,0
1789469558.78276,2078,2879,0
1789469558.7828312,1979,2878,0
1789469558.782927,2004,2879,0
1789469558.7830012,2108,2879,0
1789469558.783096,2162,2879,0
1789469558.783123,2103,2879,0
1789469558.7831502,2081,2879,0
1789469558.783235,2060,2879,0
1789469558.783263,2170,2879,0
1789469558.783355,2047,2880,0
1789469558.7833889,1938,2878,0
1789469558.7834282,2029,2879,0
1789469558.783458,2161,2879,0
1789469558.783486,2133,2879,0
1789469558.785662,2020,2880,0
1789469558.7910569,2034,2878,0
1789469558.79109,2127,2878,0
1789469558.792492,2131,2880,0
1789469558.7938719,1999,2878,0
1789469558.795289,1936,2880,0
1789469558.799922,2125,2879,0
1789469558.800342,2146,2878,0
1789469558.801993,2165,2879,0
1789469558.803711,2091,2879,0
1789469558.8062458,2084,2879,0
1789469558.808743,2127,2879,0
1789469558.810034,2014,2878,0
1789469558.81236,2017,2879,0
1789469558.81342,2162,2879,0
1789469558.815739,2174,2879,0
1789469558.818288,2157,2880,0
1789469558.819521,2072,2878,0
1789469558.822062,2037,2879,0
1789469558.823348,2108,2879,0
1789469558.825888,2021,2879,0
1789469558.827959,1931,2877,0
1789469558.830395,2051,2879,0
1789469558.8316832,2144,2879,0
1789469558.8371,2124,2878,0
1789469558.837455,2022,2880,0
1789469558.8381581,2029,2878,0
1789469558.839533,2144,2878,0
1789469558.842422,2117,2880,0
1789469558.844121,1973,2877,0
1789469558.845839,1977,2877,0
1789469558.848306,2043,2879,0
1789469558.8496,2073,2878,0
1789469558.851906,2053,2879,0
1789469558.853968,1971,2878,0
1789469558.8562691,2056,2879,0
1789469558.857553,2108,2878,0
1789469558.85961,2083,2880,0
1789469558.86215,2004,2879,0
1789469558.86445,2097,2879,0
1789469558.865494,2143,2880,0
1789469558.868032,2152,2879,0
1789469558.870656,2046,2879,0
1789469558.873805,2051,2878,0
1789469558.873905,2131,2878,0
1789469558.875942,1982,2879,0
1789469558.877419,1959,2877,0
1789469558.880565,2036,2879,0
1789469558.8821929,2180,2878,0
1789469558.8832982,2204,2880,0
1789469558.885848,2065,2880,0
1789469558.888116,2096,2879,0
1789469558.8894038,2172,2878,0
1789469558.891946,2091,2879,0
1789469558.893232,1976,2878,0
1789469558.895533,2016,2880,0
1789469558.89784,2097,2879,0
1789469558.90038,2145,2877,0
1789469558.9014232,2133,2879,0
1789469558.903714,2049,2878,0
1789469558.905778,2027,2880,0
1789469558.911318,2106,2879,0
1789469558.9117088,2009,2877,0
1789469558.912092,1988,2879,0
1789469558.913724,2033,2880,0
1789469558.916825,2170,2878,0
1789469558.918643,2108,2880,0
1789469558.920136,2117,2879,0
1789469558.921439,2122,2879,0
1789469558.923508,2159,2878,0
1789469558.925823,2041,2879,0
1789469558.927165,1937,2877,0
1789469558.92947,2047,2879,0
1789469558.932013,2171,2880,0
1789469558.9332979,2181,2881,0
1789469558.93584,2069,2879,0
1789469558.937163,1999,2879,0
1789469558.939477,2106,2879,0
1789469558.9420218,2100,2879,0
1789469558.943163,2006,2878,0
1789469558.945854,2039,2878,0
1789469558.949483,2150,2879,0
1789469558.9498692,2168,2878,0
1789469558.9515572,2098,2880,0
1789469558.955456,2033,2878,0
1789469558.956254,2133,2879,0
1789469558.9579809,2164,2880,0
1789469558.9602938,1996,2878,0
1789469558.9615932,1952,2878,0
1789469558.9641511,2101,2879,0
1789469558.965442,2178,2879,0
1789469558.967989,2190,2880,0
1789469558.9700842,2084,2877,0
1789469558.971383,2064,2879,0
1789469558.973931,2122,2879,0
1789469558.9752169,2066,2879,0
1789469558.977531,1982,2878,0
1789469558.9799209,2015,2878,0
1789469558.9812071,2093,2879,0
1789469558.983516,2137,2877,0
1789469558.98753,2047,2879,0
1789469558.988277,2026,2879,0
1789469558.989844,2092,2879,0
1789469558.991963,2067,2879,0
1789469558.9941719,1985,2878,0
1789469558.996469,2026,2880,0
1789469558.9977741,2121,2879,0
1789469559.000062,2187,2879,0
1789469559.00136,2119,2879,0
1789469559.0039139,2048,2878,0
1789469559.005203,2092,2879,0
1789469559.0077481,2146,2878,0
1789469559.01006,2041,2880,0
1789469559.01122,1983,2878,0
1789469559.013768,2106,2879,0
1789469559.0163252,2204,2879,0
1789469559.0173771,2120,2880,0
1789469559.019785,2065,2880,0
1789469559.021844,2043,2878,0
1789469559.023902,2192,2879,0
1789469559.0280309,2093,2879,0
1789469559.028827,1981,2878,0
1789469559.030144,2030,2879,0
1789469559.0324202,2095,2879,0
1789469559.0349739,2123,2878,0
1789469559.0376809,2071,2880,0
1789469559.037868,2009,2878,0
1789469559.0399811,2079,2879,0
1789469559.041282,2136,2879,0
1789469559.0438359,2029,2878,0
1789469559.0461361,2013,2878,0
1789469559.047426,2118,2880,0
1789469559.0497322,2254,2879,0
1789469559.052033,2145,2879,0
1789469559.053213,2080,2878,0
1789469559.055763,2071,2879,0
1789469559.058065,2084,2878,0
1789469559.0591528,1992,2877,0
1789469559.061451,1952,2878,0
1789469559.063526,2050,2878,0
1789469559.068612,2151,2878,0
1789469559.069074,2115,2879,0
1789469559.070186,2058,2877,0
1789469559.072597,2084,2879,0
1789469559.0742888,2106,2879,0
1789469559.075843,2022,2880,0
1789469559.078521,1976,2878,0
1789469559.079575,2077,2879,0
1789469559.0821362,2176,2878,0
1789469559.083439,2120,2877,0
1789469559.0859818,2109,2879,0
1789469559.087187,2055,2878,0
1789469559.089634,2133,2879,0
1789469559.091937,2149,2879,0
1789469559.094003,2008,2877,0
1789469559.096299,2005,2878,0
1789469559.097595,2132,2879,0
1789469559.099902,2149,2880,0
1789469559.102228,2077,2879,0
1789469559.103519,2048,2879,0
1789469559.105798,2009,2878,0
1789469559.110494,2098,2879,0
1789469559.1109362,1980,2877,0
1789469559.112931,1986,2880,0
1789469559.114474,2070,2879,0
1789469559.117779,2149,2878,0
1789469559.117931,2183,2881,0
1789469559.120822,2119,2878,0
1789469559.121948,2087,2880,0
1789469559.124268,2161,2877,0
1789469559.1253219,2065,2879,0
1789469559.127873,1955,2878,0
1789469559.130187,2007,2878,0
1789469559.131243,2137,2879,0
1789469559.13379,2145,2878,0
1789469559.135861,2074,2880,0
1789469559.1371589,2082,2878,0
1789469559.13946,2107,2879,0
1789469559.1418052,2129,2880,0
1789469559.1441112,2001,2878,0
1789469559.145401,1983,2880,0
1789469559.1477041,2115,2879,0
1789469559.153043,2152,2879,0
1789469559.153451,2121,2879,0
1789469559.154592,2060,2878,0
1789469559.156992,2078,2879,0
1789469559.15872,2131,2879,0
1789469559.1602628,2029,2879,0
1789469559.163053,1961,2878,0
1789469559.163198,2064,2879,0
1789469559.16552,2161,2879,0
1789469559.1678238,2156,2881,0
1789469559.169152,2036,2880,0
1789469559.171471,1973,2879,0
1789469559.173769,2095,2880,0
1789469559.176075,2082,2880,0
1789469559.177237,2039,2878,0
1789469559.179546,2083,2878,0
1789469559.18165,2168,2878,0
1789469559.1841931,2181,2879,0
1789469559.1852438,2086,2879,0
1789469559.187555,2009,2879,0
1789469559.190099,2112,2879,0
1789469559.191387,2099,2879,0
1789469559.19627,1998,2877,0
1789469559.1963892,1977,2879,0
1789469559.1975749,2114,2879,0
1789469559.200289,2199,2879,0
1789469559.201785,2132,2880,0
1789469559.203326,2076,2879,0
1789469559.205873,2101,2878,0
1789469559.20818,2119,2879,0
1789469559.209472,2035,2879,0
1789469559.211807,1998,2879,0
1789469559.21715,2041,2879,0
1789469559.217551,2132,2878,0
1789469559.21798,2290,2881,0
1789469559.22067,2154,2879,0
1789469559.222375,1803,2878,0
1789469559.2248461,2001,2878,0
1789469559.2263439,2115,2880,0
1789469559.227641,2038,2878,0
1789469559.229815,2017,2880,0
1789469559.2323751,2060,2879,0
1789469559.233429,2195,2881,0
1789469559.2357702,2197,2880,0
1789469559.238326,1977,2879,0
1789469559.239617,2038,2879,0
1789469559.242174,2105,2880,0
1789469559.243403,2090,2878,0
1789469559.245749,1973,2878,0
1789469559.2479491,1971,2879,0
1789469559.250259,2110,2879,0
1789469559.251319,2048,2879,0
1789469559.253653,2204,2878,0
1789469559.259379,1852,2878,0
1789469559.259468,2175,2880,0
1789469559.260232,2024,2878,0
1789469559.2627552,2079,2879,0
1789469559.264396,2041,2879,0
1789469559.266243,2182,2880,0
1789469559.267641,2101,2879,0
1789469559.269623,2142,2878,0
1789469559.272183,2214,2879,0
1789469559.2734778,2175,2879,0
1789469559.275844,1949,2877,0
1789469559.277948,2033,2879,0
1789469559.280266,2086,2879,0
1789469559.2815602,2099,2879,0
1789469559.283627,2079,2877,0
1789469559.286175,2107,2880,0
1789469559.287231,2059,2878,0
1789469559.289542,2129,2879,0
1789469559.292195,2040,2879,0
1789469559.314892,1960,2878,0
1789469559.315083,1982,2880,0
1789469559.315244,2047,2879,0
1789469559.3153212,2076,2878,0
1789469559.315584,2112,2880,0
1789469559.315695,2071,2879,0
1789469559.31587,2074,2879,0
1789469559.315934,2128,2879,0
1789469559.316431,2047,2879,0
1789469559.317815,2004,2879,0
1789469559.31793,2183,2879,0
1789469559.318002,2158,2879,0
1789469559.318069,2078,2877,0
1789469559.319242,2003,2879,0
1789469559.32185,2063,2879,0
1789469559.323216,2201,2879,0
1789469559.325839,2144,2879,0
1789469559.327172,1852,2877,0
1789469559.329769,1954,2880,0
1789469559.331365,2025,2879,0
1789469559.334062,2174,2879,0
1789469559.3354182,2173,2879,0
1789469559.3380291,2007,2878,0
1789469559.339406,2099,2879,0
1789469559.342007,1891,2879,0
1789469559.343338,1942,2878,0
1789469559.3501241,1988,2880,0
1789469559.352919,2112,2879,0
1789469559.3559082,2148,2879,0
1789469559.3565052,2102,2881,0
1789469559.3612769,2064,2879,0
1789469559.3631208,2220,2880,0
1789469559.3636758,2108,2878,0
1789469559.364306,2156,2880,0
1789469559.366552,1976,2878,0
1789469559.366729,1951,2878,0
1789469559.366854,1909,2879,0
1789469559.368261,2147,2881,0
1789469559.369594,2165,2880,0
1789469559.380783,2003,2878,0
1789469559.386701,1921,2879,0
1789469559.389685,2032,2879,0
1789469559.389973,1983,2877,0
1789469559.3900568,2013,2878,0
1789469559.390122,2183,2880,0
1789469559.390184,2168,2879,0
1789469559.390246,2029,2879,0
1789469559.390313,1895,2878,0
1789469559.3903801,2114,2879,0
1789469559.39183,2225,2879,0
1789469559.393247,2251,2881,0
1789469559.395853,1834,2878,0
1789469559.3975308,2038,2878,0
1789469559.400118,2138,2878,0
1789469559.401435,2101,2880,0
1789469559.404078,1855,2878,0
1789469559.405479,1865,2879,0
1789469559.408138,2005,2879,0
1789469559.409494,2288,2879,0
1789469559.411065,2017,2878,0
1789469559.41396,2037,2880,0
1789469559.415448,2093,2879,0
1789469559.418127,2074,2878,0
1789469559.4202812,2117,2879,0
1789469559.421644,2019,2879,0
1789469559.423063,2013,2878,0
1789469559.434052,1945,2879,0
1789469559.4409559,1876,2877,0
1789469559.441571,1982,2879,0
1789469559.441864,2216,2879,0
1789469559.444788,2287,2880,0
1789469559.444906,2187,2880,0
1789469559.445027,2161,2880,0
1789469559.445102,2033,2879,0
1789469559.445167,2039,2879,0
1789469559.4452312,1900,2878,0
1789469559.4452941,2085,2879,0
1789469559.448498,2068,2880,0
1789469559.455913,1929,2879,0
1789469559.45796,2090,2879,0
1789469559.460238,1994,2879,0
1789469559.461866,2091,2879,0
1789469559.462452,2031,2880,0
1789469559.465266,2175,2880,0
1789469559.4673972,2045,2880,0
1789469559.468024,2012,2878,0
1789469559.468456,2261,2879,0
1789469559.470848,2223,2879,0
1789469559.471136,2123,2880,0
1789469559.47122,1943,2879,0
1789469559.473851,2093,2878,0
1789469559.4751968,2178,2879,0
1789469559.477803,1920,2878,0
1789469559.479143,2062,2878,0
1789469559.4818492,2157,2879,0
1789469559.483736,2036,2879,0
1789469559.485578,2086,2879,0
1789469559.488349,2184,2879,0
1789469559.490015,2079,2879,0
1789469559.4914072,2140,2880,0
1789469559.494009,1931,2878,0
1789469559.495349,1882,2880,0
1789469559.497986,2119,2879,0
1789469559.499388,2270,2882,0
1789469559.502081,2134,2880,0
1789469559.5034308,1971,2879,0
1789469559.5060532,2164,2880,0
1789469559.507404,2148,2880,0
1789469559.5133052,2059,2879,0
1789469559.5140102,1942,2878,0
1789469559.518411,2060,2879,0
1789469559.522198,2108,2879,0
1789469559.5263848,2182,2879,0
1789469559.52938,2162,2879,0
1789469559.53218,2255,2878,0
1789469559.532265,2137,2880,0
1789469559.532331,1913,2876,0
1789469559.532396,2097,2878,0
1789469559.532459,2137,2878,0
1789469559.5325198,2019,2879,0
1789469559.533955,2032,2877,0
1789469559.535315,2068,2879,0
1789469559.544118,2076,2879,0
1789469559.546106,2038,2879,0
1789469559.5486321,2164,2881,0
1789469559.553579,1990,2879,0
1789469559.556118,1941,2878,0
1789469559.556374,2285,2880,0
1789469559.5567849,2333,2882,0
1789469559.5570529,1934,2876,0
1789469559.559399,2048,2878,0
1789469559.5601978,2137,2880,0
1789469559.560259,2105,2880,0
1789469559.5603049,1980,2881,0
1789469559.5616949,1937,2878,0
1789469559.563948,2022,2880,0
1789469559.565813,2166,2879,0
1789469559.567241,2165,2880,0
1789469559.569914,2069,2880,0
1789469559.571063,2073,2880,0
1789469559.5738728,2161,2879,0
1789469559.575157,2067,2879,0
1789469559.5777621,1798,2878,0
1789469559.5791621,2085,2879,0
1789469559.581795,2057,2879,0
1789469559.58317,2207,2879,0
1789469559.585834,2078,2880,0
1789469559.587362,1951,2878,0
1789469559.5900319,2047,2879,0
1789469559.591413,2271,2879,0
1789469559.594042,2001,2879,0
1789469559.5954401,1937,2879,0
1789469559.598542,1946,2879,0
1789469559.600113,2172,2880,0
1789469559.607011,2243,2881,0
1789469559.6210308,2083,2880,0
1789469559.621706,2084,2880,0
1789469559.6220968,1947,2879,0
1789469559.625941,1990,2879,0
1789469559.626025,1912,2880,0
1789469559.626086,2035,2880,0
1789469559.626224,2141,2879,0
1789469559.626295,2037,2876,0
1789469559.626351,2055,2880,0
1789469559.626403,2002,2879,0
1789469559.626453,2311,2880,0
1789469559.62656,2022,2879,0
1789469559.627925,2015,2879,0
1789469559.629075,2278,2879,0
1789469559.6364532,2234,2878,0
1789469559.639334,2291,2882,0
1789469559.641553,2150,2879,0
1789469559.64392,2037,2880,0
1789469559.645649,1976,2879,0
1789469559.648483,2139,2879,0
1789469559.653894,1935,2877,0
1789469559.6545181,1909,2880,0
1789469559.654933,1964,2879,0
1789469559.655333,2135,2879,0
1789469559.65572,1974,2878,0
1789469559.658804,1910,2879,0
1789469559.659253,1921,2879,0
1789469559.659323,1975,2880,0
1789469559.6593869,1996,2877,0
1789469559.662003,2022,2878,0
1789469559.663362,2071,2879,0
1789469559.666034,2292,2881,0
1789469559.667446,2141,2880,0
1789469559.669985,2201,2879,0
1789469559.671416,2311,2880,0
1789469559.67411,2203,2879,0
1789469559.6755352,2006,2880,0
1789469559.677055,1900,2878,0
1789469559.679683,1908,2878,0
1789469559.68111,2083,2879,0
1789469559.683838,2142,2881,0
1789469559.685218,2007,2880,0
1789469559.688641,1874,2878,0
1789469559.690146,2169,2879,0
1789469559.691655,2176,2880,0
1789469559.693059,2043,2877,0
1789469559.695822,1993,2879,0
1789469559.6972039,2148,2879,0
1789469559.699969,2274,2880,0
1789469559.701351,2033,2878,0
1789469559.7039921,1903,2878,0
1789469559.7131531,2077,2878,0
1789469559.714129,2214,2879,0
1789469559.719607,2102,2880,0
1789469559.720323,2014,2878,0
1789469559.7217002,2028,2879,0
1789469559.722534,2085,2878,0
1789469559.726462,2093,2878,0
1789469559.7268622,2349,2880,0
1789469559.730335,2216,2878,0
1789469559.7308002,2091,2879,0
1789469559.734293,1961,2879,0
1789469559.7343621,2104,2878,0
1789469559.734447,2066,2879,0
1789469559.7345128,2182,2879,0
1789469559.734569,2297,2880,0
1789469559.7356532,2275,2880,0
1789469559.7370508,1906,2879,0
1789469559.745264,2072,2880,0
1789469559.7465112,2412,2881,0
1789469559.7474189,2306,2880,0
1789469559.749853,1912,2878,0
1789469559.7501729,1787,2879,0
1789469559.752078,2005,2879,0
1789469559.752887,2176,2880,0
1789469559.753582,2109,2879,0
1789469559.755218,1869,2878,0
1789469559.7591581,2017,2879,0
1789469559.7624,2212,2880,0
1789469559.76263,2039,2878,0
1789469559.7652678,1925,2879,0
1789469559.7661471,1934,2878,0
1789469559.76738,2122,2878,0
1789469559.7699788,2062,2879,0
1789469559.7712011,2020,2879,0
1789469559.773828,2123,2879,0
1789469559.776195,1888,2878,0
1789469559.777282,1937,2878,0
1789469559.77999,2067,2879,0
1789469559.7813592,2121,2879,0
1789469559.7837598,2335,2881,0
1789469559.785164,2176,2879,0
1789469559.7875352,1841,2879,0
1789469559.789879,2117,2879,0
1789469559.791214,2242,2878,0
1789469559.793314,2005,2880,0
1789469559.7956731,2112,2879,0
1789469559.7982972,2027,2878,0
1789469559.799615,2222,2879,0
1789469559.801954,2094,2877,0
1789469559.803036,2124,2879,0
1789469559.805613,2117,2879,0
1789469559.8081868,2117,2878,0
1789469559.809502,2013,2879,0
1789469559.812063,1829,2877,0
1789469559.818452,1785,2878,0
1789469559.820044,2176,2879,0
1789469559.820817,2203,2881,0
1789469559.821475,2385,2879,0
1789469559.823394,2045,2879,0
1789469559.8235781,2025,2879,0
1789469559.826205,2387,2880,0
1789469559.828382,2174,2880,0
1789469559.832148,2060,2878,0
1789469559.8324149,2084,2879,0
1789469559.8357298,2309,2881,0
1789469559.835883,2277,2879,0
1789469559.838872,1879,2878,0
1789469559.840224,2006,2879,0
1789469559.8414772,2034,2878,0
1789469559.8439739,1877,2877,0
1789469559.849189,1977,2879,0
1789469559.8498719,1911,2879,0
1789469559.8500538,2051,2879,0
1789469559.851666,2060,2878,0
1789469559.854122,2134,2880,0
1789469559.857027,1925,2878,0
1789469559.858135,1999,2878,0
1789469559.860245,1979,2879,0
1789469559.862422,1831,2878,0
1789469559.865603,2215,2879,0
1789469559.86614,2274,2879,0
1789469559.868475,2138,2881,0
1789469559.8698099,1769,2877,0
1789469559.871913,1931,2879,0
1789469559.873044,2207,2879,0
1789469559.875388,2170,2880,0
1789469559.877484,1979,2877,0
1789469559.880082,1981,2879,0
1789469559.8811579,1980,2878,0
1789469559.883723,2136,2878,0
1789469559.8850272,2220,2879,0
1789469559.887351,1864,2879,0
1789469559.8896809,1932,2878,0
1789469559.892262,1904,2878,0
1789469559.8933492,1999,2877,0
1789469559.895919,2052,2879,0
1789469559.897229,2151,2879,0
1789469559.899563,2171,2879,0
1789469559.90213,2241,2880,0
1789469559.903436,2249,2879,0
1789469559.9057689,2019,2879,0
1789469559.907082,2032,2879,0
1789469559.914326,1964,2878,0
1789469559.914994,1876,2880,0
1789469559.916214,1859,2880,0
1789469559.917315,2079,2878,0
1789469559.917485,2137,2880,0
1789469559.919152,2163,2879,0
1789469559.921995,2230,2879,0
1789469559.924173,2195,2880,0
1789469559.9259572,2117,2879,0
1789469559.928837,1985,2879,0
1789469559.931654,1949,2878,0
1789469559.931874,2216,2879,0
1789469559.93402,2182,2881,0
1789469559.935093,2069,2879,0
1789469559.941064,1940,2878,0
1789469559.942065,1894,2878,0
1789469559.942645,2149,2880,0
1789469559.9467368,2256,2880,0
1789469559.954916,2197,2878,0
1789469559.955175,2071,2878,0
1789469559.9554172,2015,2878,0
1789469559.958294,2053,2877,0
1789469559.958345,1989,2879,0
1789469559.958391,1917,2879,0
1789469559.958434,2093,2878,0
1789469559.959757,2046,2880,0
1789469559.9618518,1913,2878,0
1789469559.964224,1952,2878,0
1789469559.9652932,2086,2878,0
1789469559.96739,2311,2881,0
1789469559.969729,2172,2880,0
1789469559.9718149,2094,2879,0
1789469559.974145,2142,2880,0
1789469559.975519,2102,2880,0
1789469559.9778812,1937,2878,0
1789469559.9792151,1921,2879,0
1789469559.981878,2023,2879,0
1789469559.983959,2147,2879,0
1789469559.9850419,2122,2880,0
1789469559.987115,2011,2878,0
1789469559.989207,2026,2878,0
1789469559.991534,2011,2878,0
1789469559.993632,1894,2878,0
1789469559.9959779,1998,2878,0
1789469559.997429,2169,2878,0
1789469560.0034208,2139,2879,0
1789469560.0047202,1983,2878,0
1789469560.0071092,1886,2878,0
1789469560.0097868,2128,2879,0
1789469560.009975,2337,2879,0
1789469560.011613,2096,2880,0
1789469560.012713,1959,2879,0
1789469560.018701,2065,2878,0
1789469560.01916,2224,2879,0
1789469560.0195358,2112,2879,0
1789469560.019785,2001,2879,0
1789469560.022657,1943,2879,0
1789469560.0239859,2146,2879,0
1789469560.025388,2148,2879,0
1789469560.037944,1966,2878,0
1789469560.042679,2044,2878,0
1789469560.046518,2112,2880,0
1789469560.0468302,2168,2880,0
1789469560.050375,2067,2879,0
1789469560.0507169,2165,2879,0
1789469560.050878,2116,2879,0
1789469560.051306,2045,2877,0
1789469560.051616,1929,2877,0
1789469560.054409,1972,2878,0
1789469560.0547998,2051,2878,0
1789469560.054893,2134,2879,0
1789469560.054961,2088,2878,0
1789469560.0550568,2087,2878,0
1789469560.055121,2063,2878,0
1789469560.05773,2204,2879,0
1789469560.059061,2008,2879,0
1789469560.061475,1843,2877,0
1789469560.064066,1939,2879,0
1789469560.0651588,2189,2879,0
1789469560.0676339,2259,2881,0
1789469560.070223,2086,2879,0
1789469560.0716212,2004,2879,0
1789469560.074123,2126,2879,0
1789469560.0754719,2189,2880,0
1789469560.078089,2023,2876,0
1789469560.0791712,1990,2879,0
1789469560.081511,2077,2878,0
1789469560.083853,2203,2879,0
1789469560.085065,2138,2879,0
1789469560.087744,1995,2879,0
1789469560.089859,2049,2879,0
1789469560.091985,2067,2879,0
1789469560.0930612,1956,2878,0
1789469560.095686,1905,2878,0
1789469560.098036,2042,2880,0
1789469560.0993652,2186,2878,0
1789469560.1015182,2150,2880,0
1789469560.1082098,2005,2879,0
1789469560.109011,2039,2878,0
1789469560.1104589,2098,2879,0
1789469560.1129448,2044,2880,0
1789469560.1153789,1881,2879,0
1789469560.118044,1965,2879,0
1789469560.1213472,2330,2879,0
1789469560.12173,2231,2881,0
1789469560.12501,2041,2878,0
1789469560.1254132,2013,2879,0
1789469560.125896,2109,2879,0
1789469560.126197,2121,2879,0
1789469560.1289759,2106,2879,0
1789469560.129398,1959,2878,0
1789469560.131747,2139,2879,0
1789469560.1330712,2249,2881,0
1789469560.1356668,2057,2879,0
1789469560.136995,2111,2879,0
1789469560.139612,2139,2879,0
1789469560.140945,2200,2879,0
1789469560.143302,1999,2877,0
1789469560.145646,1962,2879,0
1789469560.148078,2111,2880,0
1789469560.149426,2203,2877,0
1789469560.1520262,2108,2880,0
1789469560.153103,2061,2877,0
1789469560.1552,1980,2878,0
1789469560.157652,2119,2879,0
1789469560.159917,2241,2879,0
1789469560.161294,2028,2877,0
1789469560.163738,2078,2880,0
1789469560.1651468,2243,2879,0
1789469560.1673868,2249,2881,0
1789469560.169756,2187,2879,0
1789469560.170944,2166,2879,0
1789469560.173355,2199,2879,0
1789469560.1812842,2169,2880,0
1789469560.182055,2043,2878,0
1789469560.183363,1994,2879,0
1789469560.183627,2081,2879,0
1789469560.18593,2171,2878,0
1789469560.1864161,2139,2879,0
1789469560.190496,2072,2879,0
1789469560.191162,2153,2878,0
1789469560.19523,2100,2879,0
1789469560.198714,1983,2878,0
1789469560.199349,2159,2879,0
1789469560.1995761,2262,2878,0
1789469560.199808,2437,2880,0
1789469560.203019,2271,2880,0
1789469560.203077,2131,2878,0
1789469560.2054431,2188,2879,0
1789469560.207787,2281,2879,0
1789469560.2090151,2209,2879,0
1789469560.21525,2052,2878,0
1789469560.2167292,2139,2879,0
1789469560.21922,2200,2879,0
1789469560.221407,2182,2879,0
1789469560.2226381,2048,2878,0
1789469560.223222,2090,2878,0
1789469560.22456,2185,2879,0
1789469560.226102,2135,2878,0
1789469560.228189,2135,2880,0
1789469560.2316642,2100,2878,0
1789469560.232032,2246,2878,0
1789469560.234993,2275,2880,0
1789469560.235373,2253,2880,0
1789469560.237487,2122,2879,0
1789469560.239616,2173,2880,0
1789469560.240941,2186,2879,0
1789469560.2430599,2033,2879,0
1789469560.245162,2064,2879,0
1789469560.247529,2130,2879,0
1789469560.2498822,2234,2878,0
1789469560.251005,2206,2879,0
1789469560.2535949,2158,2879,0
1789469560.255693,2153,2878,0
1789469560.257012,2216,2880,0
1789469560.25936,2131,2879,0
1789469560.261495,1996,2879,0
1789469560.263957,2077,2879,0
1789469560.2652748,2223,2878,0
1789469560.2676249,2133,2878,0
1789469560.268943,2090,2879,0
1789469560.2712781,2008,2879,0
1789469560.2736158,2066,2879,0
1789469560.275709,2109,2879,0
1789469560.277029,2032,2877,0
1789469560.2791219,1948,2878,0
1789469560.286504,2061,2879,0
1789469560.2873569,2180,2879,0
1789469560.289057,2110,2879,0
1789469560.291022,2098,2878,0
1789469560.291362,2129,2880,0
1789469560.291689,2064,2879,0
1789469560.294572,2031,2876,0
1789469560.2961879,2062,2878,0
1789469560.299833,2076,2879,0
1789469560.303295,2142,2879,0
1789469560.303644,2156,2879,0
1789469560.3039,2091,2877,0
1789469560.307298,2054,2878,0
1789469560.307392,2107,2879,0
1789469560.309504,2064,2879,0
1789469560.312168,2026,2877,0
1789469560.318089,2148,2878,0
1789469560.31895,2196,2878,0
1789469560.320103,2065,2878,0
1789469560.3203042,2094,2880,0
1789469560.322556,2159,2878,0
1789469560.326736,2133,2879,0
1789469560.3274329,2071,2879,0
1789469560.328707,1873,2878,0
1789469560.33148,1909,2879,0
1789469560.3348858,2095,2879,0
1789469560.335383,2103,2880,0
1789469560.335574,2047,2878,0
1789469560.338036,2047,2878,0
1789469560.339364,2039,2879,0
1789469560.3417249,2139,2879,0
1789469560.344139,2022,2877,0
1789469560.345524,1955,2879,0
1789469560.3479419,2072,2878,0
1789469560.349928,2219,2880,0
1789469560.351679,2198,2880,0
1789469560.352978,2102,2879,0
1789469560.3563142,2017,2879,0
1789469560.358052,2097,2878,0
1789469560.359304,2085,2879,0
1789469560.3626702,2017,2878,0
1789469560.3638709,1996,2878,0
1789469560.36556,2105,2879,0
1789469560.3689668,2083,2878,0
1789469560.3691661,2020,2880,0
1789469560.3790982,1946,2879,0
1789469560.3791611,2068,2879,0
1789469560.3792121,2143,2880,0
1789469560.3835788,2007,2879,0
1789469560.383716,2006,2879,0
1789469560.383849,2148,2878,0
1789469560.3839018,2173,2878,0
1789469560.412388,2103,2880,0
1789469560.412975,2021,2878,0
1789469560.443514,2068,2879,0
1789469560.4470148,2096,2879,0
1789469560.447267,2004,2877,0
1789469560.447333,1969,2879,0
1789469560.447387,2046,2879,0
1789469560.4526489,2187,2878,0
1789469560.452758,2172,2879,0
1789469560.454481,2069,2880,0
1789469560.454559,2029,2878,0
1789469560.454627,2138,2879,0
1789469560.4546912,2071,2879,0
1789469560.454794,1980,2877,0
1789469560.454914,2039,2878,0
1789469560.455001,2176,2878,0
1789469560.4550688,2202,2880,0
1789469560.4551392,2076,2880,0
1789469560.455209,2054,2878,0
1789469560.4552782,2141,2880,0
1789469560.4553459,2099,2879,0
1789469560.45541,1979,2878,0
1789469560.4554749,1940,2878,0
1789469560.4555368,2081,2880,0
1789469560.455601,2112,2877,0
1789469560.455668,2099,2880,0
1789469560.455733,1989,2879,0
1789469560.4557939,2042,2878,0
1789469560.45587,2110,2879,0
1789469560.455931,2044,2880,0
1789469560.4559932,2008,2878,0
1789469560.456102,2078,2879,0
1789469560.456258,2139,2879,0
1789469560.456338,2128,2880,0
1789469560.4564102,2129,2879,0
1789469560.456486,2081,2878,0
1789469560.457742,2154,2879,0
1789469560.4589381,2128,2880,0
1789469560.46139,2033,2878,0
1789469560.464043,2055,2879,0
1789469560.465268,2143,2878,0
1789469560.467946,2143,2879,0
1789469560.4690619,2062,2878,0
1789469560.471429,1994,2878,0
1789469560.474037,2081,2877,0
1789469560.475393,2101,2878,0
1789469560.477005,1965,2877,0
1789469560.4789498,1948,2880,0
1789469560.481941,2094,2880,0
1789469560.483676,2149,2879,0
1789469560.485049,2097,2881,0
1789469560.48805,2055,2878,0
1789469560.4895449,2061,2878,0
1789469560.497302,2094,2878,0
1789469560.499576,2036,2880,0
1789469560.504052,2009,2877,0
1789469560.505811,2094,2880,0
1789469560.508669,2120,2878,0
1789469560.511636,2111,2879,0
1789469560.5151591,2064,2880,0
1789469560.516473,2024,2878,0
1789469560.5196018,2109,2879,0
1789469560.5197031,2051,2880,0
1789469560.520034,1927,2878,0
1789469560.5200908,2002,2879,0
1789469560.520144,2074,2879,0
1789469560.520231,2152,2878,0
1789469560.520349,2111,2878,0
1789469560.521722,2024,2877,0
1789469560.522933,2110,2879,0
1789469560.534938,2109,2878,0
1789469560.53529,1989,2877,0
1789469560.535716,2012,2878,0
1789469560.535904,2104,2879,0
1789469560.539831,2181,2880,0
1789469560.548036,2174,2880,0
1789469560.5481868,2101,2878,0
1789469560.5484319,2091,2879,0
1789469560.548525,2140,2878,0
1789469560.5485802,2022,2879,0
1789469560.5486321,1945,2878,0
1789469560.5487528,2051,2879,0
1789469560.552611,2068,2879,0
1789469560.5526981,2130,2880,0
1789469560.554141,2072,2879,0
1789469560.5554821,2020,2878,0
1789469560.556999,2126,2878,0
1789469560.559327,2055,2879,0
1789469560.560982,1981,2877,0
1789469560.5640728,2027,2880,0
1789469560.56559,2128,2879,0
1789469560.567022,2192,2880,0
1789469560.569681,2074,2880,0
1789469560.570985,2020,2878,0
1789469560.5737238,2079,2879,0
1789469560.574961,2138,2879,0
1789469560.5771992,2032,2878,0
1789469560.57968,1999,2879,0
1789469560.581246,2161,2878,0
1789469560.5839128,2196,2877,0
1789469560.585302,2053,2880,0
1789469560.587935,2035,2880,0
1789469560.5890481,2031,2879,0
1789469560.5916438,2183,2879,0
1789469560.5929432,1980,2878,0
1789469560.5953212,1953,2879,0
1789469560.5979772,2160,2879,0
1789469560.6135092,2146,2879,0
1789469560.620947,2166,2879,0
1789469560.621569,2132,2878,0
1789469560.622179,1989,2878,0
1789469560.6254048,2100,2879,0
1789469560.62555,2089,2881,0
1789469560.6257,1991,2877,0
1789469560.62577,2111,2879,0
1789469560.625834,2038,2879,0
1789469560.625958,2034,2878,0
1789469560.626059,2103,2880,0
1789469560.626144,2089,2879,0
1789469560.626275,2079,2880,0
1789469560.6264021,2224,2879,0
1789469560.627758,2053,2881,0
1789469560.62915,1695,2880,0
1789469560.638902,2020,2879,0
1789469560.6417081,2246,2879,0
1789469560.6449049,2364,2881,0
1789469560.653485,2029,2879,0
1789469560.654448,1803,2878,0
1789469560.657401,2120,2878,0
1789469560.657849,2007,2878,0
1789469560.657929,2117,2878,0
1789469560.657993,2073,2879,0
1789469560.6580539,2179,2880,0
1789469560.658113,2068,2878,0
1789469560.658174,1968,2880,0
1789469560.6582341,2254,2879,0
1789469560.658293,2305,2879,0
1789469560.659659,1958,2879,0
1789469560.660943,1922,2878,0
1789469560.663338,2093,2879,0
1789469560.6661272,2134,2879,0
1789469560.667422,2325,2881,0
1789469560.6702762,1869,2877,0
1789469560.671562,1974,2879,0
1789469560.672946,2103,2878,0
1789469560.675602,2239,2879,0
1789469560.6769621,1975,2878,0
1789469560.679491,2041,2878,0
1789469560.680921,2069,2879,0
1789469560.6835861,2351,2881,0
1789469560.6860008,2291,2880,0
1789469560.687159,1848,2875,0
1789469560.689604,1890,2880,0
1789469560.6910112,2089,2879,0
1789469560.693651,2294,2880,0
1789469560.695436,2049,2878,0
1789469560.6969118,1696,2878,0
1789469560.699991,2065,2878,0
1789469560.701299,2251,2881,0
1789469560.7042181,2152,2880,0
1789469560.705722,2054,2879,0
1789469560.713173,1990,2879,0
1789469560.717182,2034,2879,0
1789469560.720503,2020,2878,0
1789469560.7222831,1962,2878,0
1789469560.723074,2079,2878,0
1789469560.724363,2066,2876,0
1789469560.725214,2117,2879,0
1789469560.72751,2060,2878,0
1789469560.7310069,2087,2879,0
1789469560.731914,2056,2878,0
1789469560.73504,1972,2878,0
1789469560.7351182,1952,2878,0
1789469560.735183,2150,2880,0
1789469560.735256,2155,2879,0
1789469560.7353249,2060,2878,0
1789469560.738236,2139,2880,0
1789469560.739705,2147,2879,0
1789469560.7415302,2161,2879,0
1789469560.755498,1953,2876,0
1789469560.757217,1940,2878,0
1789469560.7596312,2081,2879,0
1789469560.763885,2115,2879,0
1789469560.764121,2169,2880,0
1789469560.7674172,1956,2878,0
1789469560.7676291,2006,2879,0
1789469560.7677891,2022,2879,0
1789469560.7681699,2051,2879,0
1789469560.768694,1948,2879,0
1789469560.769952,2006,2879,0
1789469560.770082,2096,2879,0
1789469560.770167,2149,2878,0
1789469560.771085,2056,2880,0
1789469560.7711732,2021,2879,0
1789469560.7738528,2055,2879,0
1789469560.775233,2126,2880,0
1789469560.777947,2027,2877,0
1789469560.779298,1998,2879,0
1789469560.781941,2115,2879,0
1789469560.783343,2037,2878,0
1789469560.78673,2069,2880,0
1789469560.786874,2074,2878,0
1789469560.7893388,2136,2879,0
1789469560.791765,2118,2880,0
1789469560.7928698,2011,2879,0
1789469560.795004,1842,2879,0
1789469560.7976189,2068,2880,0
1789469560.798877,2132,2879,0
1789469560.80128,2066,2879,0
1789469560.803651,2115,2880,0
1789469560.804994,1967,2878,0
1789469560.807507,2140,2879,0
1789469560.808872,2021,2880,0
1789469560.811438,1959,2879,0
1789469560.81283,2011,2879,0
1789469560.821337,2142,2879,0
1789469560.822135,2172,2879,0
1789469560.8260748,2056,2880,0
1789469560.8292632,1936,2879,0
1789469560.831778,2073,2880,0
1789469560.838439,2113,2878,0
1789469560.8389819,2023,2879,0
1789469560.8395789,1974,2879,0
1789469560.8399339,2047,2879,0
1789469560.840417,2077,2878,0
1789469560.8432698,2157,2881,0
1789469560.84357,2134,2880,0
1789469560.843634,2023,2879,0
1789469560.8437161,2081,2878,0
1789469560.8437681,1996,2880,0
1789469560.8451421,1940,2879,0
1789469560.847845,2027,2878,0
1789469560.855975,2091,2879,0
1789469560.858573,2022,2879,0
1789469560.861257,2016,2881,0
1789469560.862488,2007,2878,0
1789469560.862772,2250,2879,0
1789469560.863414,2220,2881,0
1789469560.86566,1978,2878,0
1789469560.868035,2055,2879,0
1789469560.871444,2154,2880,0
1789469560.87181,2172,2879,0
1789469560.872086,2092,2879,0
1789469560.872471,2035,2879,0
1789469560.875458,1959,2878,0
1789469560.8755252,2052,2878,0
1789469560.8768551,2076,2880,0
1789469560.8793259,2078,2877,0
1789469560.881718,2150,2879,0
1789469560.883106,2056,2879,0
1789469560.8855271,2142,2881,0
1789469560.8868768,2135,2879,0
1789469560.889704,1967,2879,0
1789469560.891062,2103,2879,0
1789469560.893749,1993,2879,0
1789469560.8950841,1907,2879,0
1789469560.897675,1969,2878,0
1789469560.899043,2144,2878,0
1789469560.9014132,2183,2881,0
1789469560.9038,2125,2879,0
1789469560.905134,2125,2878,0
1789469560.9075031,2133,2879,0
1789469560.908861,2029,2880,0
1789469560.911469,1910,2877,0
1789469560.9139378,2081,2878,0
1789469560.9152792,2206,2878,0
1789469560.917656,2108,2879,0
1789469560.919041,2107,2880,0
1789469560.926296,2031,2878,0
1789469560.927516,2045,2879,0
1789469560.9277492,2049,2879,0
1789469560.930847,1937,2877,0
1789469560.931287,1924,2880,0
1789469560.931495,2094,2879,0
1789469560.934576,2168,2880,0
1789469560.936193,2075,2880,0
1789469560.9433799,2130,2880,0
1789469560.943722,1909,2879,0
1789469560.9468539,2305,2880,0
1789469560.947047,2003,2879,0
1789469560.9471118,1912,2878,0
1789469560.947169,1999,2880,0
1789469560.949609,2165,2879,0
1789469560.950926,2131,2880,0
1789469560.960629,2074,2879,0
1789469560.962755,1978,2878,0
1789469560.963104,2017,2878,0
1789469560.9635,2028,2879,0
1789469560.966037,2036,2879,0
1789469560.9667652,2058,2879,0
1789469560.9675908,1981,2879,0
1789469560.968738,2168,2879,0
1789469560.9694378,2091,2880,0
1789469560.975805,2128,2879,0
1789469560.979028,2096,2879,0
1789469560.9790862,2171,2879,0
1789469560.979137,2071,2881,0
1789469560.979188,2067,2878,0
1789469560.981492,2146,2879,0
1789469560.982838,2006,2880,0
1789469560.98536,2061,2878,0
1789469560.987711,2076,2879,0
1789469560.989138,2025,2880,0
1789469560.991523,2111,2879,0
1789469560.9929652,2002,2880,0
1789469560.995442,1915,2878,0
1789469560.997845,1926,2878,0
1789469560.998933,2227,2880,0
1789469561.0015218,2150,2881,0
1789469561.002841,2025,2880,0
1789469561.005424,2090,2879,0
1789469561.007655,2175,2879,0
1789469561.0088089,2054,2879,0
1789469561.010988,2032,2878,0
1789469561.013334,2066,2879,0
1789469561.015685,2068,2879,0
1789469561.017796,2166,2878,0
1789469561.019114,2120,2880,0
1789469561.0212219,2012,2878,0
1789469561.023443,2181,2878,0
1789469561.031332,2129,2880,0
1789469561.0320902,2072,2880,0
1789469561.032966,1949,2879,0
1789469561.033689,2039,2880,0
1789469561.0339131,2234,2879,0
1789469561.039305,2183,2880,0
1789469561.0400388,1996,2880,0
1789469561.04152,2091,2879,0
1789469561.043298,2129,2878,0
1789469561.046093,2039,2879,0
1789469561.046397,2005,2878,0
1789469561.049463,2028,2879,0
1789469561.049747,2083,2878,0
1789469561.052356,2215,2881,0
1789469561.053525,1956,2879,0
1789469561.054958,1941,2878,0
1789469561.0576,2181,2879,0
1789469561.05899,2172,2880,0
1789469561.0671759,1901,2878,0
1789469561.06805,1996,2879,0
1789469561.068316,2144,2879,0
1789469561.069558,2127,2878,0
1789469561.069716,2324,2881,0
1789469561.073788,1911,2879,0
1789469561.074369,2266,2879,0
1789469561.076046,1833,2878,0
1789469561.077636,1831,2877,0
1789469561.080308,2017,2879,0
1789469561.087518,1957,2878,0
1789469561.0879948,2285,2880,0
1789469561.088474,2398,2879,0
1789469561.088543,2077,2880,0
1789469561.090854,1959,2879,0
1789469561.0912268,2023,2879,0
1789469561.093764,1857,2879,0
1789469561.095129,1938,2879,0
1789469561.0977511,2087,2879,0
1789469561.0988789,1904,2879,0
1789469561.1013,2189,2880,0
1789469561.103415,2281,2879,0
1789469561.106047,2014,2878,0
1789469561.10738,2124,2880,0
1789469561.110005,2315,2879,0
1789469561.111081,1829,2879,0
1789469561.1134279,2415,2882,0
1789469561.115517,2010,2878,0
1789469561.1168609,2137,2879,0
1789469561.118965,1893,2877,0
1789469561.121299,1979,2878,0
1789469561.123393,2018,2879,0
1789469561.124833,2036,2879,0
1789469561.1272142,1918,2877,0
1789469561.129557,1845,2878,0
1789469561.130937,2150,2878,0
1789469561.139746,2073,2879,0
1789469561.1412249,2044,2880,0
1789469561.1438878,2032,2880,0
1789469561.1442041,2250,2880,0
1789469561.146645,1861,2878,0
1789469561.1473851,2105,2880,0
1789469561.14865,1837,2879,0
1789469561.149408,1966,2879,0
1789469561.150145,2067,2880,0
1789469561.1534138,2019,2878,0
1789469561.156485,1941,2879,0
1789469561.1567402,1966,2879,0
1789469561.1572218,2241,2880,0
1789469561.159749,2079,2879,0
1789469561.161087,1882,2878,0
1789469561.163212,2049,2880,0
1789469561.165811,2171,2880,0
1789469561.173056,2126,2877,0
1789469561.174201,2180,2879,0
1789469561.174874,1833,2879,0
1789469561.1769652,1909,2880,0
1789469561.1794071,2199,2880,0
1789469561.180502,2060,2876,0
1789469561.18131,2275,2882,0
1789469561.1814709,2213,2880,0
1789469561.183444,2079,2879,0
1789469561.185761,1998,2878,0
1789469561.189131,1963,2880,0
1789469561.189516,2006,2878,0
1789469561.192648,2139,2879,0
1789469561.192888,1920,2877,0
1789469561.195231,1701,2878,0
1789469561.197322,1986,2879,0
1789469561.199849,2198,2878,0
1789469561.200931,2295,2880,0
1789469561.20319,2069,2880,0
1789469561.205562,2072,2878,0
1789469561.206882,2165,2878,0
1789469561.209226,2105,2879,0
1789469561.2117991,1986,2878,0
1789469561.2128808,2074,2879,0
1789469561.215462,2203,2880,0
1789469561.218037,2190,2880,0
1789469561.219352,2091,2879,0
1789469561.2207391,1956,2878,0
1789469561.2228448,2224,2879,0
1789469561.2254238,2192,2880,0
1789469561.227811,2092,2880,0
1789469561.2288818,2054,2878,0
1789469561.2312078,1997,2879,0
1789469561.233781,2030,2878,0
1789469561.235096,2236,2880,0
1789469561.237199,2073,2879,0
1789469561.244101,2139,2879,0
1789469561.245982,2263,2880,0
1789469561.2461739,2252,2880,0
1789469561.246988,2514,2881,0
1789469561.249085,2258,2880,0
1789469561.249434,2099,2879,0
1789469561.2522619,2035,2878,0
1789469561.253834,1978,2878,0
1789469561.25765,1857,2876,0
1789469561.257813,1805,2877,0
1789469561.261062,1953,2878,0
1789469561.2613661,1805,2877,0
1789469561.264538,1714,2878,0
1789469561.2660081,2154,2878,0
1789469561.267094,2343,2881,0
1789469561.269651,2374,2881,0
1789469561.275334,2165,2880,0
1789469561.277198,2281,2879,0
1789469561.277344,2294,2880,0
1789469561.279697,2134,2879,0
1789469561.281995,2059,2878,0
1789469561.283145,2052,2879,0
1789469561.283894,2101,2878,0
1789469561.285515,2120,2877,0
1789469561.2887821,1865,2878,0
1789469561.29198,2222,2879,0
1789469561.292253,2226,2879,0
1789469561.295331,2046,2878,0
1789469561.295584,2029,2878,0
1789469561.2969012,1922,2878,0
1789469561.299486,2103,2879,0
1789469561.300809,2095,2879,0
1789469561.303392,2235,2880,0
1789469561.3047192,2144,2879,0
1789469561.306973,2098,2877,0
1789469561.3095522,1869,2879,0
1789469561.310695,1793,2877,0
1789469561.313031,2011,2878,0
1789469561.3153799,2080,2879,0
1789469561.316731,2264,2880,0
1789469561.318829,2102,2879,0
1789469561.321409,2203,2879,0
1789469561.3237371,2012,2879,0
1789469561.324805,2044,2879,0
1789469561.327378,1954,2878,0
1789469561.328695,1881,2879,0
1789469561.331032,2078,2878,0
1789469561.3331242,2092,2878,0
1789469561.335698,2056,2880,0
1789469561.336946,1875,2878,0
1789469561.3395169,1837,2879,0
1789469561.3409998,2286,2879,0
1789469561.347685,2205,2879,0
1789469561.348353,2110,2879,0
1789469561.349005,2062,2878,0
1789469561.349787,1842,2878,0
1789469561.351578,2369,2881,0
1789469561.3539999,2093,2880,0
1789469561.35595,1931,2878,0
1789469561.357728,2198,2879,0
1789469561.3598819,2091,2880,0
1789469561.363411,1840,2878,0
1789469561.363581,1834,2878,0
1789469561.366824,2142,2879,0
1789469561.3668869,2177,2878,0
1789469561.3694642,1980,2878,0
1789469561.371711,1831,2879,0
1789469561.377484,2019,2877,0
1789469561.3781471,2017,2878,0
1789469561.378867,2032,2879,0
1789469561.3800519,2110,2878,0
1789469561.3820832,2155,2879,0
1789469561.3848839,2161,2879,0
1789469561.385565,2251,2881,0
1789469561.387112,2150,2879,0
1789469561.390111,2175,2879,0
1789469561.393545,1986,2880,0
1789469561.3937511,1916,2876,0
1789469561.396214,1861,2878,0
1789469561.397331,2010,2879,0
1789469561.3987021,2238,2878,0
1789469561.401284,2088,2878,0
1789469561.40362,2148,2879,0
1789469561.4049401,2110,2878,0
1789469561.407281,2341,2878,0
1789469561.409392,2197,2880,0
1789469561.411728,2055,2877,0
1789469561.413047,2056,2879,0
1789469561.415377,1939,2878,0
1789469561.417706,2070,2878,0
1789469561.41903,2255,2879,0
1789469561.4213629,2097,2879,0
1789469561.422691,1943,2878,0
1789469561.4248042,2026,2879,0
1789469561.427382,1913,2878,0
1789469561.429513,1959,2879,0
1789469561.431893,2115,2879,0
1789469561.43297,2233,2879,0
1789469561.435062,2089,2880,0
1789469561.4373062,1957,2877,0
1789469561.439399,1986,2879,0
1789469561.447642,2110,2879,0
1789469561.448437,2111,2880,0
1789469561.449217,2046,2877,0
1789469561.449861,2022,2878,0
1789469561.4505758,2117,2879,0
1789469561.455342,2205,2880,0
1789469561.456001,2111,2880,0
1789469561.456707,2066,2878,0
1789469561.45748,2150,2879,0
1789469561.4589639,2095,2879,0
1789469561.46108,1903,2877,0
1789469561.464604,2046,2878,0
1789469561.46489,2186,2879,0
1789469561.468192,2123,2877,0
1789469561.469285,2158,2881,0
1789469561.4713979,1984,2878,0
1789469561.4737349,1986,2879,0
1789469561.480484,1999,2878,0
1789469561.4813771,1940,2877,0
1789469561.482602,1869,2879,0
1789469561.48464,2067,2879,0
1789469561.4850261,2197,2879,0
1789469561.4873421,2159,2880,0
1789469561.488655,2012,2879,0
1789469561.489395,2091,2879,0
1789469561.4934971,2259,2880,0
1789469561.497059,2257,2881,0
1789469561.497351,1995,2880,0
1789469561.497822,1975,2879,0
1789469561.501458,2007,2880,0
1789469561.501518,2157,2878,0
1789469561.502848,2104,2880,0
1789469561.505431,2005,2880,0
1789469561.506755,2071,2879,0
1789469561.509109,2034,2878,0
1789469561.511453,1929,2877,0
1789469561.5138109,2014,2877,0
1789469561.514883,2172,2880,0
1789469561.517215,2080,2877,0
1789469561.519542,1955,2876,0
1789469561.520888,2024,2878,0
1789469561.522979,2154,2880,0
1789469561.525079,2164,2879,0
1789469561.527675,2009,2877,0
1789469561.528992,1947,2879,0
1789469561.5310779,2021,2879,0
1789469561.53365,2166,2878,0
1789469561.534752,2143,2880,0
1789469561.537322,2055,2879,0
1789469561.538736,2015,2879,0
1789469561.540863,2089,2878,0
1789469561.5434089,2064,2879,0
1789469561.544728,2033,2877,0
1789469561.552892,1998,2878,0
1789469561.5535629,2176,2879,0
1789469561.554849,2139,2876,0
1789469561.5573912,2066,2879,0
1789469561.55802,1994,2879,0
1789469561.560361,2058,2878,0
1789469561.560988,1948,2877,0
1789469561.562141,2064,2877,0
1789469561.564394,2078,2878,0
1789469561.566468,2001,2879,0
1789469561.5702279,2136,2878,0
1789469561.5703769,2100,2879,0
1789469561.5729458,2075,2878,0
1789469561.5738828,2096,2879,0
1789469561.575205,2201,2879,0
1789469561.5776808,2129,2880,0
1789469561.5789928,1925,2879,0
1789469561.585769,1954,2879,0
1789469561.587015,2133,2879,0
1789469561.587204,2183,2881,0
1789469561.589288,2121,2880,0
1789469561.589636,2114,2879,0
1789469561.592614,2129,2877,0
1789469561.593291,2043,2879,0
1789469561.595237,1998,2878,0
1789469561.597787,2060,2879,0
1789469561.601256,2098,2878,0
1789469561.6015759,2123,2879,0
1789469561.604913,2134,2880,0
1789469561.6049762,2038,2879,0
1789469561.607573,2045,2878,0
1789469561.608907,1964,2879,0
1789469561.611676,1924,2877,0
1789469561.6130822,2098,2879,0
1789469561.615357,2124,2880,0
1789469561.617707,2333,2880,0
1789469561.6187992,2137,2879,0
1789469561.6212108,2114,2879,0
1789469561.623669,2111,2879,0
1789469561.6250591,2190,2880,0
1789469561.627409,1939,2877,0
1789469561.629586,1942,2878,0
1789469561.630901,2068,2879,0
1789469561.633263,2169,2878,0
1789469561.63568,2163,2879,0
1789469561.637002,2036,2878,0
1789469561.639266,2015,2879,0
1789469561.641622,2171,2879,0
1789469561.642717,2136,2880,0
1789469561.645298,1984,2879,0
1789469561.647646,2026,2878,0
1789469561.648729,2138,2878,0
1789469561.651087,2127,2878,0
1789469561.6604311,2051,2880,0
1789469561.66174,1992,2879,0
1789469561.662508,2088,2879,0
1789469561.664512,2173,2879,0
1789469561.665003,1957,2878,0
1789469561.66735,2058,2879,0
1789469561.668108,2190,2879,0
1789469561.668899,2185,2879,0
1789469561.669606,2094,2880,0
1789469561.673781,2061,2878,0
1789469561.674231,2026,2878,0
1789469561.677567,2105,2879,0
1789469561.677989,2031,2879,0
1789469561.681304,2031,2879,0
1789469561.681424,2121,2879,0
1789469561.683554,2109,2880,0
1789469561.6858969,2231,2881,0
1789469561.6870499,2115,2879,0
1789469561.693693,1976,2878,0
1789469561.6951199,2099,2880,0
1789469561.696037,2242,2881,0
1789469561.6986299,2051,2878,0
1789469561.698842,2069,2880,0
1789469561.699172,2268,2878,0
1789469561.702225,2192,2880,0
1789469561.70495,2195,2880,0
1789469561.705749,2089,2879,0
1789469561.7081869,2188,2879,0
1789469561.711645,2191,2879,0
1789469561.7118442,1941,2877,0
1789469561.714497,1875,2879,0
1789469561.715853,2119,2879,0
1789469561.716937,2336,2880,0
1789469561.719052,2053,2878,0
1789469561.7211552,2262,2878,0
1789469561.7233138,2187,2878,0
1789469561.7256598,2382,2880,0
1789469561.726743,2037,2879,0
1789469561.728842,2002,2878,0
1789469561.7309408,2090,2880,0
1789469561.7335172,2155,2878,0
1789469561.7356842,2181,2880,0
1789469561.736779,2042,2880,0
1789469561.739115,2203,2879,0
1789469561.7414558,2259,2880,0
1789469561.74277,2267,2879,0
1789469561.745343,2088,2877,0
1789469561.746612,2018,2879,0
1789469561.749106,2255,2879,0
1789469561.751303,2254,2877,0
1789469561.753655,2200,2879,0
1789469561.754973,2096,2879,0
1789469561.757559,2160,2878,0
1789469561.758694,2164,2879,0
1789469561.761044,2055,2877,0
1789469561.76768,2107,2879,0
1789469561.768826,2119,2879,0
1789469561.769454,2232,2878,0
1789469561.770029,2400,2880,0
1789469561.771897,2255,2879,0
1789469561.7745001,2159,2880,0
1789469561.775916,2056,2879,0
1789469561.777309,2000,2877,0
1789469561.779132,2002,2878,0
1789469561.782231,2129,2879,0
1789469561.7851362,2246,2879,0
1789469561.7851899,2130,2880,0
1789469561.7874591,1992,2877,0
1789469561.788827,2052,2878,0
1789469561.79142,2176,2878,0
1789469561.7927082,2173,2880,0
1789469561.7951639,2138,2878,0
1789469561.79749,2241,2880,0
1789469561.7987971,2308,2879,0
1789469561.801125,2108,2878,0
1789469561.803355,2162,2879,0
1789469561.80577,2016,2879,0
1789469561.80708,2153,2880,0
1789469561.8085618,2169,2879,0
1789469561.811125,2083,2879,0
1789469561.813448,2048,2880,0
1789469561.814755,2274,2878,0
1789469561.817317,2274,2879,0
1789469561.818594,2190,2880,0
1789469561.8207061,2217,2879,0
1789469561.823044,2208,2878,0
1789469561.831019,2100,2878,0
1789469561.8311958,2003,2879,0
1789469561.832192,1910,2878,0
1789469561.8323379,2156,2879,0
1789469561.8343658,2170,2879,0
1789469561.836877,2152,2880,0
1789469561.838451,2094,2879,0
1789469561.839094,2004,2877,0
1789469561.841861,2104,2879,0
1789469561.8448918,2002,2880,0
1789469561.8450618,2072,2878,0
1789469561.847858,2008,2878,0
1789469561.849171,2079,2879,0
1789469561.851512,2189,2878,0
1789469561.8527842,2147,2880,0
1789469561.8581262,2033,2879,0
1789469561.858668,2159,2878,0
1789469561.8593469,2103,2879,0
1789469561.8618681,2074,2878,0
1789469561.864115,2036,2878,0
1789469561.865518,2166,2879,0
1789469561.867231,2186,2880,0
1789469561.86922,2066,2879,0
1789469561.8721762,2031,2878,0
1789469561.875146,2062,2878,0
1789469561.8751948,2136,2879,0
1789469561.876569,2054,2880,0
1789469561.878897,1989,2878,0
1789469561.8810701,2022,2878,0
1789469561.883209,2120,2879,0
1789469561.8853,2221,2881,0
1789469561.887629,2104,2879,0
1789469561.8889441,2034,2878,0
1789469561.891509,2127,2879,0
1789469561.8925729,2127,2880,0
1789469561.894899,2078,2877,0
1789469561.897229,2089,2879,0
1789469561.8995578,2136,2879,0
1789469561.9006279,2142,2877,0
1789469561.902944,2148,2879,0
1789469561.9055092,2065,2877,0
1789469561.906566,2071,2879,0
1789469561.9086668,2177,2879,0
1789469561.911242,2003,2877,0
1789469561.9126139,1955,2879,0
1789469561.919969,2047,2879,0
1789469561.920568,2144,2878,0
1789469561.92116,2130,2881,0
1789469561.923506,2006,2879,0
1789469561.923809,2074,2879,0
1789469561.925824,2145,2878,0
1789469561.9276679,2015,2880,0
1789469561.929139,1918,2877,0
1789469561.9312289,2020,2878,0
1789469561.934391,2095,2879,0
1789469561.937048,2095,2878,0
1789469561.937271,2062,2881,0
1789469561.938581,2037,2879,0
1789469561.940908,2082,2880,0
1789469561.94648,2067,2879,0
1789469561.947619,1999,2877,0
1789469561.948216,2064,2879,0
1789469561.950329,2173,2880,0
1789469561.9523652,2199,2878,0
1789469561.953724,2147,2879,0
1789469561.9553668,2035,2880,0
1789469561.957248,2036,2878,0
1789469561.9601102,2138,2879,0
1789469561.962942,1995,2878,0
1789469561.963027,1956,2880,0
1789469561.9655979,2057,2879,0
1789469561.966667,2130,2879,0
1789469561.9692469,2130,2880,0
1789469561.9706292,2058,2879,0
1789469561.973203,2036,2879,0
1789469561.9753852,2114,2879,0
1789469561.977752,1988,2879,0
1789469561.9788249,1978,2878,0
1789469561.981154,2077,2879,0
1789469561.983729,2129,2880,0
1789469561.9847932,2168,2880,0
1789469561.986877,2077,2879,0
1789469561.989177,2005,2879,0
1789469561.990605,2101,2879,0
1789469561.9931798,2120,2880,0
1789469561.9955058,2035,2877,0
1789469561.996814,2038,2879,0
1789469561.9990542,2126,2879,0
1789469562.001481,2161,2877,0
1789469562.0076458,2191,2880,0
1789469562.008249,2101,2880,0
1789469562.008855,2132,2879,0
1789469562.009397,2186,2880,0
1789469562.011039,2035,2879,0
1789469562.013628,1966,2879,0
1789469562.015336,2087,2880,0
1789469562.017928,2166,2879,0
1789469562.020925,2105,2880,0
1789469562.02106,2041,2879,0
1789469562.023713,2054,2878,0
1789469562.0250251,2106,2878,0
1789469562.0275981,2007,2880,0
1789469562.0332448,1906,2878,0
1789469562.033382,2014,2878,0
1789469562.033948,2137,2879,0
1789469562.036093,2158,2881,0
1789469562.037898,2070,2879,0
1789469562.0402792,2024,2880,0
1789469562.042367,2110,2879,0
1789469562.0449212,2095,2879,0
1789469562.045187,2074,2878,0
1789469562.0477061,2106,2879,0
1789469562.049012,2184,2878,0
1789469562.051368,2183,2878,0
1789469562.053482,2138,2879,0
1789469562.0546591,2063,2878,0
1789469562.056993,2095,2879,0
1789469562.059211,2103,2878,0
1789469562.060574,1958,2878,0
1789469562.063134,1931,2879,0
1789469562.0654762,2060,2879,0
1789469562.0667782,2161,2878,0
1789469562.069176,2126,2881,0
1789469562.071771,2053,2878,0
1789469562.0730739,2018,2879,0
1789469562.0753899,2109,2879,0
1789469562.07669,2003,2880,0
1789469562.079016,1961,2878,0
1789469562.081451,2035,2879,0
1789469562.08273,2134,2879,0
1789469562.08934,2154,2880,0
1789469562.089893,2099,2880,0
1789469562.091766,2072,2879,0
1789469562.09196,2112,2879,0
1789469562.09378,2114,2880,0
1789469562.09538,2036,2877,0
1789469562.09801,2012,2879,0
1789469562.100768,2120,2878,0
1789469562.100959,2184,2878,0
1789469562.103363,2072,2879,0
1789469562.104672,2039,2879,0
1789469562.1069891,2110,2878,0
1789469562.11248,2091,2878,0
1789469562.1131608,1993,2878,0
1789469562.1145868,2008,2878,0
1789469562.116134,2114,2879,0
1789469562.118072,2159,2879,0
1789469562.119736,2128,2879,0
1789469562.122414,2088,2879,0
1789469562.125062,2072,2878,0
1789469562.12531,2173,2878,0
1789469562.127809,2103,2880,0
1789469562.128884,1993,2878,0
1789469562.131284,2053,2878,0
1789469562.132604,2152,2878,0
1789469562.135173,2134,2878,0
1789469562.137738,2068,2880,0
1789469562.138803,2027,2878,0
1789469562.1411252,2095,2879,0
1789469562.143438,2066,2879,0
1789469562.144747,1948,2878,0
1789469562.147309,1999,2879,0
1789469562.149384,2090,2879,0
1789469562.1506078,2115,2878,0
1789469562.152684,2059,2880,0
1789469562.154897,2017,2878,0
1789469562.157213,2028,2878,0
1789469562.158595,2127,2879,0
1789469562.160908,1987,2877,0
1789469562.163466,1991,2879,0
1789469562.168017,2121,2879,0
1789469562.16909,2159,2878,0
1789469562.1792471,2117,2881,0
1789469562.1794791,2068,2880,0
1789469562.180618,2085,2879,0
1789469562.1827579,2158,2878,0
1789469562.185453,2029,2880,0
1789469562.185604,1937,2878,0
1789469562.185836,2052,2878,0
1789469562.186002,2169,2879,0
1789469562.186257,2176,2880,0
1789469562.188763,2103,2878,0
1789469562.188879,2098,2879,0
1789469562.19145,2181,2879,0
1789469562.192756,2088,2880,0
1789469562.198713,1984,2877,0
1789469562.199669,2008,2879,0
1789469562.2005792,2115,2878,0
1789469562.202069,2180,2879,0
1789469562.204406,2042,2880,0
1789469562.206418,2019,2878,0
1789469562.2108228,2062,2879,0
1789469562.211054,2105,2878,0
1789469562.211215,1963,2878,0
1789469562.213537,1951,2878,0
1789469562.21487,2172,2879,0
1789469562.2174459,2108,2878,0
1789469562.219767,2071,2880,0
1789469562.2210739,2054,2878,0
1789469562.22341,2093,2880,0
1789469562.2254982,2150,2879,0
1789469562.2266161,2017,2878,0
1789469562.2289422,2000,2879,0
1789469562.2312582,2011,2879,0
1789469562.232615,2073,2878,0
1789469562.23493,2032,2877,0
1789469562.237022,2125,2880,0
1789469562.239586,2062,2877,0
1789469562.24089,2170,2879,0
1789469562.243374,2035,2878,0
1789469562.244677,2110,2877,0
1789469562.247236,2156,2878,0
1789469562.25482,2155,2880,0
1789469562.255389,2125,2878,0
1789469562.256926,2208,2878,0
1789469562.257115,1912,2878,0
1789469562.257323,2193,2878,0
1789469562.2590458,2169,2880,0
1789469562.2632341,1963,2877,0
1789469562.2656882,2054,2879,0
1789469562.266001,1963,2878,0
1789469562.268332,2194,2879,0
1789469562.269449,2258,2881,0
1789469562.270752,2147,2879,0
1789469562.27693,2351,2879,0
1789469562.277962,2132,2878,0
1789469562.278898,1979,2879,0
1789469562.280401,1994,2878,0
1789469562.282298,2024,2880,0
1789469562.2837849,2106,2878,0
1789469562.286431,2258,2881,0
1789469562.288975,1962,2879,0
1789469562.289193,1972,2879,0
1789469562.291543,2147,2879,0
1789469562.292724,2089,2880,0
1789469562.295051,1989,2878,0
1789469562.297617,2059,2880,0
1789469562.298671,2123,2879,0
1789469562.300819,1966,2878,0
1789469562.303148,2042,2877,0
1789469562.305242,2054,2879,0
1789469562.307572,2095,2879,0
1789469562.308876,2252,2879,0
1789469562.3111959,1914,2877,0
1789469562.313266,1908,2879,0
1789469562.315348,2228,2879,0
1789469562.3166459,2052,2879,0
1789469562.318778,2178,2880,0
1789469562.321336,1958,2879,0
1789469562.323646,1953,2878,0
1789469562.3247051,2087,2880,0
1789469562.3271492,2111,2880,0
1789469562.33164,1979,2878,0
1789469562.3321621,2034,2880,0
1789469562.334848,2056,2879,0
1789469562.335038,2039,2877,0
1789469562.3387032,2103,2879,0
1789469562.339312,2049,2879,0
1789469562.341543,1986,2879,0
1789469562.344002,2006,2879,0
1789469562.346037,1830,2877,0
1789469562.3473542,2000,2879,0
1789469562.349492,2122,2878,0
1789469562.350861,2303,2882,0
1789469562.35318,2196,2881,0
1789469562.357789,2001,2878,0
1789469562.358338,1950,2879,0
1789469562.360907,2107,2879,0
1789469562.361109,2128,2880,0
1789469562.36335,1800,2878,0
1789469562.364814,2056,2878,0
1789469562.367115,2146,2879,0
1789469562.369629,2068,2878,0
1789469562.371945,2095,2879,0
1789469562.3730109,2008,2878,0
1789469562.3750908,2038,2878,0
1789469562.377409,1975,2879,0
1789469562.378718,1922,2877,0
1789469562.381025,2011,2878,0
1789469562.383307,2119,2879,0
1789469562.385633,2173,2881,0
1789469562.386932,2045,2880,0
1789469562.3894541,2030,2879,0
1789469562.3907552,2144,2878,0
1789469562.393312,2113,2879,0
1789469562.3956292,1824,2878,0
1789469562.396736,1924,2879,0
1789469562.399037,2161,2879,0
1789469562.4011111,2213,2878,0
1789469562.403426,2196,2880,0
1789469562.404602,2053,2878,0
1789469562.411531,2023,2879,0
1789469562.412249,2155,2880,0
1789469562.413195,2043,2878,0
1789469562.4137769,2027,2880,0
1789469562.415265,2010,2879,0
1789469562.417532,2030,2880,0
1789469562.419101,1949,2878,0
1789469562.42147,1980,2880,0
1789469562.424101,2029,2879,0
1789469562.426076,2099,2879,0
1789469562.4273841,2019,2879,0
1789469562.4295192,1974,2878,0
1789469562.435338,2041,2879,0
1789469562.436231,2182,2879,0
1789469562.436376,2293,2880,0
1789469562.438144,2143,2879,0
1789469562.4401002,1891,2879,0
1789469562.441559,2061,2879,0
1789469562.4443488,2043,2879,0
1789469562.446722,1906,2877,0
1789469562.446959,1941,2879,0
1789469562.449302,2026,2878,0
1789469562.450617,2062,2877,0
1789469562.4531798,2110,2879,0
1789469562.4545522,2044,2879,0
1789469562.4571252,2110,2879,0
1789469562.4597042,2090,2878,0
1789469562.4607732,2022,2877,0
1789469562.4630852,1991,2880,0
1789469562.465421,2057,2878,0
1789469562.466723,2088,2879,0
1789469562.4690502,2063,2878,0
1789469562.471124,2037,2879,0
1789469562.473378,2047,2879,0
1789469562.4746728,1988,2879,0
1789469562.477227,1979,2879,0
1789469562.4785721,2026,2878,0
1789469562.481133,2180,2878,0
1789469562.487881,2207,2879,0
1789469562.4887822,2135,2878,0
1789469562.4893272,2069,2879,0
1789469562.489433,2002,2878,0
1789469562.491383,2037,2878,0
1789469562.493981,2081,2879,0
1789469562.495314,1914,2878,0
1789469562.497514,1893,2879,0
1789469562.499904,2006,2878,0
1789469562.502136,2058,2878,0
1789469562.503445,2112,2880,0
1789469562.504577,2170,2879,0
1789469562.510848,2171,2879,0
1789469562.5121,2146,2879,0
1789469562.512235,1887,2877,0
1789469562.51364,1969,2879,0
1789469562.5150468,2049,2879,0
1789469562.517036,2100,2878,0
1789469562.5191748,2190,2880,0
1789469562.521343,2120,2878,0
1789469562.523215,2064,2878,0
1789469562.525536,2166,2879,0
1789469562.526834,2090,2879,0
1789469562.529234,1958,2877,0
1789469562.531557,2121,2879,0
1789469562.5328152,2223,2878,0
1789469562.535127,2208,2880,0
1789469562.53744,2023,2879,0
1789469562.538749,1982,2879,0
1789469562.541307,2097,2879,0
1789469562.543612,2115,2879,0
1789469562.544678,2051,2878,0
1789469562.5470579,2056,2879,0
1789469562.5493739,2149,2878,0
1789469562.550671,2081,2878,0
1789469562.5532238,2130,2878,0
1789469562.5553,2011,2879,0
1789469562.5604548,2002,2879,0
1789469562.560937,2147,2880,0
1789469562.5610712,1979,2876,0
1789469562.563047,1939,2879,0
1789469562.565121,2038,2879,0
1789469562.5666418,2136,2878,0
1789469562.568948,2045,2878,0
1789469562.57113,1965,2880,0
1789469562.573538,2034,2879,0
1789469562.574848,2067,2879,0
1789469562.581287,2046,2880,0
1789469562.582207,2045,2878,0
1789469562.582956,2118,2879,0
1789469562.583114,2114,2879,0
1789469562.586113,2141,2878,0
1789469562.587937,2101,2879,0
1789469562.590134,2151,2879,0
1789469562.592203,2124,2878,0
1789469562.594015,2063,2880,0
1789469562.5953238,1977,2877,0
1789469562.5966249,1903,2879,0
1789469562.598942,2059,2880,0
1789469562.601504,2198,2880,0
1789469562.6028008,2182,2881,0
1789469562.605299,2066,2879,0
1789469562.607442,1977,2879,0
1789469562.608748,2040,2878,0
1789469562.6113029,1969,2877,0
1789469562.613365,1928,2879,0
1789469562.615686,2012,2878,0
1789469562.616988,2088,2879,0
1789469562.619384,2049,2877,0
1789469562.621697,1938,2880,0
1789469562.622993,2091,2877,0
1789469562.625547,2200,2879,0
1789469562.6266031,1997,2878,0
1789469562.631892,2059,2878,0
1789469562.632053,2030,2878,0
1789469562.635039,2116,2879,0
1789469562.635155,2021,2877,0
1789469562.637342,2097,2880,0
1789469562.6391091,2109,2880,0
1789469562.640991,2185,2879,0
1789469562.6432278,1823,2877,0
1789469562.6454341,1887,2878,0
1789469562.646624,1998,2878,0
1789469562.649205,2283,2879,0
1789469562.653327,2388,2881,0
1789469562.655175,2076,2878,0
1789469562.656746,1931,2879,0
1789469562.658476,2058,2879,0
1789469562.6590111,2050,2879,0
1789469562.660722,2103,2880,0
1789469562.664588,2009,2880,0
1789469562.664841,2064,2880,0
1789469562.6667562,2179,2879,0
1789469562.6692438,2044,2878,0
1789469562.67056,1957,2879,0
1789469562.6730082,1969,2878,0
1789469562.675331,2042,2879,0
1789469562.6776488,2004,2879,0
1789469562.678944,1952,2878,0
1789469562.681497,1953,2880,0
1789469562.682793,2012,2878,0
1789469562.685111,2312,2881,0
1789469562.6871839,1981,2878,0
1789469562.688589,2013,2878,0
1789469562.6911528,2167,2879,0
1789469562.692544,2394,2881,0
1789469562.6950998,1995,2877,0
1789469562.6974201,1793,2880,0
1789469562.698716,2018,2879,0
1789469562.704648,2118,2879,0
1789469562.705167,2060,2881,0
1789469562.705627,2163,2879,0
1789469562.707896,1880,2879,0
1789469562.71045,2084,2879,0
1789469562.711009,2089,2879,0
1789469562.713813,1924,2878,0
1789469562.71601,2233,2878,0
1789469562.717917,1911,2879,0
1789469562.718976,1953,2877,0
1789469562.7215118,1922,2877,0
1789469562.726414,2027,2879,0
1789469562.72689,2070,2879,0
1789469562.727374,1914,2878,0
1789469562.729471,1714,2878,0
1789469562.731138,1848,2879,0
1789469562.7328892,2201,2879,0
1789469562.7350268,2222,2880,0
1789469562.737258,2105,2880,0
1789469562.739407,1986,2878,0
1789469562.740713,2318,2880,0
1789469562.743028,2235,2879,0
1789469562.7453618,1931,2878,0
1789469562.7466629,1832,2878,0
1789469562.7487411,2101,2879,0
1789469562.751054,2131,2879,0
1789469562.753608,2030,2879,0
1789469562.754904,2045,2879,0
1789469562.757226,1810,2878,0
1789469562.7585752,2112,2879,0
1789469562.760658,2084,2879,0
1789469562.763212,2077,2879,0
1789469562.765524,2040,2879,0
1789469562.7668328,1969,2879,0
1789469562.769102,2031,2878,0
1789469562.77141,1897,2877,0
1789469562.776078,1993,2879,0
1789469562.776576,1934,2879,0
1789469562.777156,1813,2877,0
1789469562.7791529,1726,2878,0
1789469562.781239,2258,2879,0
1789469562.783426,2251,2878,0
1789469562.784887,2345,2881,0
1789469562.7870321,2166,2879,0
1789469562.7893,1930,2879,0
1789469562.790616,2161,2880,0
1789469562.7929301,2116,2880,0
1789469562.796907,1911,2879,0
1789469562.7973561,1834,2879,0
1789469562.7998111,2019,2879,0
1789469562.801806,2059,2880,0
1789469562.803227,2172,2881,0
1789469562.805293,2211,2878,0
1789469562.807431,2146,2879,0
1789469562.8096519,2075,2877,0
1789469562.810963,2003,2877,0
1789469562.813347,2002,2880,0
1789469562.814645,2196,2879,0
1789469562.8167198,2200,2878,0
1789469562.819041,2010,2877,0
1789469562.821592,2138,2879,0
1789469562.822888,2120,2879,0
1789469562.825574,2148,2879,0
1789469562.82672,2165,2879,0
1789469562.829298,1894,2878,0
1789469562.83163,1951,2879,0
1789469562.8329291,2251,2879,0
1789469562.835503,2366,2880,0
1789469562.836583,2111,2880,0
1789469562.8392808,1864,2878,0
1789469562.841558,1821,2878,0
1789469562.842857,2167,2880,0
1789469562.861691,2100,2879,0
1789469562.861737,2206,2878,0
1789469562.861774,2108,2879,0
1789469562.861808,1998,2878,0
1789469562.8618429,2148,2879,0
1789469562.861877,2117,2879,0
1789469562.861911,2142,2879,0
1789469562.862787,2151,2879,0
1789469562.8628259,1814,2877,0
1789469562.86286,2044,2878,0
1789469562.865129,2262,2880,0
1789469562.8866408,2295,2881,0
1789469562.886734,2042,2879,0
1789469562.886838,1992,2879,0
1789469562.886899,1936,2878,0
1789469562.8869781,2182,2881,0
1789469562.887019,2157,2879,0
1789469562.8870568,2053,2878,0
1789469562.887095,2058,2878,0
1789469562.8871338,1966,2878,0
1789469562.88718,2141,2881,0
1789469562.887218,1942,2876,0
1789469562.888546,2013,2879,0
1789469562.891209,2243,2879,0
1789469562.901238,2117,2880,0
1789469562.9013171,1947,2877,0
1789469562.90138,1792,2879,0
1789469562.9014459,2040,2879,0
1789469562.9015071,2058,2878,0
1789469562.902875,2074,2879,0
1789469562.905462,1926,2879,0
1789469562.9067662,1905,2878,0
1789469562.9093251,2140,2878,0
1789469562.910625,2151,2879,0
1789469562.912947,2023,2879,0
1789469562.915506,2037,2879,0
1789469562.9166348,2221,2879,0
1789469562.9189801,2120,2878,0
1789469562.9215791,2026,2879,0
1789469562.9260108,2005,2879,0
1789469562.9265401,2031,2879,0
1789469562.926671,2018,2879,0
1789469562.929209,2061,2877,0
1789469562.931084,2117,2878,0
1789469562.933003,1799,2879,0
1789469562.935651,2159,2878,0
1789469562.938215,2157,2879,0
1789469562.940319,2150,2878,0
1789469562.941386,2164,2878,0
1789469562.943564,2243,2879,0
1789469562.944633,1840,2877,0
1789469562.95025,1869,2878,0
1789469562.951259,1941,2878,0
1789469562.953505,2166,2879,0
1789469562.953697,2098,2880,0
1789469562.955887,2053,2878,0
1789469562.9582012,1973,2878,0
1789469562.959908,2398,2879,0
1789469562.962365,2149,2880,0
1789469562.964767,1906,2878,0
1789469562.965052,1902,2879,0
1789469562.967616,2154,2879,0
1789469562.9689338,2228,2881,0
1789469562.971508,2165,2879,0
1789469562.972815,1874,2879,0
1789469562.9752011,1925,2879,0
1789469562.976574,2089,2879,0
1789469562.979139,1912,2879,0
1789469562.9813051,2005,2879,0
1789469562.982604,2157,2879,0
1789469562.985162,2125,2878,0
1789469562.987477,2159,2881,0
1789469562.988554,2196,2879,0
1789469562.990628,2198,2879,0
1789469562.992725,2109,2879,0
1789469562.995286,1982,2877,0
1789469562.997605,2007,2879,0
1789469562.9986691,2254,2879,0
1789469563.00492,2324,2880,0
1789469563.005949,1924,2877,0
1789469563.006548,1967,2878,0
1789469563.008563,1931,2878,0
1789469563.0089018,2062,2879,0
1789469563.0112388,1933,2877,0
1789469563.013181,1935,2879,0
1789469563.015243,1938,2879,0
1789469563.01782,2114,2879,0
1789469563.020274,2235,2880,0
1789469563.021342,2086,2879,0
1789469563.0226471,1939,2878,0
1789469563.0288482,2206,2879,0
1789469563.029836,2228,2880,0
1789469563.0307999,1946,2878,0
1789469563.032246,2156,2878,0
1789469563.034482,2221,2879,0
1789469563.034993,2194,2878,0
1789469563.04074,2155,2880,0
1789469563.0410318,1984,2880,0
1789469563.043807,2097,2879,0
1789469563.044023,2076,2880,0
1789469563.0453372,1927,2878,0
1789469563.047434,1886,2878,0
1789469563.048743,2043,2878,0
1789469563.051161,2055,2879,0
1789469563.0537658,2169,2880,0
1789469563.055049,2085,2878,0
1789469563.057558,2068,2879,0
1789469563.0588758,2143,2878,0
1789469563.0614421,1976,2878,0
1789469563.06257,1991,2878,0
1789469563.064637,1978,2878,0
1789469563.066963,2040,2880,0
1789469563.069152,2079,2878,0
1789469563.070543,2103,2878,0
1789469563.072862,1974,2878,0
1789469563.07519,2152,2880,0
1789469563.076583,2050,2879,0
1789469563.0838149,2029,2878,0
1789469563.0843189,2103,2879,0
1789469563.084449,2069,2878,0
1789469563.0867388,2057,2877,0
1789469563.08698,2099,2880,0
1789469563.08923,2090,2878,0
1789469563.093198,2015,2879,0
1789469563.0957792,2088,2879,0
1789469563.096033,1952,2877,0
1789469563.098523,2129,2880,0
1789469563.098599,2292,2879,0
1789469563.100918,2262,2881,0
1789469563.106772,2188,2880,0
1789469563.1073668,2029,2879,0
1789469563.1078699,2050,2878,0
1789469563.110005,2089,2879,0
1789469563.1118348,1939,2878,0
1789469563.11304,1831,2878,0
1789469563.116006,1863,2879,0
1789469563.118526,2099,2879,0
1789469563.118698,2207,2879,0
1789469563.121078,2185,2879,0
1789469563.123646,2043,2878,0
1789469563.1249611,2140,2879,0
1789469563.127531,2005,2879,0
1789469563.128834,1883,2879,0
1789469563.131159,2010,2878,0
1789469563.133472,2222,2879,0
1789469563.134775,2241,2880,0
1789469563.1370938,2050,2880,0
1789469563.139167,2008,2878,0
1789469563.141477,1977,2878,0
1789469563.142622,2182,2880,0
1789469563.144983,2069,2878,0
1789469563.147541,1911,2878,0
1789469563.148844,2017,2879,0
1789469563.151402,2260,2880,0
1789469563.152541,2153,2880,0
1789469563.154891,2084,2879,0
1789469563.16084,2098,2878,0
1789469563.161397,2254,2879,0
1789469563.1614878,2084,2881,0
1789469563.163956,2015,2878,0
1789469563.165714,2095,2878,0
1789469563.167805,2203,2878,0
1789469563.171961,2113,2879,0
1789469563.172246,1912,2878,0
1789469563.174695,2058,2879,0
1789469563.174742,2228,2879,0
1789469563.1772249,2079,2879,0
1789469563.1830988,1909,2877,0
1789469563.183687,1932,2879,0
1789469563.184254,2132,2879,0
1789469563.1865568,2205,2881,0
1789469563.1868958,2123,2879,0
1789469563.19034,1901,2878,0
1789469563.1958551,1938,2878,0
1789469563.196268,2199,2880,0
1789469563.196536,2112,2880,0
1789469563.196782,2070,2878,0
1789469563.1986408,2206,2878,0
1789469563.201375,2103,2878,0
1789469563.203477,1893,2878,0
1789469563.204573,2154,2878,0
1789469563.206699,2045,2878,0
1789469563.2093709,2191,2879,0
1789469563.210953,2021,2879,0
1789469563.2134058,1963,2877,0
1789469563.214905,2038,2879,0
1789469563.217191,2263,2880,0
1789469563.2194161,2149,2880,0
1789469563.221026,2048,2879,0
1789469563.223487,2119,2879,0
1789469563.224919,1973,2879,0
1789469563.227412,2026,2880,0
1789469563.228687,1940,2878,0
1789469563.23122,1858,2878,0
1789469563.2325902,1990,2878,0
1789469563.235028,2180,2878,0
1789469563.237372,2156,2881,0
1789469563.2504919,1993,2879,0
1789469563.2527602,2058,2878,0
1789469563.255458,2143,2879,0
1789469563.25894,1959,2877,0
1789469563.259716,2190,2880,0
1789469563.26266,2222,2880,0
1789469563.262888,2360,2880,0
1789469563.2630122,2282,2880,0
1789469563.263128,2076,2879,0
1789469563.263268,2086,2879,0
1789469563.2633102,2315,2880,0
1789469563.2633758,2099,2880,0
1789469563.263432,1915,2879,0
1789469563.264592,2197,2878,0
1789469563.272661,2191,2879,0
1789469563.276051,2243,2880,0
1789469563.2779741,2236,2879,0
1789469563.2800908,2305,2879,0
1789469563.281114,2415,2881,0
1789469563.2855449,2369,2880,0
1789469563.2888792,2149,2878,0
1789469563.289419,2210,2878,0
1789469563.2919528,2300,2880,0
1789469563.2922182,2387,2881,0
1789469563.292328,2347,2879,0
1789469563.292371,2200,2879,0
1789469563.2924411,2384,2881,0
1789469563.292567,2301,2879,0
1789469563.29477,2167,2879,0
1789469563.2972522,2181,2878,0
1789469563.2985559,2342,2880,0
1789469563.3012211,2425,2882,0
1789469563.303631,2273,2880,0
1789469563.3052108,2209,2879,0
1789469563.306643,2159,2879,0
1789469563.30906,2152,2879,0
1789469563.3114429,2134,2880,0
1789469563.3127182,2145,2879,0
1789469563.3152058,2185,2878,0
1789469563.317556,2238,2879,0
1789469563.3187,2200,2881,0
1789469563.321114,2118,2879,0
1789469563.323392,2097,2879,0
1789469563.3247218,2184,2879,0
1789469563.327081,2212,2881,0
1789469563.334409,2113,2878,0
1789469563.336962,2193,2879,0
1789469563.337482,2324,2880,0
1789469563.33938,2296,2881,0
1789469563.340491,2223,2880,0
1789469563.3411021,2111,2878,0
1789469563.341588,2129,2879,0
1789469563.3444018,2188,2880,0
1789469563.34713,1950,2879,0
1789469563.347391,2001,2879,0
1789469563.3501592,2097,2879,0
1789469563.3512378,2145,2879,0
1789469563.353605,2256,2879,0
1789469563.3590112,2298,2880,0
1789469563.3596401,2202,2878,0
1789469563.360568,2173,2879,0
1789469563.361989,2165,2880,0
1789469563.363888,2155,2880,0
1789469563.365375,2077,2879,0
1789469563.3680818,2148,2879,0
1789469563.370778,2122,2879,0
1789469563.371008,2018,2880,0
1789469563.373324,1986,2878,0
1789469563.374639,2013,2879,0
1789469563.377158,2095,2879,0
1789469563.379518,2067,2877,0
1789469563.380827,2081,2879,0
1789469563.383159,2143,2879,0
1789469563.385509,2191,2882,0
1789469563.386577,2043,2879,0
1789469563.3886762,1975,2877,0
1789469563.3910022,1999,2879,0
1789469563.393576,2050,2880,0
1789469563.3946612,1951,2878,0
1789469563.397226,1907,2879,0
1789469563.399553,2065,2879,0
1789469563.4008708,2191,2877,0
1789469563.403458,2087,2879,0
1789469563.40481,1998,2879,0
1789469563.4077399,2099,2879,0
1789469563.4090781,2153,2878,0
1789469563.4142752,1980,2879,0
1789469563.41536,1970,2878,0
1789469563.415916,2085,2879,0
1789469563.417953,2112,2878,0
1789469563.420641,2132,2880,0
1789469563.4215198,2074,2879,0
1789469563.4250538,2049,2879,0
1789469563.427692,2095,2879,0
1789469563.427926,2023,2879,0
1789469563.430491,2003,2878,0
1789469563.430627,2035,2878,0
1789469563.432999,2105,2879,0
1789469563.439575,2109,2879,0
1789469563.440695,2078,2879,0
1789469563.441739,2063,2878,0
1789469563.4435341,2096,2878,0
1789469563.44612,2138,2880,0
1789469563.446741,1958,2879,0
1789469563.447433,1973,2878,0
1789469563.4491122,2071,2880,0
1789469563.451027,2123,2878,0
1789469563.4538188,2116,2879,0
1789469563.455905,2015,2879,0
1789469563.457226,1964,2879,0
1789469563.459553,2079,2878,0
1789469563.460876,1980,2878,0
1789469563.4633532,2020,2879,0
1789469563.46467,2070,2879,0
1789469563.466795,2134,2879,0
1789469563.469159,2114,2879,0
1789469563.471609,2075,2879,0
1789469563.472745,2076,2878,0
1789469563.474931,2126,2878,0
1789469563.477396,2025,2879,0
1789469563.478754,1909,2877,0
1789469563.481178,1988,2879,0
1789469563.483274,2128,2880,0
1789469563.485366,2128,2878,0
1789469563.486795,2087,2880,0
1789469563.4893491,2044,2877,0
1789469563.4907148,2091,2878,0
1789469563.493098,2138,2880,0
1789469563.501782,2044,2878,0
1789469563.502325,2005,2879,0
1789469563.503605,2071,2880,0
1789469563.505727,2156,2879,0
1789469563.509527,2086,2880,0
1789469563.5113978,2041,2879,0
1789469563.513984,2052,2879,0
1789469563.517348,2085,2879,0
1789469563.517795,2007,2878,0
1789469563.5180008,1964,2879,0
1789469563.518241,2069,2878,0
1789469563.51855,2150,2878,0
1789469563.518757,2157,2880,0
1789469563.5207732,2085,2879,0
1789469563.522976,2012,2879,0
1789469563.525312,2135,2879,0
1789469563.5308979,2095,2879,0
1789469563.531692,2008,2878,0
1789469563.533031,2000,2879,0
1789469563.533652,2107,2878,0
1789469563.535437,2104,2879,0
1789469563.537581,2066,2879,0
1789469563.540172,1997,2878,0
1789469563.543113,2094,2880,0
1789469563.548685,2124,2880,0
1789469563.549401,2018,2877,0
1789469563.549835,2068,2879,0
1789469563.549922,2144,2879,0
1789469563.5513,2178,2879,0
1789469563.552617,2134,2879,0
1789469563.555212,2086,2878,0
1789469563.556724,2044,2878,0
1789469563.558972,2084,2878,0
1789469563.561412,1985,2878,0
1789469563.5625741,1906,2879,0
1789469563.564906,1994,2878,0
1789469563.5674171,2118,2880,0
1789469563.569511,2147,2880,0
1789469563.570615,2055,2878,0
1789469563.5729752,2029,2879,0
1789469563.575048,2166,2879,0
1789469563.577612,2153,2880,0
1789469563.5786712,1979,2877,0
1789469563.581001,2003,2878,0
1789469563.583327,2131,2878,0
1789469563.585508,2153,2879,0
1789469563.5866659,2060,2879,0
1789469563.589144,2065,2879,0
1789469563.594899,2080,2878,0
1789469563.595082,2147,2879,0
1789469563.59839,2031,2878,0
1789469563.598743,2018,2878,0
1789469563.599055,2132,2878,0
1789469563.601204,2211,2879,0
1789469563.603216,2127,2878,0
1789469563.605804,2057,2879,0
1789469563.6084712,2050,2878,0
1789469563.608608,2094,2878,0
1789469563.611325,2007,2880,0
1789469563.612674,1961,2879,0
1789469563.6150038,2042,2879,0
1789469563.621349,2121,2879,0
1789469563.6232,2108,2878,0
1789469563.6235452,2032,2879,0
1789469563.623766,2046,2879,0
1789469563.626498,2093,2878,0
1789469563.6271548,2036,2880,0
1789469563.628769,1941,2878,0
1789469563.6333802,2046,2879,0
1789469563.633596,2150,2878,0
1789469563.6362119,2103,2879,0
1789469563.6373398,2106,2880,0
1789469563.639437,2037,2879,0
1789469563.640748,2124,2878,0
1789469563.6430998,2115,2879,0
1789469563.645588,1983,2879,0
1789469563.6469,1953,2880,0
1789469563.649246,2073,2880,0
1789469563.65133,2190,2879,0
1789469563.652638,2163,2881,0
1789469563.6547189,2066,2880,0
1789469563.6568031,2038,2879,0
1789469563.6592371,2158,2880,0
1789469563.661559,2069,2879,0
1789469563.662782,2007,2878,0
1789469563.66535,2104,2879,0
1789469563.667671,2144,2880,0
1789469563.668757,2088,2878,0
1789469563.6710742,2006,2880,0
1789469563.673227,1988,2879,0
1789469563.674556,2110,2879,0
1789469563.680681,2097,2880,0
1789469563.68221,1991,2878,0
1789469563.6844292,2001,2878,0
1789469563.686913,2100,2879,0
1789469563.687658,2162,2879,0
1789469563.6887522,2107,2878,0
1789469563.689462,2116,2879,0
1789469563.69205,2105,2878,0
1789469563.695012,2110,2878,0
1789469563.695422,1992,2878,0
1789469563.698001,1970,2879,0
1789469563.6990778,2114,2878,0
1789469563.701175,2150,2879,0
1789469563.707985,2115,2880,0
1789469563.70871,2068,2878,0
1789469563.7096682,2063,2878,0
1789469563.711356,2135,2879,0
1789469563.71157,2060,2879,0
1789469563.7144141,2009,2877,0
1789469563.716162,2059,2879,0
1789469563.720952,2165,2877,0
1789469563.721469,2178,2881,0
1789469563.721687,2080,2879,0
1789469563.7242088,2037,2878,0
1789469563.725285,2127,2879,0
1789469563.727496,2066,2880,0
1789469563.728597,2027,2877,0
1789469563.731185,2027,2878,0
1789469563.733554,2133,2878,0
1789469563.734619,2192,2880,0
1789469563.7369568,2082,2881,0
1789469563.7392771,2032,2879,0
1789469563.7416089,2035,2879,0
1789469563.742673,2085,2879,0
1789469563.7449899,2008,2878,0
1789469563.747231,2017,2878,0
1789469563.749559,2103,2878,0
1789469563.750769,2181,2879,0
1789469563.752861,2099,2880,0
1789469563.7554271,2034,2878,0
1789469563.757515,2082,2878,0
1789469563.7586298,2087,2879,0
1789469563.760961,2006,2880,0
1789469563.763277,2054,2878,0
1789469563.7684631,2104,2879,0
1789469563.76909,2047,2879,0
1789469563.770296,2131,2879,0
1789469563.7723541,2109,2879,0
1789469563.775022,2155,2879,0
1789469563.775668,2075,2879,0
1789469563.777812,2060,2878,0
1789469563.782343,1990,2878,0
1789469563.782468,2126,2878,0
1789469563.7827399,2013,2878,0
1789469563.785384,2073,2878,0
1789469563.7867048,2086,2879,0
1789469563.789324,2074,2879,0
1789469563.7950468,2056,2879,0
1789469563.795677,2125,2880,0
1789469563.796293,2051,2880,0
1789469563.798871,2004,2879,0
1789469563.799165,2202,2879,0
1789469563.801705,1997,2878,0
1789469563.803492,2094,2878,0
1789469563.8085911,2008,2879,0
1789469563.808814,2192,2878,0
1789469563.808903,2198,2879,0
1789469563.811452,2157,2878,0
1789469563.812806,1699,2879,0
1789469563.815346,2013,2878,0
1789469563.816652,2253,2879,0
1789469563.818966,2216,2882,0
1789469563.821292,2152,2879,0
1789469563.822603,1860,2879,0
1789469563.824679,2120,2879,0
1789469563.826998,2119,2878,0
1789469563.829329,1999,2878,0
1789469563.831667,2323,2882,0
1789469563.8329759,2223,2880,0
1789469563.835577,2267,2880,0
1789469563.836737,1840,2878,0
1789469563.839257,2024,2880,0
1789469563.841585,2075,2878,0
1789469563.8428879,2130,2879,0
1789469563.845215,1952,2877,0
1789469563.851089,1961,2878,0
1789469563.85235,2094,2879,0
1789469563.853905,2152,2878,0
1789469563.8556778,2154,2879,0
1789469563.8561962,2115,2880,0
1789469563.858081,2061,2878,0
1789469563.860149,2213,2878,0
1789469563.862807,2083,2879,0
1789469563.8653052,2013,2877,0
1789469563.867647,1950,2878,0
1789469563.867826,2128,2879,0
1789469563.868971,2291,2881,0
1789469563.871074,2231,2880,0
1789469563.87917,2098,2878,0
1789469563.881524,2141,2878,0
1789469563.881855,2122,2878,0
1789469563.882,1833,2877,0
1789469563.884128,1944,2878,0
1789469563.884767,1989,2878,0
1789469563.885243,2067,2878,0
1789469563.890719,2028,2879,0
1789469563.8908842,1968,2878,0
1789469563.8910878,2042,2878,0
1789469563.893352,2030,2879,0
1789469563.894675,2153,2880,0
1789469563.897255,1925,2880,0
1789469563.899588,1947,2879,0
1789469563.900898,2088,2879,0
1789469563.903255,2183,2879,0
1789469563.904632,2072,2879,0
1789469563.906762,2017,2879,0
1789469563.909081,2071,2879,0
1789469563.911652,1947,2877,0
1789469563.912957,1933,2878,0
1789469563.915272,2028,2878,0
1789469563.916616,2202,2879,0
1789469563.918946,2194,2881,0
1789469563.921058,2172,2879,0
1789469563.92358,2045,2878,0
1789469563.924694,1999,2879,0
1789469563.9272761,1986,2879,0
1789469563.928629,1874,2877,0
1789469563.936833,1956,2878,0
1789469563.9380429,2139,2880,0
1789469563.938186,2146,2880,0
1789469563.940415,1991,2879,0
1789469563.940628,1908,2878,0
1789469563.940907,2065,2878,0
1789469563.942946,2125,2879,0
1789469563.94517,2090,2877,0
1789469563.9478688,1962,2878,0
1789469563.9507031,2105,2879,0
1789469563.950978,2133,2877,0
1789469563.953696,2015,2877,0
1789469563.954786,2026,2877,0
1789469563.9575229,2100,2878,0
1789469563.962527,2061,2879,0
1789469563.963091,2069,2879,0
1789469563.964149,1993,2878,0
1789469563.965927,2109,2879,0
1789469563.968267,1990,2879,0
1789469563.969567,2119,2878,0
1789469563.971523,2076,2880,0
1789469563.9734988,1971,2878,0
1789469563.97635,2033,2878,0
1789469563.9789162,2061,2880,0
1789469563.979074,2011,2878,0
1789469563.981846,2020,2878,0
1789469563.982914,2071,2878,0
1789469563.985402,2142,2878,0
1789469563.98675,2166,2881,0
1789469563.989119,2029,2879,0
1789469563.991359,2102,2879,0
1789469563.9935338,2164,2879,0
1789469563.9948642,2018,2879,0
1789469563.997442,2001,2878,0
1789469563.998751,2083,2879,0
1789469564.0010939,2182,2879,0
1789469564.0034199,2105,2880,0
1789469564.0055969,2058,2879,0
1789469564.006908,2016,2878,0
1789469564.009231,2080,2879,0
1789469564.010582,2001,2879,0
1789469564.013152,1976,2878,0
1789469564.0152261,2054,2878,0
1789469564.016552,2142,2879,0
1789469564.022112,2122,2881,0
1789469564.023204,2068,2878,0
1789469564.0242848,2103,2878,0
1789469564.025721,2097,2878,0
1789469564.0281658,2168,2879,0
1789469564.0301352,1988,2878,0
1789469564.034753,2003,2878,0
1789469564.034863,2147,2879,0
1789469564.035101,2169,2878,0
1789469564.037527,2022,2880,0
1789469564.038877,2021,2879,0
1789469564.040973,2089,2879,0
1789469564.0465028,2156,2880,0
1789469564.047509,1955,2878,0
1789469564.0493739,1918,2879,0
1789469564.0496562,2046,2879,0
1789469564.0523388,2207,2879,0
1789469564.0542982,2134,2880,0
1789469564.058256,1975,2879,0
1789469564.058458,2014,2878,0
1789469564.058629,2101,2879,0
1789469564.062071,2061,2880,0
1789469564.063256,1999,2879,0
1789469564.065618,2034,2878,0
1789469564.066926,2148,2879,0
1789469564.069262,2178,2880,0
1789469564.070585,2100,2880,0
1789469564.072913,1994,2878,0
1789469564.075478,2081,2879,0
1789469564.076593,2078,2880,0
1789469564.0789142,2002,2878,0
1789469564.0809999,1972,2879,0
1789469564.083321,2083,2879,0
1789469564.084629,2173,2879,0
1789469564.086761,2087,2879,0
1789469564.0890949,2082,2880,0
1789469564.0914052,2191,2879,0
1789469564.092705,2118,2879,0
1789469564.0952692,1984,2878,0
1789469564.100854,1978,2879,0
1789469564.1013849,1997,2879,0
1789469564.10193,2092,2878,0
1789469564.104057,2089,2880,0
1789469564.1063511,2005,2879,0
1789469564.108225,2005,2879,0
1789469564.110257,2080,2879,0
1789469564.1126559,1991,2879,0
1789469564.112855,1898,2879,0
1789469564.115306,2011,2878,0
1789469564.1166332,2103,2879,0
1789469564.119017,2096,2878,0
1789469564.124712,2050,2881,0
1789469564.1251898,2113,2879,0
1789469564.125694,2151,2879,0
1789469564.127428,2131,2880,0
1789469564.1292832,1925,2878,0
1789469564.131187,1996,2879,0
1789469564.133473,2114,2879,0
1789469564.1358132,2190,2878,0
1789469564.137784,2118,2879,0
1789469564.139095,2053,2878,0
1789469564.141655,2021,2878,0
1789469564.142965,2116,2878,0
1789469564.145532,2082,2879,0
1789469564.146833,1978,2878,0
1789469564.149146,2156,2880,0
1789469564.151708,2289,2882,0
1789469564.1530082,2128,2879,0
1789469564.155571,2005,2879,0
1789469564.156628,2061,2879,0
1789469564.159189,2104,2879,0
1789469564.1605492,1955,2878,0
1789469564.1631072,1926,2878,0
1789469564.165417,2052,2879,0
1789469564.1677802,2133,2879,0
1789469564.169079,2094,2878,0
1789469564.1713479,2057,2879,0
1789469564.17265,2086,2879,0
1789469564.1777768,2145,2879,0
1789469564.1783319,2174,2880,0
1789469564.180806,2044,2877,0
1789469564.180942,1967,2878,0
1789469564.183336,2135,2879,0
1789469564.185247,2083,2878,0
1789469564.1873028,2042,2880,0
1789469564.189724,2020,2878,0
1789469564.1917472,2093,2879,0
1789469564.1933959,2167,2879,0
1789469564.195552,2130,2879,0
1789469564.201536,1949,2879,0
1789469564.20303,2119,2880,0
1789469564.2045388,2327,2882,0
1789469564.204746,2168,2880,0
1789469564.2049222,2175,2881,0
1789469564.206879,2086,2878,0
1789469564.208886,2010,2880,0
1789469564.2109141,1978,2877,0
1789469564.213263,2224,2881,0
1789469564.215287,2176,2879,0
1789469564.217607,2043,2879,0
1789469564.2189178,2043,2877,0
1789469564.221493,2060,2880,0
1789469564.222798,2026,2878,0
1789469564.224947,2244,2880,0
1789469564.227505,2036,2879,0
1789469564.228804,2050,2879,0
1789469564.230953,2043,2879,0
1789469564.2335129,1878,2878,0
1789469564.2346308,2179,2878,0
1789469564.236724,2156,2879,0
1789469564.2392871,2048,2879,0
1789469564.241598,2030,2879,0
1789469564.242898,2086,2878,0
1789469564.245211,2020,2879,0
1789469564.247519,1969,2878,0
1789469564.248817,2099,2879,0
1789469564.2563221,2259,2879,0
1789469564.256984,2253,2880,0
1789469564.2574248,2036,2879,0
1789469564.258948,2144,2880,0
1789469564.259069,2112,2880,0
1789469564.261306,1919,2878,0
1789469564.263322,2187,2880,0
1789469564.265478,2033,2879,0
1789469564.2678242,2118,2879,0
1789469564.270282,2135,2878,0
1789469564.271598,1944,2877,0
1789469564.2729049,2049,2879,0
1789469564.2792478,2045,2879,0
1789469564.2801769,2224,2879,0
1789469564.2806249,1832,2876,0
1789469564.282082,1910,2879,0
1789469564.283982,2151,2879,0
1789469564.285123,2395,2883,0
1789469564.2866719,2222,2879,0
1789469564.290394,2150,2879,0
1789469564.292841,2051,2879,0
1789469564.29289,2053,2879,0
1789469564.295516,2056,2877,0
1789469564.296578,2059,2879,0
1789469564.2988968,2180,2879,0
1789469564.301271,1911,2878,0
1789469564.302573,2039,2877,0
1789469564.30513,2396,2880,0
1789469564.306457,1630,2876,0
1789469564.3085399,2064,2879,0
1789469564.310857,2179,2880,0
1789469564.313239,2041,2877,0
1789469564.314543,2121,2879,0
1789469564.316902,2282,2881,0
1789469564.319339,2210,2880,0
1789469564.320639,2073,2879,0
1789469564.322965,1898,2878,0
1789469564.325291,2342,2879,0
1789469564.331977,2155,2879,0
1789469564.332997,1966,2877,0
1789469564.333601,1724,2879,0
1789469564.335552,1897,2879,0
1789469564.335636,2036,2878,0
1789469564.337864,2027,2880,0
1789469564.339073,2118,2879,0
1789469564.341818,2002,2880,0
1789469564.34417,2295,2880,0
1789469564.346646,1942,2878,0
1789469564.346909,1961,2878,0
1789469564.349476,2037,2879,0
1789469564.3508549,2151,2879,0
1789469564.3558679,2403,2880,0
1789469564.3567512,2143,2879,0
1789469564.357375,1868,2878,0
1789469564.358907,2073,2879,0
1789469564.3609369,1988,2878,0
1789469564.362825,1890,2878,0
1789469564.36495,2010,2879,0
1789469564.367178,2014,2878,0
1789469564.369667,1871,2878,0
1789469564.3709812,1887,2877,0
1789469564.373148,1822,2878,0
1789469564.375474,2163,2879,0
1789469564.376776,2077,2879,0
1789469564.379118,1936,2877,0
1789469564.3805041,2049,2879,0
1789469564.383069,2244,2878,0
1789469564.3853939,2398,2880,0
1789469564.387758,2115,2880,0
1789469564.389059,2296,2878,0
1789469564.390458,1993,2879,0
1789469564.3927732,2029,2880,0
1789469564.39533,2047,2879,0
1789469564.396501,2032,2879,0
1789469564.398577,1973,2879,0
1789469564.400887,2121,2878,0
1789469564.4032,1629,2878,0
1789469564.4104671,1652,2878,0
1789469564.410961,2243,2879,0
1789469564.411087,2164,2879,0
1789469564.4116979,1901,2880,0
1789469564.4131498,1823,2878,0
1789469564.415491,1878,2878,0
1789469564.41747,2247,2878,0
1789469564.41973,2187,2880,0
1789469564.422059,2163,2880,0
1789469564.424688,1765,2875,0
1789469564.424736,2162,2879,0
1789469564.427066,2083,2879,0
1789469564.428448,1992,2877,0
1789469564.432624,1989,2878,0
1789469564.433058,2147,2879,0
1789469564.435612,2164,2879,0
1789469564.4376278,1938,2877,0
1789469564.439199,1939,2880,0
1789469564.444204,1991,2878,0
1789469564.444581,2135,2879,0
1789469564.4448159,2091,2880,0
1789469564.4473019,1883,2878,0
1789469564.4485729,2081,2879,0
1789469564.451246,2219,2878,0
1789469564.4525561,2314,2881,0
1789469564.4551208,2302,2879,0
1789469564.456542,2209,2880,0
1789469564.459152,2211,2879,0
1789469564.460459,2059,2880,0
1789469564.46278,1970,2878,0
1789469564.465339,2172,2878,0
1789469564.466652,2214,2878,0
1789469564.469219,2120,2879,0
1789469564.470521,2048,2879,0
1789469564.473077,2038,2879,0
1789469564.475393,2139,2879,0
1789469564.476692,2204,2878,0
1789469564.479004,2010,2878,0
1789469564.48108,1892,2878,0
1789469564.482456,1687,2881,0
1789469564.4883652,2420,2881,0
1789469564.4885042,2565,2881,0
1789469564.489065,2032,2880,0
1789469564.491574,1786,2878,0
1789469564.493936,2137,2880,0
1789469564.495494,2169,2881,0
1789469564.4981089,1971,2878,0
1789469564.500567,1947,2879,0
1789469564.500819,2001,2878,0
1789469564.502964,1992,2877,0
1789469564.5054028,1886,2879,0
1789469564.506461,2062,2878,0
1789469564.511085,2195,2879,0
1789469564.511539,2179,2879,0
1789469564.513831,1823,2878,0
1789469564.515508,2090,2879,0
1789469564.517535,2231,2879,0
1789469564.519388,1951,2879,0
1789469564.5217228,1861,2878,0
1789469564.523956,1896,2879,0
1789469564.525015,2335,2879,0
1789469564.5275788,2132,2879,0
1789469564.528904,2023,2879,0
1789469564.5311959,1902,2879,0
1789469564.533501,2046,2878,0
1789469564.534797,2261,2879,0
1789469564.536871,2257,2880,0
1789469564.539087,2242,2879,0
1789469564.541158,2015,2878,0
1789469564.5432231,2072,2878,0
1789469564.544518,1787,2877,0
1789469564.547082,1840,2877,0
1789469564.549181,2173,2880,0
1789469564.5515058,2264,2879,0
1789469564.552574,2193,2880,0
1789469564.5546381,1837,2877,0
1789469564.560517,2130,2878,0
1789469564.5610392,2139,2878,0
1789469564.5615292,2008,2879,0
1789469564.563552,2021,2878,0
1789469564.565423,1942,2879,0
1789469564.566815,2110,2880,0
1789469564.569373,2266,2881,0
1789469564.571724,1951,2880,0
1789469564.573952,1957,2879,0
1789469564.5750139,2018,2879,0
1789469564.577353,2043,2879,0
1789469564.582027,1736,2878,0
1789469564.583266,1893,2878,0
1789469564.583403,2193,2878,0
1789469564.584712,2099,2878,0
1789469564.587743,2093,2879,0
1789469564.590154,1903,2879,0
1789469564.592447,1714,2875,0
1789469564.5926652,1973,2880,0
1789469564.594866,2043,2878,0
1789469564.5971148,2189,2879,0
1789469564.599423,2134,2877,0
1789469564.6004832,2129,2879,0
1789469564.6026082,2020,2877,0
1789469564.6050482,2120,2879,0
1789469564.607616,2151,2878,0
1789469564.6088,2243,2879,0
1789469564.611105,2286,2880,0
1789469564.613417,1934,2877,0
1789469564.614712,1905,2879,0
1789469564.617026,1989,2879,0
1789469564.619586,1932,2877,0
1789469564.620641,2167,2881,0
1789469564.622709,2137,2880,0
1789469564.625016,2044,2879,0
1789469564.6276622,1989,2879,0
1789469564.632599,1943,2878,0
1789469564.633058,1884,2879,0
1789469564.63317,2058,2880,0
1789469564.634922,2254,2882,0
1789469564.6386108,2161,2880,0
1789469564.6387358,1944,2879,0
1789469564.640587,2060,2879,0
1789469564.642897,2030,2880,0
1789469564.644732,1920,2878,0
1789469564.6473012,2101,2878,0
1789469564.648612,2212,2879,0
1789469564.653547,2149,2878,0
1789469564.65405,2139,2879,0
1789469564.6560571,2046,2878,0
1789469564.658005,1981,2879,0
1789469564.659703,2148,2879,0
1789469564.661551,2067,2879,0
1789469564.663994,1918,2879,0
1789469564.666164,1967,2878,0
1789469564.667477,2113,2879,0
1789469564.66854,2169,2881,0
1789469564.6706429,2151,2879,0
1789469564.673205,2077,2879,0
1789469564.675276,1968,2878,0
1789469564.6764328,1965,2880,0
1789469564.6787531,1869,2878,0
1789469564.6813061,2015,2879,0
1789469564.682602,2215,2878,0
1789469564.684716,2162,2880,0
1789469564.687304,2013,2879,0
1789469564.6886039,1983,2878,0
1789469564.6910532,2074,2877,0
1789469564.692435,2175,2879,0
1789469564.694988,1963,2878,0
1789469564.697302,2039,2878,0
1789469564.6984441,2084,2878,0
1789469564.703331,2124,2877,0
1789469564.703846,2019,2876,0
1789469564.706282,1940,2879,0
1789469564.7083468,1955,2878,0
1789469564.708838,2262,2878,0
1789469564.7106571,2242,2880,0
1789469564.714407,2021,2877,0
1789469564.714603,2065,2878,0
1789469564.71758,2165,2879,0
1789469564.718879,2168,2880,0
1789469564.724546,2116,2880,0
1789469564.72468,2031,2878,0
1789469564.725153,2089,2879,0
1789469564.727048,2114,2880,0
1789469564.728972,1830,2878,0
1789469564.7324731,1844,2879,0
1789469564.734978,2106,2878,0
1789469564.735184,2175,2879,0
1789469564.737476,2089,2880,0
1789469564.738545,2074,2878,0
1789469564.740875,2171,2879,0
1789469564.743201,2248,2879,0
1789469564.7445078,2104,2879,0
1789469564.7468312,1960,2879,0
1789469564.749069,1980,2879,0
1789469564.751491,2145,2879,0
1789469564.752547,2106,2881,0
1789469564.755108,2016,2878,0
1789469564.7574232,2084,2879,0
1789469564.758722,2159,2880,0
1789469564.761037,2060,2879,0
1789469564.763608,1912,2877,0
1789469564.764905,1958,2880,0
1789469564.7669811,2091,2878,0
1789469564.769313,2198,2880,0
1789469564.773848,2057,2879,0
1789469564.7738922,2085,2878,0
1789469564.775746,2154,2879,0
1789469564.777282,2170,2880,0
1789469564.7794392,1956,2877,0
1789469564.780649,1860,2879,0
1789469564.783113,1954,2878,0
1789469564.785629,2254,2879,0
1789469564.78746,2341,2880,0
1789469564.7885172,2091,2880,0
1789469564.790838,1880,2879,0
1789469564.795868,1989,2877,0
1789469564.7967901,1863,2878,0
1789469564.797604,1884,2879,0
1789469564.8006961,2235,2879,0
1789469564.800889,2207,2879,0
1789469564.804342,2081,2879,0
1789469564.804551,2046,2879,0
1789469564.806928,2047,2879,0
1789469564.808746,2340,2880,0
1789469564.811306,2135,2879,0
1789469564.812605,2106,2879,0
1789469564.815167,2130,2879,0
1789469564.8174841,2082,2877,0
1789469564.81878,2175,2880,0
1789469564.821343,2018,2879,0
1789469564.822643,2024,2880,0
1789469564.825082,2119,2879,0
1789469564.8273861,2124,2880,0
1789469564.828444,1906,2878,0
1789469564.830997,1902,2880,0
1789469564.833306,2175,2879,0
1789469564.8346,2146,2879,0
1789469564.8369112,2112,2880,0
1789469564.839464,2037,2880,0
1789469564.840759,2003,2879,0
1789469564.845551,2100,2878,0
1789469564.846056,1948,2879,0
1789469564.847542,1837,2879,0
1789469564.848929,2128,2880,0
1789469564.850915,2297,2881,0
1789469564.854421,2133,2880,0
1789469564.856719,2031,2879,0
1789469564.8569338,1943,2879,0
1789469564.859183,2106,2878,0
1789469564.860485,2111,2880,0
1789469564.8627598,1989,2879,0
1789469564.8672209,2077,2879,0
1789469564.868078,2259,2879,0
1789469564.8697522,2213,2880,0
1789469564.871555,2026,2879,0
1789469564.8732889,1970,2878,0
1789469564.8754659,2116,2879,0
1789469564.877902,2148,2880,0
1789469564.8796952,1966,2877,0
1789469564.8808188,2015,2879,0
1789469564.8831491,2124,2878,0
1789469564.885229,2089,2878,0
1789469564.8875442,2069,2879,0
1789469564.888851,2053,2878,0
1789469564.8914108,2168,2878,0
1789469564.8926709,2158,2879,0
1789469564.89473,1960,2879,0
1789469564.897283,2046,2879,0
1789469564.8993568,2156,2879,0
1789469564.900661,2175,2879,0
1789469564.90322,2211,2880,0
1789469564.904459,2076,2879,0
1789469564.907017,2013,2878,0
1789469564.909333,2238,2879,0
1789469564.9106271,2126,2879,0
1789469564.917175,1945,2878,0
1789469564.9176478,1931,2878,0
1789469564.9181921,2185,2879,0
1789469564.9198878,2261,2879,0
1789469564.921904,2021,2879,0
1789469564.92416,1956,2878,0
1789469564.9281878,2093,2879,0
1789469564.9283872,2133,2880,0
1789469564.928633,1999,2878,0
1789469564.931369,2056,2878,0
1789469564.932669,2201,2879,0
1789469564.9387798,2232,2880,0
1789469564.938894,2137,2880,0
1789469564.93941,2131,2878,0
1789469564.94144,2129,2878,0
1789469564.9434812,2212,2880,0
1789469564.94518,2267,2880,0
1789469564.947008,1927,2877,0
1789469564.9494662,2150,2878,0
1789469564.9515982,2450,2881,0
1789469564.952672,2316,2879,0
1789469564.9548218,2018,2878,0
1789469564.95742,2176,2879,0
1789469564.958722,2463,2879,0
1789469564.961118,2237,2879,0
1789469564.962448,2034,2878,0
1789469564.9650078,2110,2878,0
1789469564.967329,2259,2880,0
1789469564.9686248,2285,2879,0
1789469564.971175,2202,2879,0
1789469564.97356,2279,2879,0
1789469564.9746099,2361,2879,0
1789469564.9771369,2084,2879,0
1789469564.9784698,2038,2878,0
1789469564.980916,2219,2878,0
1789469564.983237,2395,2881,0
1789469564.988147,2260,2881,0
1789469564.988619,2139,2879,0
1789469564.9891,2146,2879,0
1789469564.9912162,2284,2879,0
1789469564.993353,2320,2880,0
1789469564.995114,2174,2880,0
1789469564.996999,2148,2879,0
1789469564.999533,2124,2878,0
1789469565.001367,2104,2878,0
1789469565.002669,2138,2878,0
1789469565.0047932,2261,2879,0
1789469565.0102148,2162,2879,0
1789469565.010659,2172,2879,0
1789469565.011088,2063,2879,0
1789469565.0127912,1963,2878,0
1789469565.015712,2082,2880,0
1789469565.018147,2173,2878,0
1789469565.020519,2168,2878,0
1789469565.0208151,2156,2879,0
1789469565.023,2121,2879,0
1789469565.025318,2144,2879,0
1789469565.0266209,2158,2879,0
1789469565.029185,1983,2878,0
1789469565.030483,2018,2878,0
1789469565.033036,2098,2879,0
1789469565.035599,2273,2878,0
1789469565.036895,2114,2880,0
1789469565.039209,2034,2878,0
1789469565.041292,2062,2879,0
1789469565.042591,2177,2878,0
1789469565.044659,2145,2880,0
1789469565.047213,2123,2878,0
1789469565.048449,2179,2879,0
1789469565.051003,2204,2880,0
1789469565.053555,2193,2880,0
1789469565.0548532,2168,2879,0
1789469565.059469,2151,2879,0
1789469565.0604649,2095,2879,0
1789469565.061408,2055,2879,0
1789469565.0628428,2065,2879,0
1789469565.064939,2054,2878,0
1789469565.066632,2164,2879,0
1789469565.070741,2248,2880,0
1789469565.0709388,2138,2879,0
1789469565.07276,2095,2879,0
1789469565.075093,2034,2879,0
1789469565.076454,2129,2880,0
1789469565.081258,2028,2878,0
1789469565.081412,2046,2880,0
1789469565.0838752,2167,2880,0
1789469565.0858822,2179,2879,0
1789469565.0893812,2120,2880,0
1789469565.091844,2046,2879,0
1789469565.0920682,2001,2879,0
1789469565.09446,2076,2879,0
1789469565.094581,1977,2878,0
1789469565.097143,1961,2878,0
1789469565.099475,2088,2878,0
1789469565.100781,2194,2878,0
1789469565.103337,2156,2881,0
1789469565.1046321,2039,2878,0
1789469565.107187,2034,2879,0
1789469565.108587,2098,2878,0
1789469565.111351,2040,2879,0
1789469565.113006,1983,2878,0
1789469565.1193001,2037,2879,0
1789469565.119346,2176,2879,0
1789469565.119395,2220,2880,0
1789469565.12071,2133,2879,0
1789469565.1233459,2109,2878,0
1789469565.124606,2149,2878,0
1789469565.1272151,2149,2881,0
1789469565.1286132,1972,2878,0
1789469565.131569,1961,2879,0
1789469565.132698,2120,2879,0
1789469565.135273,2170,2879,0
1789469565.141373,2090,2880,0
1789469565.142706,2029,2879,0
1789469565.144722,2019,2879,0
1789469565.14497,2067,2879,0
1789469565.145099,1998,2877,0
1789469565.148573,2004,2880,0
1789469565.151524,2043,2879,0
1789469565.154115,2169,2878,0
1789469565.154387,2081,2880,0
1789469565.154696,2014,2879,0
1789469565.1568692,2026,2879,0
1789469565.159209,2130,2879,0
1789469565.160504,2033,2880,0
1789469565.166004,1946,2878,0
1789469565.1666188,2052,2878,0
1789469565.167167,2126,2879,0
1789469565.168896,2199,2881,0
1789469565.171391,2085,2879,0
1789469565.1729221,2037,2879,0
1789469565.177133,2050,2878,0
1789469565.177233,2130,2880,0
1789469565.179148,2048,2879,0
1789469565.180471,1972,2878,0
1789469565.1830342,2057,2879,0
1789469565.185369,2119,2878,0
1789469565.1866891,2092,2879,0
1789469565.189044,2063,2879,0
1789469565.1913521,2067,2878,0
1789469565.192663,2155,2879,0
1789469565.194999,2074,2880,0
1789469565.198608,2000,2879,0
1789469565.198647,2076,2879,0
1789469565.200945,2132,2879,0
1789469565.203284,2105,2877,0
1789469565.204661,2090,2880,0
1789469565.206775,2027,2879,0
1789469565.2091122,2055,2879,0
1789469565.211481,2072,2880,0
1789469565.212797,1954,2879,0
1789469565.221331,2006,2879,0
1789469565.221909,2170,2879,0
1789469565.2239869,2180,2881,0
1789469565.226302,2124,2880,0
1789469565.226731,2044,2879,0
1789469565.2269208,2100,2878,0
1789469565.230012,2109,2880,0
1789469565.231935,1979,2877,0
1789469565.2319849,1952,2879,0
1789469565.2349591,2104,2880,0
1789469565.2352781,2134,2879,0
1789469565.237834,2076,2880,0
1789469565.239163,1996,2879,0
1789469565.240458,2071,2878,0
1789469565.247818,2227,2879,0
1789469565.249851,2038,2880,0
1789469565.252492,1933,2879,0
1789469565.253532,2060,2878,0
1789469565.25409,2171,2880,0
1789469565.2550452,2135,2880,0
1789469565.2555661,2029,2879,0
1789469565.257382,2025,2878,0
1789469565.2602,2076,2879,0
1789469565.262712,2060,2880,0
1789469565.26279,1984,2879,0
1789469565.264889,1991,2879,0
1789469565.267263,2078,2878,0
1789469565.269469,2169,2880,0
1789469565.270685,2152,2880,0
1789469565.273191,2053,2879,0
1789469565.2754529,2071,2879,0
1789469565.276515,2151,2879,0
1789469565.279517,1996,2877,0
1789469565.280829,1979,2879,0
1789469565.282998,2113,2878,0
1789469565.285412,2191,2879,0
1789469565.286844,2135,2880,0
1789469565.2889678,2059,2878,0
1789469565.291144,2058,2878,0
1789469565.293322,2122,2879,0
1789469565.2944908,2030,2879,0
1789469565.296615,1940,2878,0
1789469565.303735,2041,2879,0
1789469565.303898,2119,2879,0
1789469565.305426,2126,2881,0
1789469565.3070028,2067,2879,0
1789469565.3072,2000,2878,0
1789469565.309598,2059,2878,0
1789469565.310965,2091,2879,0
1789469565.3138828,1984,2877,0
1789469565.316454,2026,2879,0
1789469565.3166468,2112,2880,0
1789469565.319104,2136,2878,0
1789469565.320472,2082,2880,0
1789469565.323013,2074,2878,0
1789469565.329153,2045,2879,0
1789469565.330131,2167,2879,0
1789469565.3315241,2034,2879,0
1789469565.3317251,2015,2880,0
1789469565.333935,2118,2879,0
1789469565.336117,2204,2878,0
1789469565.337813,2114,2879,0
1789469565.340419,2083,2879,0
1789469565.340705,2077,2879,0
1789469565.343333,2162,2880,0
1789469565.3444622,2042,2879,0
1789469565.346803,2021,2878,0
1789469565.3489962,2102,2879,0
1789469565.351509,2125,2878,0
1789469565.352839,2151,2881,0
1789469565.35492,2058,2879,0
1789469565.3572469,2014,2879,0
1789469565.3585532,2117,2879,0
1789469565.3608792,2113,2879,0
1789469565.363195,2002,2877,0
1789469565.364497,2050,2879,0
1789469565.3668559,2140,2878,0
1789469565.3689752,2125,2877,0
1789469565.371181,2054,2878,0
1789469565.3734999,2001,2880,0
1789469565.3748019,2088,2877,0
1789469565.3771179,2079,2878,0
1789469565.378494,1907,2878,0
1789469565.3810298,1958,2878,0
1789469565.383381,2117,2879,0
1789469565.384594,2203,2879,0
1789469565.391891,2164,2879,0
1789469565.392399,2099,2879,0
1789469565.3926039,2048,2879,0
1789469565.393203,2148,2878,0
1789469565.3956292,1979,2877,0
1789469565.3983831,1993,2878,0
1789469565.400536,2075,2879,0
1789469565.402672,2099,2878,0
1789469565.402886,2187,2880,0
1789469565.4054441,2072,2878,0
1789469565.408138,2110,2879,0
1789469565.409206,2126,2879,0
1789469565.411531,2073,2879,0
1789469565.418766,1961,2878,0
1789469565.419344,2047,2879,0
1789469565.419862,2098,2879,0
1789469565.421505,2275,2881,0
1789469565.423035,2092,2878,0
1789469565.423966,1898,2878,0
1789469565.4255412,2010,2878,0
1789469565.427907,2160,2878,0
1789469565.430528,2125,2880,0
1789469565.4310951,1969,2879,0
1789469565.433585,2150,2879,0
1789469565.434783,2120,2878,0
1789469565.437763,2140,2879,0
1789469565.438829,1999,2878,0
1789469565.441131,2106,2879,0
1789469565.4425092,2151,2879,0
1789469565.444829,2192,2879,0
1789469565.446908,1864,2877,0
1789469565.4494941,2030,2879,0
1789469565.450649,2115,2880,0
1789469565.453212,2156,2880,0
1789469565.454572,2295,2879,0
1789469565.457004,1849,2878,0
1789469565.459331,2019,2877,0
1789469565.460632,2107,2880,0
1789469565.4629529,1985,2878,0
1789469565.465277,2052,2880,0
1789469565.4676301,2109,2878,0
1789469565.468696,2073,2877,0
1789469565.475671,2070,2879,0
1789469565.4761732,2090,2878,0
1789469565.4762938,2109,2878,0
1789469565.479004,2297,2879,0
1789469565.4791949,1770,2878,0
1789469565.481646,1990,2879,0
1789469565.4838111,2095,2879,0
1789469565.485931,2281,2881,0
1789469565.48835,2115,2879,0
1789469565.488524,2070,2879,0
1789469565.4911711,1876,2879,0
1789469565.493254,2274,2880,0
1789469565.49563,2140,2879,0
1789469565.500575,2336,2881,0
1789469565.500695,1790,2878,0
1789469565.502069,2099,2879,0
1789469565.504051,2167,2879,0
1789469565.506263,1922,2876,0
1789469565.5077991,2046,2879,0
1789469565.5099788,1987,2879,0
1789469565.5123358,2050,2879,0
1789469565.512626,2007,2877,0
1789469565.515368,1964,2877,0
1789469565.516466,2272,2879,0
1789469565.519039,2081,2879,0
1789469565.521656,2167,2881,0
1789469565.5229561,1928,2878,0
1789469565.5252638,2037,2878,0
1789469565.526467,2233,2879,0
1789469565.5287712,1840,2877,0
1789469565.531086,2038,2877,0
1789469565.533655,2073,2878,0
1789469565.534981,2101,2878,0
1789469565.5375412,2268,2881,0
1789469565.5385962,2111,2878,0
1789469565.5406668,1979,2878,0
1789469565.543005,2076,2879,0
1789469565.545333,1984,2878,0
1789469565.546478,1899,2878,0
1789469565.552466,1954,2879,0
1789469565.552681,2012,2878,0
1789469565.553639,2048,2877,0
1789469565.557536,2103,2880,0
1789469565.558634,2090,2878,0
1789469565.559212,2522,2880,0
1789469565.563027,1903,2879,0
1789469565.565641,1828,2878,0
1789469565.5659761,2068,2879,0
1789469565.5683131,2157,2879,0
1789469565.569403,2139,2879,0
1789469565.570743,2024,2880,0
1789469565.577748,1971,2879,0
1789469565.578361,2040,2880,0
1789469565.578918,2178,2879,0
1789469565.579388,1974,2877,0
1789469565.580875,2013,2879,0
1789469565.583222,2007,2879,0
1789469565.585175,2093,2878,0
1789469565.589634,2060,2878,0
1789469565.589807,2032,2878,0
1789469565.592233,2024,2879,0
1789469565.593289,2070,2878,0
1789469565.594526,1993,2879,0
1789469565.5971022,2012,2878,0
1789469565.5984561,2024,2879,0
1789469565.600746,2150,2880,0
1789469565.603301,2179,2880,0
1789469565.6046069,2073,2880,0
1789469565.6069171,2105,2879,0
1789469565.609238,1900,2878,0
1789469565.61054,1908,2876,0
1789469565.612855,1936,2877,0
1789469565.6154082,2010,2879,0
1789469565.61672,2148,2879,0
1789469565.619282,2122,2878,0
1789469565.620578,2043,2879,0
1789469565.623134,1984,2879,0
1789469565.624487,2070,2879,0
1789469565.63024,2046,2880,0
1789469565.630761,1960,2877,0
1789469565.6316879,2023,2878,0
1789469565.6333702,2072,2878,0
1789469565.635079,2170,2880,0
1789469565.6373062,2113,2880,0
1789469565.639271,2067,2879,0
1789469565.641631,2032,2879,0
1789469565.64388,2149,2879,0
1789469565.645189,2143,2881,0
1789469565.647656,2007,2879,0
1789469565.65257,2085,2878,0
1789469565.653101,2121,2879,0
1789469565.653535,2144,2880,0
1789469565.655773,1954,2879,0
1789469565.657535,2111,2879,0
1789469565.65981,2214,2879,0
1789469565.661806,2059,2879,0
1789469565.664104,1911,2878,0
1789469565.666367,1992,2880,0
1789469565.666604,2134,2879,0
1789469565.6689339,2197,2880,0
1789469565.671402,2136,2881,0
1789469565.672458,2045,2879,0
1789469565.6746309,2099,2879,0
1789469565.676699,2131,2880,0
1789469565.679013,2026,2878,0
1789469565.6813362,1874,2879,0
1789469565.682451,2027,2879,0
1789469565.6847842,2145,2879,0
1789469565.68711,2127,2879,0
1789469565.68855,2022,2879,0
1789469565.69088,2060,2879,0
1789469565.692974,2146,2879,0
1789469565.695455,2040,2880,0
1789469565.6965919,2017,2878,0
1789469565.699162,2052,2878,0
1789469565.700629,2099,2879,0
1789469565.706618,2095,2877,0
1789469565.707293,2053,2880,0
1789469565.707801,2094,2879,0
1789469565.709325,2148,2880,0
1789469565.711159,1999,2879,0
1789469565.712658,1917,2878,0
1789469565.715206,2003,2879,0
1789469565.7178292,2067,2879,0
1789469565.7204401,2208,2880,0
1789469565.720544,2160,2880,0
1789469565.72266,2098,2878,0
1789469565.7254279,2228,2880,0
1789469565.731461,2317,2879,0
1789469565.733182,2167,2880,0
1789469565.7333918,1884,2879,0
1789469565.735299,1991,2879,0
1789469565.736314,2089,2878,0
1789469565.736898,2135,2881,0
1789469565.7421749,2086,2878,0
1789469565.742351,2059,2879,0
1789469565.742559,2114,2879,0
1789469565.745627,2136,2879,0
1789469565.746708,1864,2877,0
1789469565.7492769,2055,2879,0
1789469565.750665,2216,2879,0
1789469565.7533681,2011,2878,0
1789469565.754894,1979,2880,0
1789469565.7574651,2055,2879,0
1789469565.758518,2152,2878,0
1789469565.760653,1998,2879,0
1789469565.7628841,1957,2878,0
1789469565.76497,1941,2879,0
1789469565.767529,2100,2878,0
1789469565.768827,2166,2879,0
1789469565.7711549,1983,2877,0
1789469565.772459,1937,2879,0
1789469565.774776,2096,2879,0
1789469565.776874,2186,2879,0
1789469565.7794418,1933,2877,0
1789469565.780781,1884,2880,0
1789469565.783247,2104,2878,0
1789469565.784456,2205,2878,0
1789469565.7914062,2130,2877,0
1789469565.791966,1935,2879,0
1789469565.792532,2056,2878,0
1789469565.793139,2254,2879,0
1789469565.795072,2085,2879,0
1789469565.797982,1972,2877,0
1789469565.80128,2089,2879,0
1789469565.8014588,2202,2879,0
1789469565.8038778,2266,2879,0
1789469565.8063529,2121,2879,0
1789469565.806483,2071,2879,0
1789469565.8090508,2077,2879,0
1789469565.811239,2018,2879,0
1789469565.81343,1952,2877,0
1789469565.819315,1929,2879,0
1789469565.819443,2076,2879,0
1789469565.8200262,2162,2880,0
1789469565.8223832,2072,2879,0
1789469565.82257,2050,2878,0
1789469565.8256,2104,2879,0
1789469565.830796,2100,2878,0
1789469565.833187,1951,2876,0
1789469565.833447,1929,2880,0
1789469565.833497,2072,2880,0
1789469565.8348002,2204,2879,0
1789469565.8373,2113,2878,0
1789469565.8386161,2063,2880,0
1789469565.841179,2014,2878,0
1789469565.8424919,2139,2879,0
1789469565.8445818,2115,2880,0
1789469565.84717,1883,2877,0
1789469565.848501,1937,2878,0
1789469565.851081,2041,2879,0
1789469565.852463,2117,2878,0
1789469565.854784,1987,2880,0
1789469565.8571079,2047,2879,0
1789469565.858546,2034,2878,0
1789469565.861109,2064,2879,0
1789469565.863468,1926,2878,0
1789469565.864786,1939,2878,0
1789469565.8671339,2277,2878,0
1789469565.868451,2312,2878,0
1789469565.879309,2241,2880,0
1789469565.880815,2111,2879,0
1789469565.88222,2064,2879,0
1789469565.882432,2173,2879,0
1789469565.885237,2000,2878,0
1789469565.8854148,2061,2878,0
1789469565.887118,1936,2879,0
1789469565.887379,2121,2879,0
1789469565.8898351,2307,2880,0
1789469565.890435,1949,2879,0
1789469565.893365,1901,2877,0
1789469565.893655,2117,2879,0
1789469565.894728,2040,2880,0
1789469565.8973188,1741,2879,0
1789469565.898449,1948,2879,0
1789469565.901133,2128,2879,0
1789469565.904007,2239,2880,0
1789469565.909684,2063,2879,0
1789469565.910818,1992,2878,0
1789469565.911485,2028,2880,0
1789469565.9130728,2058,2879,0
1789469565.915602,2080,2878,0
1789469565.918082,2016,2878,0
1789469565.9188259,2039,2878,0
1789469565.920801,2190,2878,0
1789469565.923674,2117,2880,0
1789469565.924033,2074,2879,0
1789469565.925998,2082,2878,0
1789469565.927562,2082,2879,0
1789469565.928777,1972,2878,0
1789469565.931605,1928,2879,0
1789469565.9329422,1834,2878,0
1789469565.935512,2185,2880,0
1789469565.936832,2222,2880,0
1789469565.939144,2188,2878,0
1789469565.941302,1932,2878,0
1789469565.942467,2108,2879,0
1789469565.944606,2083,2880,0
1789469565.947184,1989,2878,0
1789469565.949308,1975,2879,0
1789469565.950615,2031,2879,0
1789469565.9527879,2187,2877,0
1789469565.954869,2038,2880,0
1789469565.957331,2026,2879,0
1789469565.958507,2037,2878,0
1789469565.96088,2037,2879,0
1789469565.963457,1867,2877,0
1789469565.964538,2145,2879,0
1789469565.971837,1942,2878,0
1789469565.972965,2076,2878,0
1789469565.973599,2203,2880,0
1789469565.975737,2036,2879,0
1789469565.977772,2015,2879,0
1789469565.978343,2015,2879,0
1789469565.9789271,1892,2877,0
1789469565.980911,1842,2879,0
1789469565.985584,2322,2880,0
1789469565.985983,2248,2878,0
1789469565.988255,2049,2877,0
1789469565.989459,1969,2880,0
1789469565.990774,1714,2879,0
1789469565.998983,2229,2879,0
1789469566.00041,1994,2880,0
1789469566.000708,1998,2879,0
1789469566.00084,1952,2879,0
1789469566.0010722,2039,2878,0
1789469566.0033522,2166,2878,0
1789469566.005273,2176,2879,0
1789469566.007339,1759,2878,0
1789469566.010008,2189,2879,0
1789469566.012007,2336,2880,0
1789469566.013088,1967,2878,0
1789469566.0144472,1830,2878,0
1789469566.0168881,1998,2879,0
1789469566.019636,2194,2878,0
1789469566.0209541,2104,2880,0
1789469566.023277,2044,2879,0
1789469566.025416,1974,2877,0
1789469566.026488,2161,2879,0
1789469566.028579,1847,2876,0
1789469566.0306811,1673,2879,0
1789469566.033298,2158,2879,0
1789469566.034614,2258,2878,0
1789469566.037178,2083,2881,0
1789469566.038687,2072,2879,0
1789469566.0410502,2091,2879,0
1789469566.043416,2234,2879,0
1789469566.0447419,2126,2879,0
1789469566.046871,1988,2878,0
1789469566.049352,1946,2878,0
1789469566.0504692,2148,2878,0
1789469566.057475,2180,2878,0
1789469566.060013,2085,2880,0
1789469566.0601752,2083,2879,0
1789469566.06038,2003,2878,0
1789469566.060596,1927,2878,0
1789469566.0644999,1888,2877,0
1789469566.0657558,2111,2879,0
1789469566.0676742,2420,2879,0
1789469566.070348,2343,2881,0
1789469566.070515,2047,2880,0
1789469566.073075,2022,2879,0
1789469566.074498,2330,2879,0
1789469566.076882,2203,2879,0
1789469566.0826979,1801,2878,0
1789469566.0834281,1958,2879,0
1789469566.084502,2060,2879,0
1789469566.0861728,2087,2879,0
1789469566.088507,1869,2878,0
1789469566.08947,1906,2879,0
1789469566.091112,2035,2879,0
1789469566.092871,2320,2879,0
1789469566.095437,2316,2880,0
1789469566.098092,2156,2877,0
1789469566.0991611,2089,2879,0
1789469566.100466,2313,2878,0
1789469566.102793,2130,2877,0
1789469566.104937,2236,2880,0
1789469566.107399,2066,2878,0
1789469566.108702,2081,2877,0
1789469566.110964,1901,2878,0
1789469566.11333,1915,2878,0
1789469566.11463,2068,2880,0
1789469566.1170619,1944,2879,0
1789469566.1193979,2099,2879,0
1789469566.1207,1982,2877,0
1789469566.122817,1899,2879,0
1789469566.12538,2094,2879,0
1789469566.126677,2171,2880,0
1789469566.12924,1808,2877,0
1789469566.1305401,1831,2878,0
1789469566.132788,2166,2878,0
1789469566.139646,2279,2879,0
1789469566.1406531,2185,2881,0
1789469566.1413708,2316,2880,0
1789469566.143324,2168,2879,0
1789469566.143718,2233,2879,0
1789469566.1529899,1812,2877,0
1789469566.153609,1768,2878,0
1789469566.153868,2111,2879,0
1789469566.155936,2225,2879,0
1789469566.1565518,2209,2881,0
1789469566.156939,1827,2877,0
1789469566.156985,1765,2878,0
1789469566.1594229,2055,2879,0
1789469566.160736,2151,2880,0
1789469566.167319,1904,2877,0
1789469566.168202,1897,2880,0
1789469566.16835,2347,2879,0
1789469566.170003,2004,2878,0
1789469566.172828,1918,2877,0
1789469566.173832,2078,2880,0
1789469566.176515,2085,2878,0
1789469566.176718,2440,2879,0
1789469566.179822,1930,2877,0
1789469566.1822028,1702,2878,0
1789469566.183436,1967,2879,0
1789469566.184758,2248,2879,0
1789469566.1872,2234,2881,0
1789469566.1892831,1856,2880,0
1789469566.1905868,1852,2879,0
1789469566.192922,1891,2879,0
1789469566.195385,1947,2880,0
1789469566.19648,1881,2879,0
1789469566.1990762,1979,2880,0
1789469566.201194,2069,2880,0
1789469566.2036018,2138,2879,0
1789469566.204763,2045,2880,0
1789469566.206888,1944,2878,0
1789469566.209322,2064,2879,0
1789469566.210782,2137,2880,0
1789469566.21336,2063,2878,0
1789469566.214804,1970,2878,0
1789469566.217213,1987,2880,0
1789469566.2230191,2247,2878,0
1789469566.2245681,2097,2880,0
1789469566.225129,2040,2878,0
1789469566.229179,1983,2878,0
1789469566.229742,2070,2879,0
1789469566.231529,1923,2878,0
1789469566.234019,2000,2879,0
1789469566.236757,2109,2878,0
1789469566.2370062,2096,2879,0
1789469566.237273,1941,2878,0
1789469566.239684,2020,2879,0
1789469566.240997,2167,2879,0
1789469566.2433112,2322,2879,0
1789469566.2449799,2157,2879,0
1789469566.252544,2115,2878,0
1789469566.2527611,2001,2878,0
1789469566.253021,2105,2879,0
1789469566.2554398,2263,2881,0
1789469566.25602,2235,2879,0
1789469566.258028,2085,2879,0
1789469566.262271,2004,2879,0
1789469566.262484,1889,2878,0
1789469566.262666,1879,2878,0
1789469566.265035,1990,2879,0
1789469566.267488,2253,2879,0
1789469566.268808,2027,2878,0
1789469566.270899,1953,2878,0
1789469566.273382,1976,2879,0
1789469566.275549,2167,2880,0
1789469566.27675,2244,2879,0
1789469566.2791731,2021,2880,0
1789469566.280586,1999,2879,0
1789469566.283087,1962,2879,0
1789469566.28447,2152,2878,0
1789469566.286979,2247,2881,0
1789469566.2893069,2176,2879,0
1789469566.2914932,1987,2879,0
1789469566.292564,2030,2879,0
1789469566.295131,2123,2880,0
1789469566.297279,1973,2877,0
1789469566.29849,2069,2879,0
1789469566.30087,2176,2879,0
1789469566.303234,2211,2881,0
1789469566.308703,2188,2880,0
1789469566.3092852,2116,2879,0
1789469566.31074,2217,2878,0
1789469566.312541,2174,2880,0
1789469566.3147871,1895,2879,0
1789469566.317421,1884,2878,0
1789469566.3196049,2124,2879,0
1789469566.322819,2278,2881,0
1789469566.3230941,2163,2880,0
1789469566.3232179,2078,2879,0
1789469566.325749,1995,2877,0
1789469566.3270452,2152,2880,0
1789469566.3294551,2036,2882,0
1789469566.330678,2020,2878,0
1789469566.333297,2031,2878,0
1789469566.334461,2166,2878,0
1789469566.3404741,2068,2877,0
1789469566.3410811,1967,2879,0
1789469566.3416052,1852,2879,0
1789469566.3435972,2056,2879,0
1789469566.346061,2108,2879,0
1789469566.348694,2025,2878,0
1789469566.3508759,2180,2879,0
1789469566.353632,2236,2879,0
1789469566.354014,2160,2879,0
1789469566.356473,2075,2879,0
1789469566.356684,1860,2879,0
1789469566.3590882,1976,2879,0
1789469566.360491,2212,2880,0
1789469566.362838,1983,2878,0
1789469566.365652,1811,2879,0
1789469566.367154,1974,2878,0
1789469566.368737,2158,2879,0
1789469566.370972,2346,2880,0
1789469566.373587,2205,2877,0
1789469566.374843,2139,2878,0
1789469566.3772879,2115,2878,0
1789469566.378742,1934,2877,0
1789469566.38132,1945,2877,0
1789469566.382626,2078,2880,0
1789469566.38523,2172,2879,0
1789469566.386555,2101,2881,0
1789469566.3886259,2031,2879,0
1789469566.39119,2104,2879,0
1789469566.392471,2343,2879,0
1789469566.394858,2123,2879,0
1789469566.401346,1990,2878,0
1789469566.402477,2018,2878,0
1789469566.4041548,2121,2879,0
1789469566.404434,2049,2877,0
1789469566.406533,2023,2880,0
1789469566.407058,2092,2880,0
1789469566.410763,2115,2879,0
1789469566.413516,2099,2879,0
1789469566.4136572,2044,2878,0
1789469566.4156852,2053,2878,0
1789469566.416755,2196,2880,0
1789469566.4190779,2304,2880,0
1789469566.42125,2158,2879,0
1789469566.428355,2000,2879,0
1789469566.429017,2032,2878,0
1789469566.429583,2248,2879,0
1789469566.430491,1954,2879,0
1789469566.432068,1926,2879,0
1789469566.435221,2112,2879,0
1789469566.435827,2160,2879,0
1789469566.4374242,2151,2882,0
1789469566.4416718,2032,2877,0
1789469566.441928,2023,2879,0
1789469566.4444458,2171,2880,0
1789469566.444701,2016,2880,0
1789469566.447032,2085,2879,0
