timestamp,ch1,ch2,label
1789469677.922765,2098,2880,3_S
1789469677.922935,2047,2880,3_S
1789469677.925132,1903,2878,3_S
1789469677.9272032,2029,2879,3_S
1789469677.928567,2172,2879,3_S
1789469677.931898,2265,2880,3_S
1789469677.93438,2129,2880,3_S
1789469677.934549,1966,2879,3_S
1789469677.937106,2096,2880,3_S
1789469677.938399,2100,2880,3_S
1789469677.940466,1900,2877,3_S
1789469677.94277,1896,2879,3_S
1789469677.9441762,2077,2880,3_S
1789469677.946728,2172,2880,3_S
1789469677.9492722,2128,2879,3_S
1789469677.950558,1997,2878,3_S
1789469677.953099,1952,2879,3_S
1789469677.9543839,2083,2879,3_S
1789469677.956699,2000,2877,3_S
1789469677.959237,1996,2879,3_S
1789469677.9605272,2148,2878,3_S
1789469677.962968,2257,2880,3_S
1789469677.965276,2246,2880,3_S
1789469677.966559,2080,2878,3_S
1789469677.9686852,2042,2879,3_S
1789469677.970937,2110,2880,3_S
1789469677.973003,2086,2880,3_S
1789469677.975064,1911,2878,3_S
1789469677.976182,1996,2879,3_S
1789469677.9787378,2127,2879,3_S
1789469677.9810328,2130,2878,3_S
1789469677.983346,2050,2881,3_S
1789469677.984404,2015,2879,3_S
1789469677.986754,2094,2879,3_S
1789469677.991107,2160,2880,3_S
1789469677.992279,1918,2878,3_S
1789469677.993845,1880,2878,3_S
1789469677.9956732,2068,2879,3_S
1789469677.997647,2134,2880,3_S
1789469677.999613,2103,2880,3_S
1789469678.0015569,2021,2879,3_S
1789469678.0028539,1992,2878,3_S
1789469678.005132,2156,2879,3_S
1789469678.006422,2010,2880,3_S
1789469678.008654,1990,2880,3_S
1789469678.01121,2070,2878,3_S
1789469678.012265,2217,2879,3_S
1789469678.014334,2195,2881,3_S
1789469678.016806,2066,2880,3_S
1789469678.019116,2051,2879,3_S
1789469678.0201862,2165,2879,3_S
1789469678.0227358,2104,2880,3_S
1789469678.025277,1918,2878,3_S
1789469678.026567,1990,2880,3_S
1789469678.028629,2100,2879,3_S
1789469678.031061,2222,2879,3_S
1789469678.03218,2117,2879,3_S
1789469678.0343392,2017,2878,3_S
1789469678.036521,2047,2879,3_S
1789469678.039059,2111,2879,3_S
1789469678.040343,1925,2877,3_S
1789469678.042887,1937,2880,3_S
1789469678.044173,2098,2879,3_S
1789469678.046238,2194,2880,3_S
1789469678.04829,2110,2880,3_S
1789469678.050584,2000,2879,3_S
1789469678.0531268,2034,2879,3_S
1789469678.0541859,2177,2879,3_S
1789469678.0564969,2110,2881,3_S
1789469678.058799,1937,2878,3_S
1789469678.061106,1984,2880,3_S
1789469678.0621881,2219,2878,3_S
1789469678.064726,2210,2881,3_S
1789469678.066862,2062,2880,3_S
1789469678.069162,2066,2878,3_S
1789469678.0702112,2184,2880,3_S
1789469678.072441,2082,2880,3_S
1789469678.0749838,1939,2877,3_S
1789469678.0762691,1990,2879,3_S
1789469678.0783439,2143,2879,3_S
1789469678.080888,2220,2878,3_S
1789469678.0822241,2139,2879,3_S
1789469678.086384,2042,2879,3_S
1789469678.087452,2045,2879,3_S
1789469678.09025,2120,2879,3_S
1789469678.090399,1983,2879,3_S
1789469678.093676,1862,2879,3_S
1789469678.0957398,2123,2878,3_S
1789469678.096991,2270,2879,3_S
1789469678.09917,2134,2880,3_S
1789469678.100223,2014,2879,3_S
1789469678.102771,2032,2880,3_S
1789469678.105084,2245,2880,3_S
1789469678.106377,2107,2880,3_S
1789469678.1086988,1963,2878,3_S
1789469678.110833,2032,2879,3_S
1789469678.1131399,2195,2880,3_S
1789469678.11419,2254,2881,3_S
1789469678.1167328,2073,2880,3_S
1789469678.1191418,1959,2878,3_S
1789469678.120196,2087,2880,3_S
1789469678.122733,2037,2879,3_S
1789469678.125279,1878,2879,3_S
1789469678.126563,2031,2879,3_S
1789469678.129108,2152,2879,3_S
1789469678.1303701,2223,2881,3_S
1789469678.132674,2088,2880,3_S
1789469678.134971,2013,2878,3_S
1789469678.1362538,2088,2878,3_S
1789469678.1388018,2176,2879,3_S
1789469678.140949,1996,2879,3_S
1789469678.143009,1941,2879,3_S
1789469678.144175,2048,2878,3_S
1789469678.146472,2196,2880,3_S
1789469678.148524,2194,2880,3_S
1789469678.1508281,2019,2878,3_S
1789469678.1524348,2036,2878,3_S
1789469678.156031,2156,2879,3_S
1789469678.156194,2043,2879,3_S
1789469678.1600251,1921,2878,3_S
1789469678.160533,2054,2880,3_S
1789469678.1641831,2157,2879,3_S
1789469678.164331,2185,2880,3_S
1789469678.166904,2065,2880,3_S
1789469678.168213,1947,2880,3_S
1789469678.170458,2156,2879,3_S
1789469678.172566,2072,2881,3_S
1789469678.176766,1945,2877,3_S
1789469678.1774871,2039,2879,3_S
1789469678.178995,2211,2879,3_S
1789469678.181049,2270,2880,3_S
1789469678.182554,2178,2879,3_S
1789469678.184639,2057,2879,3_S
1789469678.186622,2070,2878,3_S
1789469678.189186,2114,2879,3_S
1789469678.1904728,2048,2879,3_S
1789469678.193025,1985,2879,3_S
1789469678.194241,2090,2879,3_S
1789469678.1967921,2262,2879,3_S
1789469678.199336,2174,2880,3_S
1789469678.200553,2076,2878,3_S
1789469678.203098,2049,2879,3_S
1789469678.2041988,2145,2879,3_S
1789469678.206437,2004,2877,3_S
1789469678.208977,1920,2879,3_S
1789469678.210261,2049,2880,3_S
1789469678.212557,2161,2878,3_S
1789469678.2150989,2145,2880,3_S
1789469678.216384,2060,2880,3_S
1789469678.218689,2020,2879,3_S
1789469678.220993,2174,2879,3_S
1789469678.2222779,2077,2879,3_S
1789469678.224501,1906,2878,3_S
1789469678.2267962,1912,2878,3_S
1789469678.229088,2115,2879,3_S
1789469678.230176,2255,2880,3_S
1789469678.232717,2073,2880,3_S
1789469678.234813,1916,2878,3_S
1789469678.236161,2067,2878,3_S
1789469678.2417421,2150,2880,3_S
1789469678.242516,2012,2877,3_S
1789469678.243191,2010,2879,3_S
1789469678.245913,2107,2879,3_S
1789469678.2471502,2165,2878,3_S
1789469678.249044,2199,2880,3_S
1789469678.250368,2091,2878,3_S
1789469678.252321,2074,2879,3_S
1789469678.254771,2164,2879,3_S
1789469678.25735,2006,2878,3_S
1789469678.261766,1942,2878,3_S
1789469678.2621949,2057,2878,3_S
1789469678.262895,2177,2879,3_S
1789469678.26552,2195,2881,3_S
1789469678.267265,2064,2878,3_S
1789469678.268497,2033,2879,3_S
1789469678.271134,2180,2879,3_S
1789469678.272438,2067,2880,3_S
1789469678.274754,1907,2879,3_S
1789469678.277299,2013,2878,3_S
1789469678.278461,2204,2879,3_S
1789469678.281016,2261,2880,3_S
1789469678.282301,2137,2879,3_S
1789469678.2846808,2065,2879,3_S
1789469678.2872279,2120,2880,3_S
1789469678.288516,2147,2879,3_S
1789469678.291059,2013,2878,3_S
1789469678.292347,1981,2880,3_S
1789469678.2948868,2162,2879,3_S
1789469678.297018,2227,2878,3_S
1789469678.2993321,2150,2881,3_S
1789469678.300621,1980,2878,3_S
1789469678.3026838,2004,2879,3_S
1789469678.305226,2215,2879,3_S
1789469678.306269,2043,2880,3_S
1789469678.308568,1948,2880,3_S
1789469678.310627,2027,2878,3_S
1789469678.3129358,2152,2878,3_S
1789469678.315237,2170,2880,3_S
1789469678.316523,2036,2879,3_S
1789469678.3190668,1964,2878,3_S
1789469678.320353,2113,2879,3_S
1789469678.325454,2050,2880,3_S
1789469678.325841,1995,2878,3_S
1789469678.327848,2027,2879,3_S
1789469678.330007,2211,2879,3_S
1789469678.331393,2209,2878,3_S
1789469678.333914,2101,2880,3_S
1789469678.335648,2080,2878,3_S
1789469678.3367019,2110,2879,3_S
1789469678.3391051,2180,2879,3_S
1789469678.340172,1957,2878,3_S
1789469678.3422341,2000,2878,3_S
1789469678.344805,2167,2880,3_S
1789469678.347113,2222,2880,3_S
1789469678.3481688,2165,2879,3_S
1789469678.3504739,2024,2879,3_S
1789469678.352777,2032,2879,3_S
1789469678.355078,2101,2878,3_S
1789469678.3563662,1994,2878,3_S
1789469678.358912,1957,2879,3_S
1789469678.3601978,1996,2879,3_S
1789469678.3627431,2196,2878,3_S
1789469678.365046,2193,2880,3_S
1789469678.3663292,2059,2879,3_S
1789469678.368885,2035,2878,3_S
1789469678.371348,2160,2880,3_S
1789469678.372641,2139,2880,3_S
1789469678.375181,1912,2877,3_S
1789469678.376466,1949,2879,3_S
1789469678.378773,2156,2879,3_S
1789469678.38019,2232,2880,3_S
1789469678.38273,2137,2880,3_S
1789469678.3847868,2006,2879,3_S
1789469678.387087,2029,2880,3_S
1789469678.388223,2153,2879,3_S
1789469678.394071,2056,2878,3_S
1789469678.3945029,1980,2878,3_S
1789469678.394683,2131,2879,3_S
1789469678.396344,2183,2878,3_S
1789469678.3995788,2167,2880,3_S
1789469678.401029,2047,2878,3_S
1789469678.402391,2022,2880,3_S
1789469678.404923,2182,2879,3_S
1789469678.4070458,2063,2880,3_S
1789469678.408333,1817,2878,3_S
1789469678.4108539,2049,2880,3_S
1789469678.4147909,2148,2879,3_S
1789469678.415194,2146,2881,3_S
1789469678.41715,2097,2879,3_S
1789469678.418685,2073,2879,3_S
1789469678.4231749,2232,2880,3_S
1789469678.4232728,2151,2879,3_S
1789469678.425081,1960,2878,3_S
1789469678.4263968,2015,2880,3_S
1789469678.428711,2133,2880,3_S
1789469678.431083,2203,2878,3_S
1789469678.433408,2114,2880,3_S
1789469678.4344661,2067,2878,3_S
1789469678.4367611,2048,2879,3_S
1789469678.439065,2169,2880,3_S
1789469678.440351,1953,2877,3_S
1789469678.44242,1983,2878,3_S
1789469678.444704,2099,2879,3_S
1789469678.447011,2210,2879,3_S
1789469678.449207,2184,2880,3_S
1789469678.450258,2094,2880,3_S
1789469678.452797,2038,2879,3_S
1789469678.4550972,2149,2878,3_S
1789469678.456382,2047,2880,3_S
1789469678.458731,1934,2878,3_S
1789469678.461162,2008,2880,3_S
1789469678.462212,2124,2880,3_S
1789469678.464511,2160,2879,3_S
1789469678.466811,2033,2879,3_S
1789469678.4693499,1986,2880,3_S
1789469678.4703948,2169,2880,3_S
1789469678.472691,2050,2880,3_S
1789469678.4749901,1835,2880,3_S
1789469678.4808488,1923,2879,3_S
1789469678.481277,2099,2879,3_S
1789469678.482047,2221,2877,3_S
1789469678.484685,2200,2880,3_S
1789469678.485047,2050,2879,3_S
1789469678.4863942,2078,2879,3_S
1789469678.489389,2085,2879,3_S
1789469678.4909902,1956,2877,3_S
1789469678.49228,1951,2879,3_S
1789469678.494835,2191,2880,3_S
1789469678.497163,2210,2879,3_S
1789469678.5019221,2146,2879,3_S
1789469678.502681,2025,2880,3_S
1789469678.503115,2024,2878,3_S
1789469678.505974,2145,2879,3_S
1789469678.507373,2020,2880,3_S
1789469678.509087,1859,2879,3_S
1789469678.510584,2043,2880,3_S
1789469678.512937,2165,2879,3_S
1789469678.5153432,2177,2880,3_S
1789469678.516393,2063,2879,3_S
1789469678.5189362,2003,2880,3_S
1789469678.5210738,2149,2879,3_S
1789469678.523277,2109,2879,3_S
1789469678.5245628,2032,2878,3_S
1789469678.5271082,2043,2879,3_S
1789469678.528395,2194,2879,3_S
1789469678.530699,2203,2878,3_S
1789469678.533001,2064,2880,3_S
1789469678.5353029,1982,2878,3_S
1789469678.5363462,2097,2879,3_S
1789469678.538651,2140,2878,3_S
1789469678.540722,1979,2878,3_S
1789469678.543263,1924,2879,3_S
1789469678.544319,2181,2879,3_S
1789469678.54637,2245,2880,3_S
1789469678.548639,2182,2879,3_S
1789469678.550986,2029,2879,3_S
1789469678.553272,2043,2879,3_S
1789469678.554563,2107,2879,3_S
1789469678.5568588,1966,2878,3_S
1789469678.559402,1907,2879,3_S
1789469678.560447,2014,2879,3_S
1789469678.562743,2147,2878,3_S
1789469678.565284,2166,2880,3_S
1789469678.5699048,2036,2879,3_S
1789469678.5700228,1927,2879,3_S
1789469678.5721111,2147,2879,3_S
1789469678.573471,2075,2879,3_S
1789469678.574812,1951,2878,3_S
1789469678.576598,1979,2879,3_S
1789469678.579853,2109,2878,3_S
1789469678.581146,2260,2881,3_S
1789469678.582431,2124,2880,3_S
1789469678.5847318,2053,2878,3_S
1789469678.5863721,2093,2880,3_S
1789469678.5905652,2108,2880,3_S
1789469678.5909371,1933,2878,3_S
1789469678.592756,1989,2878,3_S
1789469678.594928,2112,2878,3_S
1789469678.597066,2190,2878,3_S
1789469678.598591,2106,2879,3_S
1789469678.601185,2038,2878,3_S
1789469678.602328,2063,2878,3_S
1789469678.604631,2184,2879,3_S
1789469678.607179,1980,2877,3_S
1789469678.608475,1942,2880,3_S
1789469678.610791,2025,2880,3_S
1789469678.613143,2202,2880,3_S
1789469678.614429,2211,2881,3_S
1789469678.6164951,2054,2880,3_S
1789469678.6190348,2024,2880,3_S
1789469678.620325,2143,2880,3_S
1789469678.622398,2015,2881,3_S
1789469678.624703,1987,2877,3_S
1789469678.626799,1994,2880,3_S
1789469678.6292539,2138,2879,3_S
1789469678.630319,2193,2878,3_S
1789469678.632857,2136,2880,3_S
1789469678.635207,2026,2879,3_S
1789469678.636495,2050,2879,3_S
1789469678.63904,2100,2879,3_S
1789469678.640324,1984,2878,3_S
1789469678.642404,1977,2878,3_S
1789469678.6447082,2147,2880,3_S
1789469678.646927,2242,2879,3_S
1789469678.6483252,2121,2880,3_S
1789469678.654051,1998,2879,3_S
1789469678.654838,2044,2879,3_S
1789469678.655636,2149,2879,3_S
1789469678.6579661,1910,2878,3_S
1789469678.6596742,1929,2878,3_S
1789469678.661045,2018,2879,3_S
1789469678.662783,2114,2879,3_S
1789469678.665462,2202,2879,3_S
1789469678.666508,2096,2879,3_S
1789469678.66881,2016,2877,3_S
1789469678.67484,2162,2878,3_S
1789469678.675311,2132,2879,3_S
1789469678.6757262,2003,2877,3_S
1789469678.678472,2004,2879,3_S
1789469678.6789172,2118,2880,3_S
1789469678.6815722,2212,2878,3_S
1789469678.683342,2189,2879,3_S
1789469678.685324,2038,2878,3_S
1789469678.686622,2109,2879,3_S
1789469678.689173,2105,2879,3_S
1789469678.690312,1966,2877,3_S
1789469678.692387,1958,2879,3_S
1789469678.694487,2083,2878,3_S
1789469678.697034,2183,2879,3_S
1789469678.6983192,2127,2880,3_S
1789469678.700628,2042,2879,3_S
1789469678.702934,2038,2880,3_S
1789469678.7049909,2158,2880,3_S
1789469678.7063391,2000,2878,3_S
1789469678.7088902,1844,2880,3_S
1789469678.711448,1962,2880,3_S
1789469678.712491,2207,2879,3_S
1789469678.715029,2259,2880,3_S
1789469678.716318,2156,2880,3_S
1789469678.718615,2035,2879,3_S
1789469678.721161,2173,2880,3_S
1789469678.7222762,2043,2879,3_S
1789469678.724332,2014,2879,3_S
1789469678.726841,2036,2879,3_S
1789469678.729137,2108,2880,3_S
1789469678.7314382,2197,2878,3_S
1789469678.732723,2078,2880,3_S
1789469678.735262,1947,2879,3_S
1789469678.736385,2104,2879,3_S
1789469678.741529,2174,2880,3_S
1789469678.741678,1996,2878,3_S
1789469678.743486,1941,2878,3_S
1789469678.745353,2213,2879,3_S
1789469678.746987,2246,2879,3_S
1789469678.7487712,2160,2880,3_S
1789469678.750357,1984,2878,3_S
1789469678.7530081,1969,2879,3_S
1789469678.755321,2064,2879,3_S
1789469678.7563689,1998,2878,3_S
1789469678.7618618,1969,2879,3_S
1789469678.762253,2097,2879,3_S
1789469678.763041,2230,2879,3_S
1789469678.7654998,2184,2880,3_S
1789469678.768159,2124,2879,3_S
1789469678.7683241,2015,2879,3_S
1789469678.7718642,2118,2879,3_S
1789469678.773159,2074,2878,3_S
1789469678.774452,1964,2878,3_S
1789469678.7771719,2087,2878,3_S
1789469678.778286,2135,2879,3_S
1789469678.7808452,2200,2878,3_S
1789469678.7831612,2082,2879,3_S
1789469678.784449,2074,2879,3_S
1789469678.786761,2138,2879,3_S
1789469678.788818,2066,2880,3_S
1789469678.791361,1945,2878,3_S
1789469678.792408,1926,2879,3_S
1789469678.794624,2099,2879,3_S
1789469678.796981,2190,2880,3_S
1789469678.7983072,2149,2880,3_S
1789469678.8005362,2008,2879,3_S
1789469678.802803,2029,2879,3_S
1789469678.8048651,2142,2879,3_S
1789469678.807182,2056,2880,3_S
1789469678.808467,1917,2880,3_S
1789469678.811006,2101,2878,3_S
1789469678.812286,2144,2879,3_S
1789469678.814825,2126,2881,3_S
1789469678.8173661,2075,2878,3_S
1789469678.81865,1998,2879,3_S
1789469678.821194,2128,2879,3_S
1789469678.8260858,2108,2879,3_S
1789469678.826538,1920,2877,3_S
1789469678.8273668,1992,2880,3_S
1789469678.8287911,2132,2878,3_S
1789469678.831573,2205,2878,3_S
1789469678.835108,2100,2880,3_S
1789469678.835278,2039,2879,3_S
1789469678.8371358,2124,2880,3_S
1789469678.838439,2158,2879,3_S
1789469678.840984,1985,2877,3_S
1789469678.842287,1896,2879,3_S
1789469678.8472059,2135,2879,3_S
1789469678.847371,2203,2879,3_S
1789469678.8493938,2129,2880,3_S
1789469678.851678,2052,2879,3_S
1789469678.8530612,2062,2878,3_S
1789469678.8560581,2150,2879,3_S
1789469678.8576698,2159,2880,3_S
1789469678.858729,1877,2879,3_S
1789469678.861035,2073,2878,3_S
1789469678.8631449,2163,2879,3_S
1789469678.8642921,2131,2878,3_S
1789469678.866848,2101,2879,3_S
1789469678.869007,1953,2880,3_S
1789469678.871307,2091,2879,3_S
1789469678.8725948,1961,2879,3_S
1789469678.874794,1823,2877,3_S
1789469678.877068,2124,2878,3_S
1789469678.879146,2268,2879,3_S
1789469678.8803132,2153,2879,3_S
1789469678.882625,2036,2880,3_S
1789469678.8851671,2016,2879,3_S
1789469678.886451,2109,2878,3_S
1789469678.888997,2211,2879,3_S
1789469678.890342,2080,2878,3_S
1789469678.892867,1973,2879,3_S
1789469678.895036,2092,2880,3_S
1789469678.89632,2143,2878,3_S
1789469678.8988612,2119,2880,3_S
1789469678.901168,2055,2879,3_S
1789469678.9023218,2065,2878,3_S
1789469678.904403,2111,2879,3_S
1789469678.9067688,2019,2878,3_S
1789469678.9090712,1847,2878,3_S
1789469678.914849,2088,2879,3_S
1789469678.915293,2278,2880,3_S
1789469678.915712,2125,2878,3_S
1789469678.917527,2056,2879,3_S
1789469678.9193091,2053,2878,3_S
1789469678.921071,2186,2879,3_S
1789469678.9240708,2066,2880,3_S
1789469678.925892,1948,2878,3_S
1789469678.9271822,1983,2879,3_S
1789469678.928471,2143,2880,3_S
1789469678.931015,2219,2879,3_S
1789469678.9323368,2205,2880,3_S
1789469678.9349089,2099,2879,3_S
1789469678.9371588,2072,2880,3_S
1789469678.9384499,2204,2879,3_S
1789469678.940993,1783,2877,3_S
1789469678.942317,1865,2879,3_S
1789469678.9446132,2047,2879,3_S
1789469678.946681,2202,2879,3_S
1789469678.948982,2095,2880,3_S
1789469678.9512792,2008,2879,3_S
1789469678.9523368,1964,2879,3_S
1789469678.954396,2067,2879,3_S
1789469678.956467,1962,2878,3_S
1789469678.958781,1925,2880,3_S
1789469678.96108,2177,2879,3_S
1789469678.962373,2258,2879,3_S
1789469678.96467,2201,2881,3_S
1789469678.96721,2088,2878,3_S
1789469678.968496,2020,2879,3_S
1789469678.9710348,2181,2878,3_S
1789469678.972321,2086,2880,3_S
1789469678.974863,1941,2878,3_S
1789469678.977403,1979,2878,3_S
1789469678.98162,2159,2880,3_S
1789469678.982381,2171,2879,3_S
1789469678.982808,2067,2879,3_S
1789469678.984958,2029,2878,3_S
1789469678.9866922,2112,2879,3_S
1789469678.988467,2271,2881,3_S
1789469678.9906812,2050,2877,3_S
1789469678.99267,2013,2878,3_S
1789469678.9952252,2198,2880,3_S
1789469678.996477,2304,2878,3_S
1789469679.002955,2164,2879,3_S
1789469679.0034308,1962,2879,3_S
1789469679.0037692,2024,2879,3_S
1789469679.006343,2171,2878,3_S
1789469679.006665,2021,2880,3_S
1789469679.009529,1949,2880,3_S
1789469679.011748,2049,2880,3_S
1789469679.0136042,2211,2880,3_S
1789469679.0146601,2228,2881,3_S
1789469679.0170612,1991,2879,3_S
1789469679.018347,1991,2879,3_S
1789469679.020416,2119,2879,3_S
1789469679.022741,2052,2879,3_S
1789469679.0251038,1971,2879,3_S
1789469679.02639,1987,2880,3_S
1789469679.0289311,2092,2878,3_S
1789469679.031234,2184,2878,3_S
1789469679.0325172,2117,2880,3_S
1789469679.034814,2058,2878,3_S
1789469679.037359,2148,2879,3_S
1789469679.038403,2143,2880,3_S
1789469679.040559,1876,2878,3_S
1789469679.042857,1897,2879,3_S
1789469679.045404,2064,2880,3_S
1789469679.046596,2201,2878,3_S
1789469679.0491369,2131,2880,3_S
1789469679.051438,2033,2879,3_S
1789469679.052491,2040,2879,3_S
1789469679.054543,2003,2878,3_S
1789469679.056602,1860,2877,3_S
1789469679.058679,1911,2879,3_S
1789469679.0609899,2095,2879,3_S
1789469679.0623171,2203,2879,3_S
1789469679.064654,2176,2881,3_S
1789469679.069561,2082,2880,3_S
1789469679.070417,1946,2879,3_S
1789469679.07198,2099,2879,3_S
1789469679.0738602,2132,2880,3_S
1789469679.076631,2040,2879,3_S
1789469679.076834,2106,2880,3_S
1789469679.0786939,2146,2879,3_S
1789469679.081026,2122,2878,3_S
1789469679.083344,2102,2879,3_S
1789469679.084631,1953,2879,3_S
1789469679.0897431,2083,2879,3_S
1789469679.090258,2066,2879,3_S
1789469679.0905988,2054,2878,3_S
1789469679.09241,2005,2879,3_S
1789469679.09472,1999,2879,3_S
1789469679.0969229,2101,2879,3_S
1789469679.09896,2017,2878,3_S
1789469679.100936,2021,2880,3_S
1789469679.102325,2051,2879,3_S
1789469679.104643,2104,2880,3_S
1789469679.107125,1932,2876,3_S
1789469679.1084359,1839,2879,3_S
1789469679.1109939,1946,2879,3_S
1789469679.113216,2223,2879,3_S
1789469679.1145012,2303,2881,3_S
1789469679.116811,2013,2879,3_S
1789469679.119246,1813,2878,3_S
1789469679.120529,2009,2880,3_S
1789469679.1230679,2045,2879,3_S
1789469679.1251268,1939,2877,3_S
1789469679.126412,1982,2879,3_S
1789469679.128952,2074,2879,3_S
1789469679.131243,2116,2878,3_S
1789469679.1323578,1989,2880,3_S
1789469679.1344268,2086,2877,3_S
1789469679.136727,2164,2879,3_S
1789469679.139041,2171,2880,3_S
1789469679.1403258,2007,2878,3_S
1789469679.142869,1936,2878,3_S
1789469679.145165,2019,2879,3_S
1789469679.146448,2110,2878,3_S
1789469679.148749,2073,2879,3_S
1789469679.1513112,2127,2878,3_S
1789469679.155343,2182,2879,3_S
1789469679.1557178,2189,2880,3_S
1789469679.1575282,2015,2879,3_S
1789469679.159567,1977,2878,3_S
1789469679.160896,2035,2879,3_S
1789469679.1640909,2157,2878,3_S
1789469679.1655412,2325,2880,3_S
1789469679.1668968,1944,2879,3_S
1789469679.1694741,1962,2879,3_S
1789469679.17063,2108,2878,3_S
1789469679.172937,2063,2880,3_S
1789469679.175057,1962,2879,3_S
1789469679.1771252,1922,2879,3_S
1789469679.179181,2089,2879,3_S
1789469679.180468,2124,2880,3_S
1789469679.182762,2171,2880,3_S
1789469679.185302,2121,2879,3_S
1789469679.1865869,2129,2879,3_S
1789469679.188663,2120,2880,3_S
1789469679.190961,1948,2877,3_S
1789469679.193254,1930,2879,3_S
1789469679.19454,2189,2879,3_S
1789469679.196832,2290,2879,3_S
1789469679.19913,2196,2881,3_S
1789469679.200414,2074,2879,3_S
1789469679.20249,2054,2879,3_S
1789469679.204789,2131,2879,3_S
1789469679.2070909,1985,2878,3_S
1789469679.209148,1929,2880,3_S
1789469679.211494,2075,2879,3_S
1789469679.212777,2130,2879,3_S
1789469679.215081,2222,2880,3_S
1789469679.220971,2035,2880,3_S
1789469679.221392,1982,2878,3_S
1789469679.2218492,2164,2879,3_S
1789469679.223278,2139,2879,3_S
1789469679.225077,2019,2878,3_S
1789469679.227733,2023,2878,3_S
1789469679.229991,2111,2880,3_S
1789469679.231576,2216,2877,3_S
1789469679.2326279,2191,2879,3_S
1789469679.234735,2085,2879,3_S
1789469679.237277,2112,2879,3_S
1789469679.2415879,2051,2878,3_S
1789469679.2417228,1863,2877,3_S
1789469679.2437189,1865,2879,3_S
1789469679.245506,2160,2879,3_S
1789469679.247095,2153,2879,3_S
1789469679.25028,2098,2879,3_S
1789469679.252183,2007,2878,3_S
1789469679.253479,2052,2879,3_S
1789469679.25453,2264,2880,3_S
1789469679.2570722,2101,2880,3_S
1789469679.258361,1965,2879,3_S
1789469679.260674,2024,2878,3_S
1789469679.2632241,2293,2878,3_S
1789469679.26451,2188,2881,3_S
1789469679.2670531,2028,2878,3_S
1789469679.2696152,2002,2879,3_S
1789469679.270904,1996,2880,3_S
1789469679.2734451,2135,2879,3_S
1789469679.274729,2046,2879,3_S
1789469679.276978,1919,2879,3_S
1789469679.279519,2080,2880,3_S
1789469679.280567,2182,2879,3_S
1789469679.282696,2077,2880,3_S
1789469679.285237,1954,2878,3_S
1789469679.2865222,2068,2879,3_S
1789469679.2885802,2118,2879,3_S
1789469679.290633,1981,2877,3_S
1789469679.292696,2011,2879,3_S
1789469679.29475,2135,2879,3_S
1789469679.297045,2180,2879,3_S
1789469679.2993522,2180,2882,3_S
1789469679.300489,2039,2879,3_S
1789469679.3057878,1999,2879,3_S
1789469679.306269,2186,2878,3_S
1789469679.308479,1990,2880,3_S
1789469679.308573,1930,2879,3_S
1789469679.312602,1951,2878,3_S
1789469679.314494,2165,2878,3_S
1789469679.3146272,2267,2881,3_S
1789469679.317405,2276,2880,3_S
1789469679.318458,2088,2879,3_S
1789469679.32076,2106,2879,3_S
1789469679.325811,2092,2880,3_S
1789469679.325922,1824,2878,3_S
1789469679.328161,1967,2879,3_S
1789469679.330347,2178,2878,3_S
1789469679.330771,2229,2881,3_S
1789469679.3351738,2105,2879,3_S
1789469679.335309,1994,2879,3_S
1789469679.3367522,2017,2879,3_S
1789469679.339067,2172,2878,3_S
1789469679.340354,2089,2877,3_S
1789469679.342667,2001,2879,3_S
1789469679.3449962,2139,2879,3_S
1789469679.3473122,2223,2878,3_S
1789469679.348476,2223,2879,3_S
1789469679.350782,1965,2879,3_S
1789469679.353322,1966,2879,3_S
1789469679.354489,2047,2879,3_S
1789469679.357033,1881,2878,3_S
1789469679.359342,1832,2878,3_S
1789469679.360626,2148,2878,3_S
1789469679.362684,2109,2880,3_S
1789469679.365222,2072,2877,3_S
1789469679.3675258,1965,2879,3_S
1789469679.368577,1850,2879,3_S
1789469679.371116,2056,2879,3_S
1789469679.372421,2150,2880,3_S
1789469679.3745,1980,2878,3_S
1789469679.3770099,1814,2879,3_S
1789469679.379305,2074,2879,3_S
1789469679.380569,2167,2879,3_S
1789469679.3831081,2044,2880,3_S
1789469679.385411,1985,2878,3_S
1789469679.386464,2205,2880,3_S
1789469679.3887591,2021,2879,3_S
1789469679.394308,1688,2877,3_S
1789469679.394735,1950,2878,3_S
1789469679.394872,2226,2879,3_S
1789469679.3967419,2020,2878,3_S
1789469679.3995352,2003,2880,3_S
1789469679.403127,2036,2879,3_S
1789469679.403307,2176,2879,3_S
1789469679.405293,2320,2880,3_S
1789469679.4065962,1679,2877,3_S
1789469679.4086568,1585,2879,3_S
1789469679.41445,2065,2879,3_S
1789469679.414861,2327,2879,3_S
1789469679.415266,2041,2879,3_S
1789469679.416617,1811,2879,3_S
1789469679.4196858,1879,2877,3_S
1789469679.421005,2085,2879,3_S
1789469679.422822,2222,2879,3_S
1789469679.4254131,2306,2881,3_S
1789469679.4265769,1624,2879,3_S
1789469679.4288902,2110,2878,3_S
1789469679.4312131,2012,2878,3_S
1789469679.43251,2103,2880,3_S
1789469679.4350562,2098,2878,3_S
1789469679.4373639,2090,2879,3_S
1789469679.438632,2110,2879,3_S
1789469679.440929,1833,2876,3_S
1789469679.443007,1815,2879,3_S
1789469679.4450681,2484,2880,3_S
1789469679.446424,2031,2881,3_S
1789469679.44897,2002,2878,3_S
1789469679.4512708,2287,2880,3_S
1789469679.453631,1931,2879,3_S
1789469679.454675,2011,2879,3_S
1789469679.456752,1862,2877,3_S
1789469679.459291,1795,2879,3_S
1789469679.460581,2264,2879,3_S
1789469679.46289,2149,2878,3_S
1789469679.464989,2001,2877,3_S
1789469679.4672918,2108,2880,3_S
1789469679.4684339,2214,2880,3_S
1789469679.470881,2123,2879,3_S
1789469679.472951,2155,2880,3_S
1789469679.4780438,1833,2877,3_S
1789469679.478503,2120,2878,3_S
1789469679.478595,2061,2880,3_S
1789469679.4806452,2306,2881,3_S
1789469679.483714,2002,2880,3_S
1789469679.4853811,1877,2879,3_S
1789469679.487552,1951,2879,3_S
1789469679.489462,1966,2878,3_S
1789469679.4905112,1844,2878,3_S
1789469679.492814,2034,2879,3_S
1789469679.498657,2203,2880,3_S
1789469679.499037,2179,2878,3_S
1789469679.499373,2668,2881,3_S
1789469679.5011141,1705,2878,3_S
1789469679.5028741,2163,2879,3_S
1789469679.505749,2450,2881,3_S
1789469679.5079381,2116,2879,3_S
1789469679.510016,1866,2880,3_S
1789469679.5113118,2057,2879,3_S
1789469679.512598,2092,2879,3_S
1789469679.515141,2391,2882,3_S
1789469679.516435,2250,2879,3_S
1789469679.518823,2106,2880,3_S
1789469679.521384,2210,2879,3_S
1789469679.5226529,2058,2880,3_S
1789469679.5250099,1926,2879,3_S
1789469679.527366,2054,2879,3_S
1789469679.5284271,2153,2879,3_S
1789469679.530732,2264,2881,3_S
1789469679.533037,2158,2880,3_S
1789469679.5356128,1432,2875,3_S
1789469679.5368981,2001,2879,3_S
1789469679.539194,2339,2880,3_S
1789469679.541491,1924,2878,3_S
1789469679.542648,1990,2879,3_S
1789469679.5451899,2174,2880,3_S
1789469679.5464761,2305,2880,3_S
1789469679.548543,2230,2881,3_S
1789469679.550832,2117,2879,3_S
1789469679.553132,1910,2880,3_S
1789469679.555428,2178,2880,3_S
1789469679.556469,2084,2882,3_S
1789469679.558767,1903,2878,3_S
1789469679.561306,2017,2879,3_S
1789469679.56259,2108,2878,3_S
1789469679.567245,2027,2879,3_S
1789469679.567669,2236,2879,3_S
1789469679.569916,1973,2879,3_S
1789469679.571428,2045,2881,3_S
1789469679.573018,2163,2879,3_S
1789469679.57468,1815,2877,3_S
1789469679.576587,1921,2878,3_S
1789469679.5791318,2171,2880,3_S
1789469679.580419,2203,2881,3_S
1789469679.5827131,2137,2879,3_S
1789469679.587959,1944,2879,3_S
1789469679.588629,1990,2879,3_S
1789469679.589015,2115,2879,3_S
1789469679.590486,2065,2879,3_S
1789469679.593487,2051,2879,3_S
1789469679.5950809,1956,2879,3_S
1789469679.5971599,2200,2880,3_S
1789469679.599085,2106,2879,3_S
1789469679.6004,2025,2879,3_S
1789469679.602946,1956,2878,3_S
1789469679.605334,2137,2878,3_S
1789469679.606656,1975,2877,3_S
1789469679.6092072,1906,2879,3_S
1789469679.610493,2078,2879,3_S
1789469679.613035,2124,2878,3_S
1789469679.6144059,2121,2879,3_S
1789469679.6167092,2051,2879,3_S
1789469679.619016,1962,2878,3_S
1789469679.6204102,2181,2880,3_S
1789469679.622962,2016,2879,3_S
1789469679.625272,1774,2877,3_S
1789469679.626434,1884,2878,3_S
1789469679.6289868,2140,2879,3_S
1789469679.631528,2157,2879,3_S
1789469679.6326861,2130,2880,3_S
1789469679.6352289,1835,2878,3_S
1789469679.6365,1940,2878,3_S
1789469679.6388748,2102,2880,3_S
1789469679.641414,2000,2879,3_S
1789469679.642605,2027,2879,3_S
1789469679.6451478,1969,2878,3_S
1789469679.6464388,2058,2878,3_S
1789469679.648555,2093,2880,3_S
1789469679.653085,1975,2879,3_S
1789469679.653533,2042,2878,3_S
1789469679.6554308,2123,2879,3_S
1789469679.657342,2025,2878,3_S
1789469679.6600142,1847,2877,3_S
1789469679.662316,1978,2879,3_S
1789469679.6625001,2093,2879,3_S
1789469679.664834,2060,2877,3_S
1789469679.667139,2024,2879,3_S
1789469679.674117,1976,2879,3_S
1789469679.674793,1888,2879,3_S
1789469679.675926,1734,2877,3_S
1789469679.6760662,1797,2878,3_S
1789469679.67795,1938,2878,3_S
1789469679.680692,2209,2879,3_S
1789469679.6807911,2179,2881,3_S
1789469679.683177,2182,2879,3_S
1789469679.684771,1954,2879,3_S
1789469679.687071,2146,2879,3_S
1789469679.688443,2226,2880,3_S
1789469679.690763,1998,2879,3_S
1789469679.6933389,1876,2880,3_S
1789469679.694633,2023,2879,3_S
1789469679.696919,2062,2879,3_S
1789469679.699459,2022,2880,3_S
1789469679.70062,2038,2879,3_S
1789469679.703169,1997,2879,3_S
1789469679.704454,1866,2879,3_S
1789469679.7067652,1881,2877,3_S
1789469679.709074,1900,2879,3_S
1789469679.7113779,2032,2880,3_S
1789469679.712532,2178,2878,3_S
1789469679.71507,2031,2878,3_S
1789469679.7164469,1820,2879,3_S
1789469679.7187278,1884,2879,3_S
1789469679.7210329,2095,2878,3_S
1789469679.723335,2041,2881,3_S
1789469679.7244842,2073,2878,3_S
1789469679.726781,2011,2879,3_S
1789469679.729321,2263,2880,3_S
1789469679.730506,2168,2878,3_S
1789469679.733043,2005,2880,3_S
1789469679.73559,2007,2879,3_S
1789469679.736629,1964,2879,3_S
1789469679.742214,2081,2879,3_S
1789469679.742711,1904,2877,3_S
1789469679.743087,1801,2879,3_S
1789469679.744566,1954,2878,3_S
1789469679.747508,2108,2878,3_S
1789469679.750754,2091,2879,3_S
1789469679.751041,1955,2878,3_S
1789469679.7527092,2019,2879,3_S
1789469679.7548192,2259,2879,3_S
1789469679.757202,1768,2876,3_S
1789469679.758487,1879,2878,3_S
1789469679.762752,2042,2879,3_S
1789469679.7631848,2253,2879,3_S
1789469679.7652411,2191,2880,3_S
1789469679.7670348,2165,2879,3_S
1789469679.769661,2058,2880,3_S
1789469679.771797,2176,2879,3_S
1789469679.77326,2052,2879,3_S
1789469679.775593,1967,2879,3_S
1789469679.77688,2014,2879,3_S
1789469679.779184,2143,2879,3_S
1789469679.7804852,2102,2878,3_S
1789469679.78295,2083,2879,3_S
1789469679.7854981,2031,2879,3_S
1789469679.786549,2049,2879,3_S
1789469679.7888489,2156,2880,3_S
1789469679.7913878,2069,2876,3_S
1789469679.792673,2028,2879,3_S
1789469679.7947478,2176,2878,3_S
1789469679.797049,2140,2878,3_S
1789469679.799344,2163,2880,3_S
1789469679.8004532,1944,2879,3_S
1789469679.802757,2045,2877,3_S
1789469679.8050508,2139,2880,3_S
1789469679.807371,1909,2877,3_S
1789469679.80846,1809,2879,3_S
1789469679.810529,2005,2879,3_S
1789469679.813068,2116,2878,3_S
1789469679.815125,2147,2881,3_S
1789469679.817416,2052,2879,3_S
1789469679.818454,2005,2878,3_S
1789469679.820517,2095,2878,3_S
1789469679.822813,2124,2880,3_S
1789469679.827868,2044,2878,3_S
1789469679.828643,2080,2879,3_S
1789469679.829083,2141,2879,3_S
1789469679.830656,2239,2881,3_S
1789469679.833249,2122,2878,3_S
1789469679.834626,1934,2879,3_S
1789469679.836799,2057,2880,3_S
1789469679.839233,2134,2880,3_S
1789469679.8415391,1926,2878,3_S
1789469679.842583,1916,2878,3_S
1789469679.844885,2038,2880,3_S
1789469679.847444,2220,2879,3_S
1789469679.848733,2108,2879,3_S
1789469679.851222,1993,2877,3_S
1789469679.8525078,2220,2879,3_S
1789469679.8548071,2271,2880,3_S
1789469679.8570418,1917,2877,3_S
1789469679.859335,1941,2878,3_S
1789469679.8606231,2107,2880,3_S
1789469679.862928,2162,2878,3_S
1789469679.8654668,2183,2881,3_S
1789469679.866515,2087,2880,3_S
1789469679.868566,1978,2877,3_S
1789469679.8708632,2124,2879,3_S
1789469679.8731709,2058,2879,3_S
1789469679.875469,1876,2878,3_S
1789469679.876752,1955,2880,3_S
1789469679.879054,2185,2879,3_S
1789469679.8813472,2192,2880,3_S
1789469679.882495,2204,2880,3_S
1789469679.8848,2041,2879,3_S
1789469679.8870962,2142,2879,3_S
1789469679.88916,2129,2880,3_S
1789469679.894359,1901,2879,3_S
1789469679.894773,1977,2879,3_S
1789469679.895552,2169,2878,3_S
1789469679.8975492,2237,2879,3_S
1789469679.898817,2119,2879,3_S
1789469679.900888,1998,2880,3_S
1789469679.9032068,2060,2878,3_S
1789469679.904851,2096,2878,3_S
1789469679.907166,2001,2878,3_S
1789469679.9094698,1940,2880,3_S
1789469679.914996,2102,2879,3_S
1789469679.9154172,2249,2880,3_S
1789469679.915755,2250,2880,3_S
1789469679.918466,2104,2877,3_S
1789469679.9188302,2069,2880,3_S
1789469679.923241,2235,2879,3_S
1789469679.923451,2124,2879,3_S
1789469679.925416,1967,2878,3_S
1789469679.92672,1991,2879,3_S
1789469679.929018,2168,2878,3_S
1789469679.931604,2228,2880,3_S
1789469679.9329228,2054,2879,3_S
1789469679.935476,1944,2879,3_S
1789469679.936765,2098,2879,3_S
1789469679.9390662,2137,2881,3_S
1789469679.940448,1968,2878,3_S
1789469679.942668,1960,2879,3_S
1789469679.945188,2113,2880,3_S
1789469679.946474,2177,2880,3_S
1789469679.948701,2119,2880,3_S
1789469679.951008,1995,2879,3_S
1789469679.9533691,2012,2880,3_S
1789469679.954454,2189,2879,3_S
1789469679.9565592,2007,2879,3_S
1789469679.959108,1961,2878,3_S
1789469679.961477,2073,2879,3_S
1789469679.9627671,2225,2879,3_S
1789469679.965069,2180,2880,3_S
1789469679.966444,2054,2879,3_S
1789469679.968509,2022,2879,3_S
1789469679.971054,2194,2880,3_S
1789469679.9724538,2198,2880,3_S
1789469679.9749088,2059,2878,3_S
1789469679.978869,2053,2879,3_S
1789469679.979319,2091,2879,3_S
1789469679.980971,2160,2878,3_S
1789469679.984371,2134,2879,3_S
1789469679.985745,2108,2880,3_S
1789469679.987804,2191,2878,3_S
1789469679.989731,2117,2879,3_S
1789469679.990792,1851,2878,3_S
1789469679.993335,1902,2879,3_S
1789469679.9946198,2137,2880,3_S
1789469679.999342,2292,2879,3_S
1789469680.000098,2093,2879,3_S
1789469680.001854,1951,2879,3_S
1789469680.0037272,2048,2879,3_S
1789469680.006578,2119,2879,3_S
1789469680.006731,1965,2877,3_S
1789469680.0090399,1915,2879,3_S
1789469680.0107388,1996,2878,3_S
1789469680.013052,2175,2880,3_S
1789469680.0153532,2227,2880,3_S
1789469680.01664,2000,2879,3_S
1789469680.0192509,1960,2879,3_S
1789469680.020554,2135,2881,3_S
1789469680.023097,2040,2879,3_S
1789469680.025397,1906,2878,3_S
1789469680.026565,1999,2880,3_S
1789469680.02911,2164,2879,3_S
1789469680.0316641,2217,2881,3_S
1789469680.032712,2123,2879,3_S
1789469680.035254,2078,2879,3_S
1789469680.036546,2170,2880,3_S
1789469680.038753,2226,2880,3_S
1789469680.04083,2065,2878,3_S
1789469680.04338,2034,2878,3_S
1789469680.044672,2203,2879,3_S
1789469680.047213,2267,2880,3_S
1789469680.0484989,2148,2879,3_S
1789469680.050994,2029,2879,3_S
1789469680.0535412,2013,2879,3_S
1789469680.054827,2126,2880,3_S
1789469680.057376,1966,2878,3_S
1789469680.058443,1899,2878,3_S
1789469680.060858,2018,2879,3_S
1789469680.0666728,2160,2880,3_S
1789469680.067164,2260,2880,3_S
1789469680.067272,2036,2879,3_S
1789469680.06895,1992,2877,3_S
1789469680.071056,2175,2879,3_S
1789469680.073258,2073,2881,3_S
1789469680.075635,1976,2877,3_S
1789469680.077343,2126,2880,3_S
1789469680.0784461,2233,2878,3_S
1789469680.080517,2187,2878,3_S
1789469680.082926,2064,2880,3_S
1789469680.08829,2035,2879,3_S
1789469680.088439,2128,2878,3_S
1789469680.089094,2104,2880,3_S
1789469680.091587,1953,2879,3_S
1789469680.0931032,1931,2879,3_S
1789469680.0965261,2136,2880,3_S
1789469680.096734,2232,2878,3_S
1789469680.09945,2121,2880,3_S
1789469680.100737,2037,2880,3_S
1789469680.103054,2042,2878,3_S
1789469680.1053739,2077,2879,3_S
1789469680.106673,1933,2877,3_S
1789469680.1089761,1949,2878,3_S
1789469680.1115189,2150,2880,3_S
1789469680.1128042,2257,2879,3_S
1789469680.115102,2214,2882,3_S
1789469680.1174111,2106,2879,3_S
1789469680.1195211,2013,2878,3_S
1789469680.1205618,2143,2879,3_S
1789469680.123103,2051,2879,3_S
1789469680.125398,1938,2879,3_S
1789469680.126536,2014,2879,3_S
1789469680.1288419,2181,2878,3_S
1789469680.131388,2234,2881,3_S
1789469680.133686,2094,2879,3_S
1789469680.1347258,2009,2879,3_S
1789469680.137024,2135,2880,3_S
1789469680.1392908,2132,2880,3_S
1789469680.140578,1925,2879,3_S
1789469680.1431198,1933,2878,3_S
1789469680.14566,2095,2880,3_S
1789469680.146944,2188,2879,3_S
1789469680.1523001,2142,2880,3_S
1789469680.1530292,2030,2878,3_S
1789469680.153493,2048,2879,3_S
1789469680.154666,2189,2879,3_S
1789469680.157697,2023,2878,3_S
1789469680.159381,1952,2878,3_S
1789469680.1617558,2081,2879,3_S
1789469680.1636858,2177,2879,3_S
1789469680.16497,2136,2879,3_S
1789469680.167509,2064,2880,3_S
1789469680.168606,2010,2878,3_S
1789469680.1729898,2136,2879,3_S
1789469680.173724,2030,2879,3_S
1789469680.175107,1912,2879,3_S
1789469680.1773388,1982,2879,3_S
1789469680.1791842,2164,2879,3_S
1789469680.1813061,2174,2881,3_S
1789469680.183091,2106,2879,3_S
1789469680.185298,2026,2879,3_S
1789469680.187388,2072,2878,3_S
1789469680.188676,2100,2880,3_S
1789469680.1912398,1941,2878,3_S
1789469680.193296,1956,2879,3_S
1789469680.1945841,2092,2878,3_S
1789469680.19689,2153,2878,3_S
1789469680.199185,2072,2879,3_S
1789469680.200466,2006,2879,3_S
1789469680.203003,2050,2879,3_S
1789469680.2053409,2144,2879,3_S
1789469680.20662,2006,2877,3_S
1789469680.2089212,1950,2878,3_S
1789469680.211215,2098,2879,3_S
1789469680.212497,2226,2880,3_S
1789469680.2148008,2177,2879,3_S
1789469680.2173388,2076,2879,3_S
1789469680.218623,2013,2880,3_S
1789469680.221094,2172,2879,3_S
1789469680.222377,2061,2879,3_S
1789469680.224774,1948,2879,3_S
1789469680.227133,2019,2879,3_S
1789469680.228235,2172,2880,3_S
1789469680.233851,2223,2881,3_S
1789469680.234302,2064,2879,3_S
1789469680.2346702,1986,2879,3_S
1789469680.237553,2030,2878,3_S
1789469680.238967,2181,2880,3_S
1789469680.2404249,2007,2879,3_S
1789469680.242532,1908,2879,3_S
1789469680.245163,2082,2880,3_S
1789469680.24629,2221,2878,3_S
1789469680.248387,2120,2880,3_S
1789469680.250755,2038,2878,3_S
1789469680.253079,2084,2879,3_S
1789469680.2554,2193,2880,3_S
1789469680.256667,2079,2881,3_S
1789469680.258956,1836,2878,3_S
1789469680.261002,2011,2878,3_S
1789469680.262235,2219,2879,3_S
1789469680.264533,2192,2880,3_S
1789469680.266839,2083,2879,3_S
1789469680.269144,2068,2879,3_S
1789469680.2702222,2103,2879,3_S
1789469680.272518,2079,2880,3_S
1789469680.274823,1890,2878,3_S
1789469680.2768672,1950,2878,3_S
1789469680.2782102,2161,2879,3_S
1789469680.2803001,2207,2881,3_S
1789469680.282832,2053,2880,3_S
1789469680.284209,2101,2879,3_S
1789469680.28645,2062,2879,3_S
1789469680.288745,2030,2879,3_S
1789469680.2908359,2089,2877,3_S
1789469680.294776,2017,2879,3_S
1789469680.294901,2120,2879,3_S
1789469680.29841,2225,2877,3_S
1789469680.298485,2237,2879,3_S
1789469680.303112,2011,2878,3_S
1789469680.303217,2081,2878,3_S
1789469680.304644,2023,2878,3_S
1789469680.306724,2021,2877,3_S
1789469680.3081348,1953,2878,3_S
1789469680.310206,2114,2878,3_S
1789469680.312505,2203,2878,3_S
1789469680.314828,2181,2880,3_S
1789469680.316891,2004,2878,3_S
1789469680.318175,1932,2879,3_S
1789469680.320713,2183,2879,3_S
1789469680.322057,1951,2877,3_S
1789469680.324372,1944,2878,3_S
1789469680.3269062,2084,2879,3_S
1789469680.328195,2080,2878,3_S
1789469680.3304892,2178,2880,3_S
1789469680.332725,2072,2879,3_S
1789469680.335053,1998,2879,3_S
1789469680.336122,2203,2880,3_S
1789469680.338412,2096,2880,3_S
1789469680.3409438,1966,2878,3_S
1789469680.342227,2008,2880,3_S
1789469680.344641,2179,2878,3_S
1789469680.346006,2160,2879,3_S
1789469680.3482938,2191,2881,3_S
1789469680.350825,1975,2879,3_S
1789469680.352106,1996,2879,3_S
1789469680.357384,2141,2879,3_S
1789469680.358117,1992,2877,3_S
1789469680.358826,1938,2879,3_S
1789469680.3612878,2063,2879,3_S
1789469680.363899,2102,2880,3_S
1789469680.365995,2179,2880,3_S
1789469680.366112,2093,2878,3_S
1789469680.3684962,2034,2879,3_S
1789469680.370543,2133,2879,3_S
1789469680.372834,2071,2880,3_S
1789469680.374121,1953,2878,3_S
1789469680.376735,2063,2879,3_S
1789469680.378009,2191,2879,3_S
1789469680.3803022,2167,2878,3_S
1789469680.382841,2038,2879,3_S
1789469680.384126,2010,2879,3_S
1789469680.386273,2057,2879,3_S
1789469680.38869,2088,2880,3_S
1789469680.390964,1953,2878,3_S
1789469680.392249,2018,2880,3_S
1789469680.394678,2122,2878,3_S
1789469680.395977,2198,2879,3_S
1789469680.3985112,2251,2881,3_S
1789469680.3998451,1992,2879,3_S
1789469680.402129,2043,2879,3_S
1789469680.4046679,2211,2880,3_S
1789469680.405956,2106,2879,3_S
1789469680.4084969,1945,2879,3_S
1789469680.409811,2030,2880,3_S
1789469680.412113,2167,2878,3_S
1789469680.414403,2172,2881,3_S
1789469680.4187388,2092,2880,3_S
1789469680.419123,2025,2877,3_S
1789469680.42111,2181,2880,3_S
1789469680.422749,2082,2881,3_S
1789469680.424238,1886,2878,3_S
1789469680.427701,1973,2880,3_S
1789469680.427897,2145,2880,3_S
1789469680.4304588,2133,2879,3_S
1789469680.431763,2093,2880,3_S
1789469680.4339159,2005,2878,3_S
1789469680.439588,2110,2879,3_S
1789469680.441191,2191,2879,3_S
1789469680.441356,1985,2877,3_S
1789469680.4426,1973,2878,3_S
1789469680.444482,2097,2879,3_S
1789469680.44768,2197,2879,3_S
1789469680.447813,2082,2880,3_S
1789469680.45031,1984,2879,3_S
1789469680.4526122,2030,2879,3_S
1789469680.453897,2164,2879,3_S
1789469680.456208,2014,2880,3_S
1789469680.458507,1985,2878,3_S
1789469680.460594,2074,2880,3_S
1789469680.4616692,2200,2880,3_S
1789469680.4639711,2183,2881,3_S
1789469680.466262,2145,2878,3_S
1789469680.468578,2027,2880,3_S
1789469680.469871,2121,2879,3_S
1789469680.472407,2091,2879,3_S
1789469680.4736981,1945,2878,3_S
1789469680.4757571,2108,2878,3_S
1789469680.4782898,2114,2879,3_S
1789469680.479624,2173,2879,3_S
1789469680.481676,2129,2880,3_S
1789469680.484072,1984,2879,3_S
1789469680.486366,2144,2879,3_S
1789469680.487647,2137,2880,3_S
1789469680.490182,1960,2878,3_S
1789469680.492508,1854,2879,3_S
1789469680.493567,2118,2879,3_S
1789469680.495858,2171,2880,3_S
1789469680.498392,2245,2881,3_S
1789469680.4996831,2085,2878,3_S
1789469680.5043972,2079,2879,3_S
1789469680.504491,2088,2879,3_S
1789469680.506442,1962,2877,3_S
1789469680.5081978,1973,2879,3_S
1789469680.510986,2162,2879,3_S
1789469680.513091,2307,2879,3_S
1789469680.514844,2168,2880,3_S
1789469680.5160189,1942,2879,3_S
1789469680.518317,2054,2879,3_S
1789469680.520373,2339,2879,3_S
1789469680.5246458,2067,2880,3_S
1789469680.525044,1742,2879,3_S
1789469680.5269198,1995,2879,3_S
1789469680.528896,2236,2879,3_S
1789469680.530313,2266,2881,3_S
1789469680.531515,2114,2879,3_S
1789469680.53359,2104,2879,3_S
1789469680.536314,2136,2879,3_S
1789469680.537601,2131,2881,3_S
1789469680.540135,1885,2878,3_S
1789469680.5414479,2068,2879,3_S
1789469680.5437582,2226,2879,3_S
1789469680.545829,2280,2880,3_S
1789469680.548128,2125,2880,3_S
1789469680.54944,2055,2879,3_S
1789469680.551521,2023,2880,3_S
1789469680.553822,2034,2879,3_S
1789469680.5558872,1946,2877,3_S
1789469680.558192,1892,2879,3_S
1789469680.560364,2178,2879,3_S
1789469680.56148,2202,2879,3_S
1789469680.564011,2092,2880,3_S
1789469680.566297,2014,2879,3_S
1789469680.567379,2104,2880,3_S
1789469680.569668,2191,2880,3_S
1789469680.5719569,2186,2880,3_S
1789469680.573347,2017,2879,3_S
1789469680.575878,2072,2880,3_S
1789469680.5784209,2100,2878,3_S
1789469680.579464,2106,2877,3_S
1789469680.581995,1981,2880,3_S
1789469680.584194,1998,2878,3_S
1789469680.585481,2158,2879,3_S
1789469680.591477,2108,2880,3_S
1789469680.5925279,1951,2878,3_S
1789469680.593931,2070,2880,3_S
1789469680.594167,2199,2880,3_S
1789469680.5958002,2214,2879,3_S
1789469680.5975308,2113,2881,3_S
1789469680.60062,2045,2878,3_S
1789469680.602571,2170,2879,3_S
1789469680.603647,2144,2879,3_S
1789469680.6059399,1940,2877,3_S
1789469680.611834,1827,2879,3_S
1789469680.612206,1994,2880,3_S
1789469680.612603,2270,2880,3_S
1789469680.614145,2241,2881,3_S
1789469680.6158028,2086,2878,3_S
1789469680.6185222,2044,2880,3_S
1789469680.620585,2153,2879,3_S
1789469680.622035,2108,2879,3_S
1789469680.6241221,1929,2879,3_S
1789469680.625216,2084,2879,3_S
1789469680.627522,2283,2879,3_S
1789469680.6300778,2206,2880,3_S
1789469680.6311638,2136,2880,3_S
1789469680.633472,2036,2879,3_S
1789469680.6360152,2178,2879,3_S
1789469680.6373,2147,2880,3_S
1789469680.6398358,2020,2878,3_S
1789469680.642185,1952,2879,3_S
1789469680.643237,2077,2879,3_S
1789469680.645538,2186,2878,3_S
1789469680.648001,2159,2879,3_S
1789469680.649329,1993,2879,3_S
1789469680.651814,2005,2879,3_S
1789469680.65412,2196,2879,3_S
1789469680.655175,2074,2880,3_S
1789469680.6572502,2033,2878,3_S
1789469680.659298,2077,2879,3_S
1789469680.661367,2192,2880,3_S
1789469680.663423,2128,2881,3_S
1789469680.665729,2114,2879,3_S
1789469680.668285,2053,2878,3_S
1789469680.6693351,2158,2878,3_S
1789469680.671642,2005,2879,3_S
1789469680.6740851,1964,2877,3_S
1789469680.678596,1958,2880,3_S
1789469680.678674,2131,2879,3_S
1789469680.680681,2254,2880,3_S
1789469680.68266,2072,2880,3_S
1789469680.684492,2000,2880,3_S
1789469680.6880589,2083,2879,3_S
1789469680.688274,2192,2879,3_S
1789469680.690315,1960,2877,3_S
1789469680.691605,1936,2879,3_S
1789469680.693695,2157,2879,3_S
1789469680.695764,2237,2879,3_S
1789469680.699865,2121,2880,3_S
1789469680.700376,2056,2879,3_S
1789469680.702462,1999,2879,3_S
1789469680.704631,2163,2880,3_S
1789469680.7093601,1963,2877,3_S
1789469680.709602,1921,2879,3_S
1789469680.709847,2120,2878,3_S
1789469680.7117782,2146,2878,3_S
1789469680.713897,2138,2880,3_S
1789469680.714962,2075,2879,3_S
1789469680.71727,2059,2878,3_S
1789469680.719367,2258,2879,3_S
1789469680.72192,2249,2879,3_S
1789469680.722971,2124,2879,3_S
1789469680.725037,2048,2879,3_S
1789469680.727103,2253,2879,3_S
1789469680.7294562,2213,2877,3_S
1789469680.731526,2134,2879,3_S
1789469680.7335749,1953,2879,3_S
1789469680.7359612,1984,2878,3_S
1789469680.7370281,2051,2880,3_S
1789469680.739578,1941,2878,3_S
1789469680.740884,1882,2879,3_S
1789469680.7434912,2042,2879,3_S
1789469680.744863,2259,2879,3_S
1789469680.747318,2089,2880,3_S
1789469680.7496262,1835,2880,3_S
1789469680.7516868,2188,2880,3_S
1789469680.752827,2377,2880,3_S
1789469680.7551339,2141,2880,3_S
1789469680.757211,1923,2879,3_S
1789469680.7595048,2052,2879,3_S
1789469680.7616482,2101,2879,3_S
1789469680.762935,2041,2878,3_S
1789469680.769609,2018,2880,3_S
1789469680.769757,2069,2879,3_S
1789469680.770269,1951,2878,3_S
1789469680.772199,1937,2880,3_S
1789469680.7736819,1949,2879,3_S
1789469680.77537,2029,2878,3_S
1789469680.777379,2177,2880,3_S
1789469680.779676,2135,2879,3_S
1789469680.781732,2068,2879,3_S
1789469680.783026,2044,2878,3_S
1789469680.785562,2100,2879,3_S
1789469680.7867572,2026,2878,3_S
1789469680.7918148,1770,2878,3_S
1789469680.792226,1825,2879,3_S
1789469680.794399,2273,2880,3_S
1789469680.795983,2227,2879,3_S
1789469680.801876,2156,2881,3_S
1789469680.802098,1989,2878,3_S
1789469680.80234,2071,2879,3_S
1789469680.804574,2226,2879,3_S
1789469680.804666,1963,2876,3_S
1789469680.807264,1867,2879,3_S
1789469680.8093991,1969,2879,3_S
1789469680.811584,2152,2878,3_S
1789469680.8126981,2235,2881,3_S
1789469680.814878,1923,2879,3_S
1789469680.817298,1980,2880,3_S
1789469680.818636,2140,2879,3_S
1789469680.820929,1973,2878,3_S
1789469680.823454,1879,2879,3_S
1789469680.8248682,1979,2878,3_S
1789469680.82755,2143,2878,3_S
1789469680.8289568,2185,2877,3_S
1789469680.831389,2043,2880,3_S
1789469680.832764,1950,2878,3_S
1789469680.835101,2025,2879,3_S
1789469680.837579,2047,2878,3_S
1789469680.839011,1790,2877,3_S
1789469680.8414679,1843,2878,3_S
1789469680.8426082,2115,2880,3_S
1789469680.845193,2038,2879,3_S
1789469680.84656,2007,2880,3_S
1789469680.8489878,2083,2880,3_S
1789469680.851388,2061,2877,3_S
1789469680.852758,1985,2879,3_S
1789469680.855177,2098,2881,3_S
1789469680.857548,1918,2879,3_S
1789469680.858769,2095,2880,3_S
1789469680.870493,2156,2879,3_S
1789469680.8712041,2076,2877,3_S
1789469680.87407,2040,2881,3_S
1789469680.87956,2043,2879,3_S
1789469680.880008,2273,2879,3_S
1789469680.8822222,2049,2879,3_S
1789469680.882355,1905,2878,3_S
1789469680.882557,1893,2878,3_S
1789469680.882635,2206,2879,3_S
1789469680.882758,2336,2881,3_S
1789469680.882847,2140,2880,3_S
1789469680.882922,2031,2880,3_S
1789469680.885267,2057,2879,3_S
1789469680.886587,1881,2876,3_S
1789469680.8941371,1850,2878,3_S
1789469680.89841,1968,2879,3_S
1789469680.900819,2169,2879,3_S
1789469680.906345,2203,2877,3_S
1789469680.906931,2300,2880,3_S
1789469680.907441,1840,2879,3_S
1789469680.909591,1944,2877,3_S
1789469680.909785,2223,2881,3_S
1789469680.909939,1972,2878,3_S
1789469680.910026,1844,2880,3_S
1789469680.910109,2325,2879,3_S
1789469680.911319,1936,2879,3_S
1789469680.9126358,1988,2877,3_S
1789469680.914847,2084,2879,3_S
1789469680.9170969,2170,2879,3_S
1789469680.918349,2152,2879,3_S
1789469680.920598,2038,2879,3_S
1789469680.922839,1846,2879,3_S
1789469680.925128,2091,2880,3_S
1789469680.926465,2294,2879,3_S
1789469680.9287832,1964,2878,3_S
1789469680.9308622,1903,2881,3_S
1789469680.93314,2160,2879,3_S
1789469680.9344661,2460,2880,3_S
1789469680.9371252,2049,2879,3_S
1789469680.9384499,1895,2877,3_S
1789469680.9407392,2096,2880,3_S
1789469680.943291,2102,2880,3_S
1789469680.944342,2340,2881,3_S
1789469680.94666,2116,2880,3_S
1789469680.948847,2161,2879,3_S
1789469680.951425,2203,2879,3_S
1789469680.952718,2166,2879,3_S
1789469680.9550238,2184,2881,3_S
1789469680.9563148,2082,2879,3_S
1789469680.9586759,1853,2879,3_S
1789469680.961021,2137,2878,3_S
1789469680.962207,2186,2880,3_S
1789469680.9643881,1904,2880,3_S
1789469680.9667299,1962,2879,3_S
1789469680.974529,2089,2879,3_S
1789469680.97648,1980,2880,3_S
1789469680.9766989,1954,2878,3_S
1789469680.9768362,2081,2878,3_S
1789469680.9770281,2376,2880,3_S
1789469680.97914,2310,2881,3_S
1789469680.980941,2118,2880,3_S
1789469680.9827142,2135,2878,3_S
1789469680.9854279,2286,2879,3_S
1789469680.98749,2261,2879,3_S
1789469680.989624,1874,2878,3_S
1789469680.990895,1743,2879,3_S
1789469680.992178,2184,2879,3_S
1789469680.9987571,2179,2878,3_S
1789469680.99941,2002,2880,3_S
1789469681.0008042,2035,2879,3_S
1789469681.004044,2028,2880,3_S
1789469681.005655,2170,2879,3_S
1789469681.0068429,2199,2880,3_S
1789469681.00837,2036,2879,3_S
1789469681.0085871,2178,2879,3_S
1789469681.01104,2218,2880,3_S
1789469681.01344,2252,2880,3_S
1789469681.014755,2189,2878,3_S
1789469681.017073,1930,2879,3_S
1789469681.018372,2039,2879,3_S
1789469681.0208519,1971,2880,3_S
1789469681.022305,1838,2878,3_S
1789469681.024935,2030,2879,3_S
1789469681.02626,2146,2878,3_S
1789469681.028437,2122,2879,3_S
1789469681.030677,2002,2880,3_S
1789469681.032015,1894,2879,3_S
1789469681.034186,2111,2879,3_S
1789469681.036726,2247,2880,3_S
1789469681.039048,2040,2878,3_S
1789469681.040152,1838,2878,3_S
1789469681.0429068,2152,2879,3_S
1789469681.044207,2308,2879,3_S
1789469681.046517,2204,2880,3_S
1789469681.048967,2005,2878,3_S
1789469681.050339,2028,2879,3_S
1789469681.0527842,2383,2880,3_S
1789469681.054102,1847,2877,3_S
1789469681.056433,1792,2878,3_S
1789469681.05902,2032,2880,3_S
1789469681.0601149,2155,2878,3_S
1789469681.062191,2287,2880,3_S
1789469681.064776,2214,2880,3_S
1789469681.065902,1948,2878,3_S
1789469681.06804,2087,2880,3_S
1789469681.0701818,1999,2879,3_S
1789469681.072351,1907,2879,3_S
1789469681.078992,2016,2880,3_S
1789469681.0794759,2160,2879,3_S
1789469681.080076,2187,2881,3_S
1789469681.0816598,2060,2880,3_S
1789469681.084275,1885,2878,3_S
1789469681.0853949,1998,2879,3_S
1789469681.090632,2165,2880,3_S
1789469681.090987,1920,2879,3_S
1789469681.0912561,2015,2880,3_S
1789469681.0937788,2057,2878,3_S
1789469681.093926,2312,2881,3_S
1789469681.096252,2114,2880,3_S
1789469681.098848,2050,2879,3_S
1789469681.100238,1931,2879,3_S
1789469681.10874,2235,2880,3_S
1789469681.1089,1983,2878,3_S
1789469681.1090949,2083,2878,3_S
1789469681.109194,2184,2880,3_S
1789469681.111338,2053,2879,3_S
1789469681.112654,2049,2877,3_S
1789469681.1154099,2070,2879,3_S
1789469681.117939,2025,2879,3_S
1789469681.11798,2135,2878,3_S
1789469681.120756,2039,2879,3_S
1789469681.121944,1885,2878,3_S
1789469681.1242602,2011,2879,3_S
1789469681.12638,2168,2879,3_S
1789469681.128758,2216,2880,3_S
1789469681.1300778,2076,2878,3_S
1789469681.1324348,1968,2879,3_S
1789469681.134519,2072,2878,3_S
1789469681.135844,2070,2879,3_S
1789469681.138397,1825,2877,3_S
1789469681.1397061,1959,2879,3_S
1789469681.1419141,2025,2878,3_S
1789469681.144233,2152,2877,3_S
1789469681.146545,2200,2879,3_S
1789469681.1478379,2158,2879,3_S
1789469681.1503959,2031,2879,3_S
1789469681.1516979,2060,2879,3_S
1789469681.153758,1964,2878,3_S
1789469681.15632,1819,2879,3_S
1789469681.1583989,2159,2879,3_S
1789469681.160562,2167,2878,3_S
1789469681.1618528,2044,2881,3_S
1789469681.164151,2117,2879,3_S
1789469681.166469,1868,2880,3_S
1789469681.167784,2094,2879,3_S
1789469681.170214,2042,2879,3_S
1789469681.1723158,1980,2879,3_S
1789469681.173645,2146,2880,3_S
1789469681.175959,2171,2880,3_S
1789469681.178186,2099,2878,3_S
1789469681.180495,1918,2881,3_S
1789469681.181789,2156,2880,3_S
1789469681.1842701,2124,2880,3_S
1789469681.190153,2264,2881,3_S
1789469681.191008,1809,2879,3_S
1789469681.1923242,2051,2880,3_S
1789469681.192575,1991,2879,3_S
1789469681.194331,2068,2880,3_S
1789469681.196439,2097,2880,3_S
1789469681.200819,2019,2878,3_S
1789469681.2010188,2127,2879,3_S
1789469681.202733,2183,2879,3_S
1789469681.20403,1949,2877,3_S
1789469681.2063758,1988,2878,3_S
1789469681.2076108,2113,2879,3_S
1789469681.2136052,2212,2879,3_S
1789469681.2148669,2176,2879,3_S
1789469681.2149582,2091,2879,3_S
1789469681.216622,2006,2880,3_S
1789469681.218672,2066,2879,3_S
1789469681.2204092,2116,2879,3_S
1789469681.222155,1877,2879,3_S
1789469681.22479,1974,2879,3_S
1789469681.2268732,2211,2878,3_S
1789469681.228178,2164,2879,3_S
1789469681.230494,2080,2879,3_S
1789469681.23179,2108,2879,3_S
1789469681.2339609,2047,2879,3_S
1789469681.236046,2159,2880,3_S
1789469681.238121,1854,2879,3_S
1789469681.240447,2002,2879,3_S
1789469681.2414951,2249,2878,3_S
1789469681.2436428,2221,2880,3_S
1789469681.246187,2220,2879,3_S
1789469681.2474759,2070,2878,3_S
1789469681.250027,2029,2879,3_S
1789469681.2520802,2154,2879,3_S
1789469681.2533891,1919,2877,3_S
1789469681.255444,1873,2878,3_S
1789469681.257741,2014,2880,3_S
1789469681.260042,2243,2879,3_S
1789469681.2621,2180,2881,3_S
1789469681.263419,1969,2879,3_S
1789469681.265961,2014,2880,3_S
1789469681.268029,2158,2880,3_S
1789469681.269384,2094,2879,3_S
1789469681.271443,1989,2879,3_S
1789469681.2737439,2070,2879,3_S
1789469681.276289,2170,2880,3_S
1789469681.2775779,2128,2878,3_S
1789469681.279881,2032,2880,3_S
1789469681.282422,2031,2879,3_S
1789469681.2837162,2082,2879,3_S
1789469681.290566,2121,2880,3_S
1789469681.29146,1935,2878,3_S
1789469681.2922828,1880,2878,3_S
1789469681.293524,2139,2879,3_S
1789469681.293658,2272,2881,3_S
1789469681.297277,2163,2879,3_S
1789469681.297703,2033,2878,3_S
1789469681.301441,2114,2880,3_S
1789469681.3017259,2298,2882,3_S
1789469681.303477,1972,2877,3_S
1789469681.3061252,1907,2879,3_S
1789469681.3072908,2024,2880,3_S
1789469681.309798,2200,2879,3_S
1789469681.314859,2147,2881,3_S
1789469681.315685,2010,2879,3_S
1789469681.316534,1905,2878,3_S
1789469681.319697,2088,2879,3_S
1789469681.320527,2116,2880,3_S
1789469681.3233302,2007,2878,3_S
1789469681.325755,2021,2879,3_S
1789469681.32594,2220,2878,3_S
1789469681.328031,2291,2881,3_S
1789469681.329351,2119,2880,3_S
1789469681.3316731,2053,2879,3_S
1789469681.333982,2127,2879,3_S
1789469681.336127,2114,2880,3_S
1789469681.337496,1952,2879,3_S
1789469681.340044,1927,2878,3_S
1789469681.341187,2136,2879,3_S
1789469681.343489,2161,2878,3_S
1789469681.3457952,2126,2879,3_S
1789469681.3471732,2017,2879,3_S
1789469681.349489,2086,2878,3_S
1789469681.3520331,2209,2878,3_S
1789469681.353322,2067,2879,3_S
1789469681.3556218,2032,2879,3_S
1789469681.3581629,2132,2878,3_S
1789469681.359453,2187,2880,3_S
1789469681.361526,2128,2879,3_S
1789469681.3638232,2053,2879,3_S
1789469681.366125,2065,2879,3_S
1789469681.367417,2199,2880,3_S
1789469681.369715,2092,2880,3_S
1789469681.371115,2032,2877,3_S
1789469681.373667,2062,2879,3_S
1789469681.375957,2247,2880,3_S
1789469681.377245,2292,2880,3_S
1789469681.3795469,2164,2880,3_S
1789469681.381845,2053,2878,3_S
1789469681.3840818,2131,2879,3_S
1789469681.385134,2155,2880,3_S
1789469681.3902001,2000,2879,3_S
1789469681.391171,2027,2880,3_S
1789469681.3916311,2173,2880,3_S
1789469681.393263,2276,2882,3_S
1789469681.3960361,2226,2879,3_S
1789469681.39834,2082,2879,3_S
1789469681.400835,2099,2879,3_S
1789469681.402988,2151,2880,3_S
1789469681.4031591,1959,2878,3_S
1789469681.405231,1971,2878,3_S
1789469681.407294,2068,2878,3_S
1789469681.4137049,2230,2880,3_S
1789469681.4141319,2194,2881,3_S
1789469681.414589,2103,2879,3_S
1789469681.416102,2072,2878,3_S
1789469681.417994,2229,2880,3_S
1789469681.419692,2108,2881,3_S
1789469681.421421,1995,2879,3_S
1789469681.4238431,2040,2878,3_S
1789469681.426058,2181,2880,3_S
1789469681.427108,2215,2880,3_S
1789469681.4291992,2091,2879,3_S
1789469681.431752,2016,2879,3_S
1789469681.4330518,2144,2880,3_S
1789469681.435384,2183,2880,3_S
1789469681.437438,2014,2878,3_S
1789469681.439747,1927,2879,3_S
1789469681.4410381,2131,2879,3_S
1789469681.443339,2159,2878,3_S
1789469681.4456341,2077,2879,3_S
1789469681.4469252,2049,2878,3_S
1789469681.448997,2040,2879,3_S
1789469681.4511812,2196,2879,3_S
1789469681.453739,2069,2880,3_S
1789469681.455035,2060,2879,3_S
1789469681.4573388,2195,2878,3_S
1789469681.459882,2195,2878,3_S
1789469681.461171,2174,2881,3_S
1789469681.46347,2154,2878,3_S
1789469681.4657779,2088,2879,3_S
1789469681.467068,2014,2879,3_S
1789469681.4695208,1900,2877,3_S
1789469681.4718158,1812,2878,3_S
1789469681.473202,2059,2879,3_S
1789469681.475594,2232,2879,3_S
1789469681.47789,2239,2881,3_S
1789469681.4789472,2060,2879,3_S
1789469681.481078,2011,2879,3_S
1789469681.483155,2052,2879,3_S
1789469681.488508,2143,2880,3_S
1789469681.4893382,1934,2878,3_S
1789469681.4894762,1986,2879,3_S
1789469681.49139,2253,2879,3_S
1789469681.493666,2231,2882,3_S
1789469681.495517,2263,2880,3_S
1789469681.499224,2054,2879,3_S
1789469681.49946,2138,2879,3_S
1789469681.501523,2262,2881,3_S
1789469681.503841,1920,2877,3_S
1789469681.505067,1862,2879,3_S
1789469681.507621,2113,2878,3_S
1789469681.5126631,2237,2879,3_S
1789469681.513186,2182,2879,3_S
1789469681.513651,2108,2879,3_S
1789469681.5151172,2013,2879,3_S
1789469681.5182238,2136,2879,3_S
1789469681.5202491,2077,2879,3_S
1789469681.5228128,1960,2879,3_S
1789469681.522969,2056,2879,3_S
1789469681.525845,2083,2878,3_S
1789469681.5269,2179,2881,3_S
1789469681.528963,2080,2878,3_S
1789469681.531271,1967,2878,3_S
1789469681.5336,2078,2879,3_S
1789469681.534894,2136,2880,3_S
1789469681.537395,1983,2878,3_S
1789469681.5394602,1984,2879,3_S
1789469681.541526,2168,2878,3_S
1789469681.5438259,2177,2879,3_S
1789469681.544875,2056,2880,3_S
1789469681.5471082,1959,2878,3_S
1789469681.549657,2045,2878,3_S
1789469681.5507069,2187,2879,3_S
1789469681.553015,2011,2878,3_S
1789469681.555562,1940,2879,3_S
1789469681.556851,2055,2879,3_S
1789469681.55915,2124,2879,3_S
1789469681.5616908,2119,2880,3_S
1789469681.562979,2030,2880,3_S
1789469681.565526,2007,2879,3_S
1789469681.566797,2159,2880,3_S
1789469681.5688782,2079,2879,3_S
1789469681.570946,1978,2879,3_S
1789469681.573013,2033,2879,3_S
1789469681.575072,2181,2879,3_S
1789469681.577379,2194,2880,3_S
1789469681.57868,2082,2879,3_S
1789469681.580983,1948,2879,3_S
1789469681.6012108,2122,2878,3_S
1789469681.6012669,2089,2880,3_S
1789469681.605224,1909,2878,3_S
1789469681.605267,1928,2878,3_S
1789469681.6055338,2074,2879,3_S
1789469681.60567,2133,2878,3_S
1789469681.6057112,2062,2880,3_S
1789469681.6237361,2020,2879,3_S
1789469681.623859,2078,2879,3_S
1789469681.624047,2208,2879,3_S
1789469681.6241658,2014,2878,3_S
1789469681.624237,1932,2879,3_S
1789469681.624327,2068,2879,3_S
1789469681.624363,2175,2879,3_S
1789469681.624403,2203,2880,3_S
1789469681.624436,2109,2879,3_S
1789469681.6244678,1989,2879,3_S
1789469681.6244988,2130,2879,3_S
1789469681.6245298,2080,2879,3_S
1789469681.6245608,1954,2879,3_S
1789469681.6245928,2054,2880,3_S
1789469681.624625,2201,2879,3_S
1789469681.6277099,2239,2881,3_S
1789469681.629477,2138,2879,3_S
1789469681.6356878,2028,2879,3_S
1789469681.63573,2063,2878,3_S
1789469681.635764,2134,2880,3_S
1789469681.637156,1959,2877,3_S
1789469681.639457,2001,2879,3_S
1789469681.640775,2168,2879,3_S
1789469681.643347,2193,2878,3_S
1789469681.644692,2116,2880,3_S
1789469681.6467662,1990,2878,3_S
1789469681.649096,2008,2879,3_S
1789469681.650399,2134,2880,3_S
1789469681.652949,2023,2878,3_S
1789469681.655013,1958,2879,3_S
1789469681.657334,2078,2879,3_S
1789469681.6583822,2234,2879,3_S
1789469681.660963,2176,2880,3_S
1789469681.663136,2033,2879,3_S
1789469681.66545,2009,2879,3_S
1789469681.666497,2151,2879,3_S
1789469681.669044,2047,2879,3_S
1789469681.671306,1918,2879,3_S
1789469681.672603,1999,2879,3_S
1789469681.674762,2150,2879,3_S
1789469681.67716,2191,2880,3_S
1789469681.679219,2052,2880,3_S
1789469681.680415,1988,2878,3_S
1789469681.682747,2084,2879,3_S
1789469681.6899042,2115,2881,3_S
1789469681.6908622,1958,2878,3_S
1789469681.691384,1917,2879,3_S
1789469681.693033,2113,2878,3_S
1789469681.6931908,2197,2879,3_S
1789469681.695374,2132,2879,3_S
1789469681.6973948,2028,2880,3_S
1789469681.698772,2033,2878,3_S
1789469681.701267,2150,2880,3_S
1789469681.7031229,2056,2878,3_S
1789469681.7046988,1979,2878,3_S
1789469681.70701,2075,2880,3_S
1789469681.708301,2176,2879,3_S
1789469681.71402,2136,2880,3_S
1789469681.714507,2105,2878,3_S
1789469681.7153091,2025,2880,3_S
1789469681.717665,2179,2879,3_S
1789469681.7195652,2083,2881,3_S
1789469681.721674,1909,2878,3_S
1789469681.724119,1996,2880,3_S
1789469681.72625,2167,2879,3_S
1789469681.726453,2234,2881,3_S
1789469681.728765,2097,2880,3_S
1789469681.7310662,2040,2879,3_S
1789469681.7331998,2082,2879,3_S
1789469681.734272,2150,2880,3_S
1789469681.7365792,1991,2877,3_S
1789469681.7388859,2010,2880,3_S
1789469681.741198,2145,2878,3_S
1789469681.742487,2207,2879,3_S
1789469681.7447848,2104,2879,3_S
1789469681.74734,2009,2878,3_S
1789469681.748631,2063,2879,3_S
1789469681.750703,2151,2879,3_S
1789469681.753026,2039,2878,3_S
1789469681.7542589,1943,2879,3_S
1789469681.756806,2019,2878,3_S
1789469681.759111,2175,2879,3_S
1789469681.760403,2143,2880,3_S
1789469681.762953,2042,2879,3_S
1789469681.76527,2011,2879,3_S
1789469681.7663202,2125,2880,3_S
1789469681.76862,2069,2879,3_S
1789469681.771167,1935,2879,3_S
1789469681.77247,2011,2879,3_S
1789469681.774782,2121,2879,3_S
1789469681.776072,2234,2880,3_S
1789469681.778618,2065,2880,3_S
1789469681.781158,2006,2880,3_S
1789469681.78245,2117,2879,3_S
1789469681.788461,2131,2880,3_S
1789469681.789362,1964,2879,3_S
1789469681.789514,2014,2878,3_S
1789469681.79161,2145,2879,3_S
1789469681.793184,2252,2880,3_S
1789469681.794888,2167,2879,3_S
1789469681.797044,2106,2879,3_S
1789469681.799743,2047,2878,3_S
1789469681.80191,2036,2879,3_S
1789469681.802998,2100,2880,3_S
1789469681.8042948,2044,2878,3_S
1789469681.806616,2087,2879,3_S
1789469681.807929,2292,2880,3_S
1789469681.8126452,1928,2879,3_S
1789469681.81351,2019,2880,3_S
1789469681.815062,2060,2879,3_S
1789469681.8168929,2189,2879,3_S
1789469681.818764,2209,2880,3_S
1789469681.820182,1776,2878,3_S
1789469681.8245609,1933,2879,3_S
1789469681.824708,2161,2879,3_S
1789469681.825998,2239,2880,3_S
1789469681.828542,2081,2880,3_S
1789469681.830652,1941,2879,3_S
1789469681.832979,2131,2879,3_S
1789469681.8342469,2285,2880,3_S
1789469681.836598,1958,2878,3_S
1789469681.83791,2009,2878,3_S
1789469681.8404539,1885,2878,3_S
1789469681.842998,2311,2880,3_S
1789469681.844291,2224,2881,3_S
1789469681.846357,1958,2879,3_S
1789469681.848431,1928,2879,3_S
1789469681.8507478,2182,2879,3_S
1789469681.851796,1979,2878,3_S
1789469681.854097,1975,2879,3_S
1789469681.8561752,2066,2880,3_S
1789469681.858485,2143,2878,3_S
1789469681.860553,2193,2880,3_S
1789469681.861971,2039,2878,3_S
1789469681.864766,1920,2880,3_S
1789469681.8660989,2135,2880,3_S
1789469681.868425,2115,2879,3_S
1789469681.870624,1894,2879,3_S
1789469681.872695,2010,2879,3_S
1789469681.873902,2309,2879,3_S
1789469681.875974,2186,2880,3_S
1789469681.878052,2192,2880,3_S
1789469681.880258,1918,2878,3_S
1789469681.8826208,2106,2878,3_S
1789469681.887894,2116,2880,3_S
1789469681.888899,1960,2878,3_S
1789469681.8907762,1966,2879,3_S
1789469681.8924742,2106,2879,3_S
1789469681.893708,2123,2879,3_S
1789469681.8938198,2099,2880,3_S
1789469681.8997178,2034,2879,3_S
1789469681.900116,2067,2880,3_S
1789469681.90034,2236,2879,3_S
1789469681.9021041,2054,2881,3_S
1789469681.904209,1958,2880,3_S
1789469681.906529,2078,2878,3_S
1789469681.908602,2172,2879,3_S
1789469681.913829,2109,2877,3_S
1789469681.9148748,2030,2879,3_S
1789469681.915819,2104,2880,3_S
1789469681.9173539,2168,2878,3_S
1789469681.919796,2042,2879,3_S
1789469681.920702,1915,2878,3_S
1789469681.9260101,1915,2880,3_S
1789469681.926271,2194,2879,3_S
1789469681.926544,2199,2879,3_S
1789469681.9289339,2162,2880,3_S
1789469681.9302359,2097,2879,3_S
1789469681.932725,2136,2880,3_S
1789469681.934022,2133,2879,3_S
1789469681.9365811,1940,2878,3_S
1789469681.937734,2004,2880,3_S
1789469681.940352,2109,2879,3_S
1789469681.942528,2256,2878,3_S
1789469681.944638,2142,2881,3_S
1789469681.9456918,2037,2878,3_S
1789469681.94801,1996,2877,3_S
1789469681.950475,2133,2880,3_S
1789469681.9517639,2091,2880,3_S
1789469681.954317,1933,2878,3_S
1789469681.956618,2030,2878,3_S
1789469681.957665,2194,2879,3_S
1789469681.960213,2216,2881,3_S
1789469681.962792,1982,2881,3_S
1789469681.9638348,1942,2878,3_S
1789469681.966141,2130,2879,3_S
1789469681.968439,2052,2880,3_S
1789469681.969732,2014,2879,3_S
1789469681.9720378,2050,2879,3_S
1789469681.974338,2184,2880,3_S
1789469681.9756281,2190,2881,3_S
1789469681.977935,1980,2880,3_S
1789469681.9802399,2021,2879,3_S
1789469681.981548,2062,2879,3_S
1789469681.9840949,2114,2879,3_S
1789469681.986398,1984,2879,3_S
1789469681.9876878,2000,2878,3_S
1789469681.993286,2063,2877,3_S
1789469681.993776,2202,2879,3_S
1789469681.9946518,2120,2879,3_S
1789469681.9958441,2005,2879,3_S
1789469681.998785,2096,2880,3_S
1789469682.001153,2116,2879,3_S
1789469682.003793,2009,2880,3_S
1789469682.003973,1936,2878,3_S
1789469682.005889,2191,2881,3_S
1789469682.0082,2146,2879,3_S
1789469682.0095072,2181,2881,3_S
1789469682.011817,2054,2879,3_S
1789469682.018094,2001,2877,3_S
1789469682.018613,2166,2880,3_S
1789469682.019917,2114,2879,3_S
1789469682.020173,1870,2878,3_S
1789469682.022995,1914,2879,3_S
1789469682.028057,2065,2880,3_S
1789469682.028411,2117,2877,3_S
1789469682.028607,2099,2880,3_S
1789469682.0307798,2056,2879,3_S
1789469682.032117,2057,2878,3_S
1789469682.033569,2092,2880,3_S
1789469682.0362,2055,2878,3_S
1789469682.038582,1972,2879,3_S
1789469682.0399091,2144,2878,3_S
1789469682.042233,2259,2879,3_S
1789469682.043426,2141,2881,3_S
1789469682.045845,2067,2879,3_S
1789469682.048151,2132,2878,3_S
1789469682.049408,2271,2880,3_S
1789469682.051711,2009,2880,3_S
1789469682.054257,1868,2879,3_S
1789469682.055443,2067,2878,3_S
1789469682.05776,2120,2879,3_S
1789469682.060077,2159,2880,3_S
1789469682.0613708,1984,2879,3_S
1789469682.063918,1981,2879,3_S
1789469682.066252,2196,2880,3_S
1789469682.067317,1999,2880,3_S
1789469682.0698628,1902,2879,3_S
1789469682.072172,1986,2879,3_S
1789469682.0734699,2236,2879,3_S
1789469682.0757859,2238,2881,3_S
1789469682.078091,2086,2880,3_S
1789469682.080172,2042,2879,3_S
1789469682.082606,2009,2879,3_S
1789469682.0836532,2110,2878,3_S
1789469682.085796,2041,2878,3_S
1789469682.087858,2072,2879,3_S
1789469682.090088,2140,2879,3_S
1789469682.0914931,2224,2878,3_S
1789469682.097408,2124,2880,3_S
1789469682.0975192,2064,2877,3_S
1789469682.09904,2096,2879,3_S
1789469682.102653,2163,2879,3_S
1789469682.104013,2029,2880,3_S
1789469682.104877,1928,2878,3_S
1789469682.109727,2002,2878,3_S
1789469682.1099598,2223,2879,3_S
1789469682.11033,2210,2880,3_S
1789469682.112787,2122,2880,3_S
1789469682.1139462,2021,2879,3_S
1789469682.1151822,2114,2879,3_S
1789469682.117408,2041,2880,3_S
1789469682.11997,1967,2877,3_S
1789469682.124772,2014,2879,3_S
1789469682.125264,2229,2879,3_S
1789469682.127349,2165,2879,3_S
1789469682.127581,2060,2880,3_S
1789469682.1315079,2033,2879,3_S
1789469682.133506,2207,2879,3_S
1789469682.136064,2177,2880,3_S
1789469682.136385,1937,2878,3_S
1789469682.138722,1914,2879,3_S
1789469682.1400251,2121,2879,3_S
1789469682.141126,2130,2878,3_S
1789469682.14321,2125,2880,3_S
1789469682.145302,1977,2878,3_S
1789469682.147403,2116,2879,3_S
1789469682.149749,2248,2879,3_S
1789469682.151238,2096,2879,3_S
1789469682.153313,2007,2879,3_S
1789469682.155423,2042,2880,3_S
1789469682.157496,2294,2879,3_S
1789469682.159791,2149,2881,3_S
1789469682.161859,2082,2879,3_S
1789469682.163939,2050,2879,3_S
1789469682.165159,2111,2878,3_S
1789469682.167497,2090,2879,3_S
1789469682.169564,1968,2877,3_S
1789469682.1716611,2030,2879,3_S
1789469682.173845,2201,2879,3_S
1789469682.1759381,2172,2879,3_S
1789469682.177011,2058,2879,3_S
1789469682.1793358,1978,2878,3_S
1789469682.1814148,1970,2879,3_S
1789469682.183715,2078,2880,3_S
1789469682.18592,1955,2877,3_S
1789469682.1869829,1929,2878,3_S
1789469682.1892931,2111,2879,3_S
1789469682.191662,2226,2879,3_S
1789469682.1936839,2136,2880,3_S
1789469682.195041,2051,2878,3_S
1789469682.1971462,2115,2879,3_S
1789469682.1995819,2186,2879,3_S
1789469682.2073421,2035,2879,3_S
1789469682.209152,1936,2879,3_S
1789469682.209318,2015,2879,3_S
1789469682.210943,2194,2879,3_S
1789469682.2126532,2223,2881,3_S
1789469682.214519,2075,2879,3_S
1789469682.214617,2083,2879,3_S
1789469682.21713,2197,2879,3_S
1789469682.217283,2088,2881,3_S
1789469682.2198532,1925,2877,3_S
1789469682.2222662,2077,2878,3_S
1789469682.2233758,2083,2879,3_S
1789469682.225606,2196,2881,3_S
1789469682.227669,2082,2879,3_S
1789469682.23362,1995,2879,3_S
1789469682.234398,2056,2878,3_S
1789469682.235329,2123,2879,3_S
1789469682.236682,1962,2878,3_S
1789469682.2385018,1946,2879,3_S
1789469682.2400908,2169,2879,3_S
1789469682.2444842,2301,2882,3_S
1789469682.2449431,2188,2879,3_S
1789469682.2450812,2014,2879,3_S
1789469682.247921,2085,2879,3_S
1789469682.24898,2126,2880,3_S
1789469682.251287,1983,2878,3_S
1789469682.2535949,2006,2879,3_S
1789469682.255917,2076,2880,3_S
1789469682.2569711,2109,2878,3_S
1789469682.259447,2096,2879,3_S
1789469682.26083,1871,2877,3_S
1789469682.263169,2007,2878,3_S
1789469682.265237,2239,2880,3_S
1789469682.267547,2122,2880,3_S
1789469682.2688372,2014,2878,3_S
1789469682.2713878,1946,2878,3_S
1789469682.273879,2047,2878,3_S
1789469682.274934,2119,2878,3_S
1789469682.27748,2077,2879,3_S
1789469682.279732,2028,2879,3_S
1789469682.2810361,2015,2878,3_S
1789469682.283595,2069,2879,3_S
1789469682.2858062,1956,2877,3_S
1789469682.2868521,2083,2877,3_S
1789469682.2891588,2256,2878,3_S
1789469682.291219,2215,2878,3_S
1789469682.2935228,2137,2880,3_S
1789469682.294797,1882,2878,3_S
1789469682.297098,1949,2878,3_S
1789469682.299158,2151,2879,3_S
1789469682.301704,1974,2876,3_S
1789469682.302761,1964,2879,3_S
1789469682.305304,2007,2878,3_S
1789469682.310955,2134,2878,3_S
1789469682.311738,2201,2879,3_S
1789469682.312628,2120,2878,3_S
1789469682.3139179,2120,2879,3_S
1789469682.315628,2245,2879,3_S
1789469682.317385,2061,2879,3_S
1789469682.319425,1888,2879,3_S
1789469682.3217568,1913,2878,3_S
1789469682.323539,2078,2879,3_S
1789469682.324845,2175,2879,3_S
1789469682.327394,2149,2879,3_S
1789469682.3286479,2116,2879,3_S
1789469682.330754,2098,2878,3_S
1789469682.335655,2079,2879,3_S
1789469682.33615,1957,2878,3_S
1789469682.3380249,1930,2878,3_S
1789469682.339682,2080,2878,3_S
1789469682.341332,2202,2879,3_S
1789469682.3433778,2106,2879,3_S
1789469682.345668,2030,2879,3_S
1789469682.347774,2007,2879,3_S
1789469682.3488278,2139,2879,3_S
1789469682.350889,1984,2878,3_S
1789469682.353437,1893,2879,3_S
1789469682.354601,1986,2880,3_S
1789469682.3569229,2162,2879,3_S
1789469682.359058,2184,2880,3_S
1789469682.361266,2052,2879,3_S
1789469682.3626082,2006,2879,3_S
1789469682.3649092,2071,2880,3_S
1789469682.367214,2048,2880,3_S
1789469682.369386,1926,2878,3_S
1789469682.370678,1978,2879,3_S
1789469682.37323,2050,2879,3_S
1789469682.3745751,2109,2878,3_S
1789469682.3767529,1961,2880,3_S
1789469682.379297,1967,2879,3_S
1789469682.380539,1994,2878,3_S
1789469682.38285,2072,2880,3_S
1789469682.385152,1954,2879,3_S
1789469682.387464,1950,2879,3_S
1789469682.3885188,2041,2879,3_S
1789469682.390819,1967,2880,3_S
1789469682.393114,2213,2880,3_S
1789469682.395703,2298,2880,3_S
1789469682.39676,1800,2879,3_S
1789469682.398893,2021,2879,3_S
1789469682.401257,2086,2881,3_S
1789469682.402553,2220,2880,3_S
1789469682.404935,2115,2880,3_S
1789469682.410948,1993,2880,3_S
1789469682.411092,2297,2881,3_S
1789469682.41153,2189,2880,3_S
1789469682.413343,2068,2878,3_S
1789469682.415248,2508,2879,3_S
1789469682.4172952,1655,2876,3_S
1789469682.419081,1786,2878,3_S
1789469682.42155,2230,2880,3_S
1789469682.423468,2189,2878,3_S
1789469682.4247649,2032,2877,3_S
1789469682.427073,2007,2879,3_S
1789469682.4292412,1919,2879,3_S
1789469682.430536,2095,2880,3_S
1789469682.433085,2211,2879,3_S
1789469682.438635,2124,2881,3_S
1789469682.439911,2018,2879,3_S
1789469682.4411972,2200,2879,3_S
1789469682.441333,2252,2879,3_S
1789469682.4432042,2144,2880,3_S
1789469682.4449751,2237,2878,3_S
1789469682.4466271,1857,2879,3_S
1789469682.44902,1914,2878,3_S
1789469682.451144,2059,2879,3_S
1789469682.4534478,1810,2879,3_S
1789469682.454741,1956,2880,3_S
1789469682.45681,2151,2878,3_S
1789469682.459146,2001,2878,3_S
1789469682.4604669,2185,2881,3_S
1789469682.463022,2096,2878,3_S
1789469682.465145,2245,2880,3_S
1789469682.466285,2209,2878,3_S
1789469682.468362,2083,2877,3_S
1789469682.4709098,2114,2879,3_S
1789469682.47321,2390,2881,3_S
1789469682.474292,2146,2878,3_S
1789469682.4765031,1901,2876,3_S
1789469682.478583,2095,2879,3_S
1789469682.480887,2065,2880,3_S
1789469682.4830232,2023,2879,3_S
1789469682.4853241,1952,2876,3_S
1789469682.486615,2011,2878,3_S
1789469682.489162,2128,2878,3_S
1789469682.4902232,2191,2879,3_S
1789469682.492535,2113,2880,3_S
1789469682.4946802,2093,2879,3_S
1789469682.496759,2138,2878,3_S
1789469682.499071,2083,2878,3_S
1789469682.500274,1967,2876,3_S
1789469682.502343,1994,2878,3_S
1789469682.5044842,2077,2880,3_S
1789469682.5065548,2162,2879,3_S
1789469682.508867,2218,2880,3_S
1789469682.510198,1982,2878,3_S
1789469682.5163782,1860,2878,3_S
1789469682.516768,2148,2880,3_S
1789469682.517356,2188,2880,3_S
1789469682.519451,1845,2879,3_S
1789469682.520812,1915,2878,3_S
1789469682.522838,2312,2878,3_S
1789469682.5249379,2060,2878,3_S
1789469682.5273569,2211,2879,3_S
1789469682.529172,2198,2879,3_S
1789469682.5307798,2224,2879,3_S
1789469682.5328588,2127,2878,3_S
1789469682.534936,2017,2878,3_S
1789469682.539673,1946,2880,3_S
1789469682.5405,2227,2880,3_S
1789469682.5412931,2249,2881,3_S
1789469682.542921,2276,2881,3_S
1789469682.544161,2049,2878,3_S
1789469682.5481431,1836,2878,3_S
1789469682.550557,2191,2881,3_S
1789469682.550763,2070,2879,3_S
1789469682.552742,1990,2878,3_S
1789469682.554894,1905,2878,3_S
1789469682.556103,2111,2879,3_S
1789469682.558412,2104,2880,3_S
1789469682.560975,2011,2879,3_S
1789469682.562071,2112,2879,3_S
1789469682.564224,2263,2880,3_S
1789469682.56654,2134,2880,3_S
1789469682.569095,1978,2878,3_S
1789469682.5703838,2012,2879,3_S
1789469682.572783,2179,2880,3_S
1789469682.5751,2041,2877,3_S
1789469682.576391,2063,2879,3_S
1789469682.578701,2031,2879,3_S
1789469682.5807638,2060,2880,3_S
1789469682.58307,2117,2880,3_S
1789469682.584125,1925,2877,3_S
1789469682.5864341,1881,2879,3_S
1789469682.5887308,2117,2880,3_S
1789469682.590867,2186,2879,3_S
1789469682.591991,2081,2880,3_S
1789469682.594538,1975,2879,3_S
1789469682.596596,2111,2879,3_S
1789469682.5986571,2189,2879,3_S
1789469682.600961,1960,2877,3_S
1789469682.602009,1953,2879,3_S
1789469682.604327,2037,2879,3_S
1789469682.606383,2160,2879,3_S
1789469682.6086779,2169,2880,3_S
1789469682.6099699,2079,2879,3_S
1789469682.6162481,1980,2879,3_S
1789469682.61743,2228,2880,3_S
1789469682.617889,2105,2880,3_S
1789469682.61905,1871,2879,3_S
1789469682.620729,1947,2879,3_S
1789469682.622533,2047,2880,3_S
1789469682.624674,2170,2878,3_S
1789469682.6270971,2167,2880,3_S
1789469682.62922,2069,2879,3_S
1789469682.630275,1967,2879,3_S
1789469682.63262,1958,2880,3_S
1789469682.634936,1909,2879,3_S
1789469682.640082,1907,2879,3_S
1789469682.6409118,2117,2879,3_S
1789469682.641383,2155,2878,3_S
1789469682.644054,2080,2880,3_S
1789469682.6441338,1915,2880,3_S
1789469682.646425,1887,2878,3_S
1789469682.647935,2172,2879,3_S
1789469682.650364,2026,2879,3_S
1789469682.6524339,2011,2878,3_S
1789469682.6547499,2222,2880,3_S
1789469682.6558511,2230,2880,3_S
1789469682.658157,2148,2881,3_S
1789469682.660487,2070,2879,3_S
1789469682.661803,2155,2879,3_S
1789469682.664195,2116,2878,3_S
1789469682.666508,2004,2880,3_S
1789469682.667809,1856,2878,3_S
1789469682.670124,1963,2879,3_S
1789469682.672168,2135,2880,3_S
1789469682.674709,2164,2878,3_S
1789469682.6760142,2126,2880,3_S
1789469682.678321,2097,2879,3_S
1789469682.680371,2356,2880,3_S
1789469682.681757,1957,2879,3_S
1789469682.6843069,1988,2879,3_S
1789469682.686604,1878,2879,3_S
1789469682.6878972,2154,2879,3_S
1789469682.690197,2133,2879,3_S
1789469682.6927428,2049,2880,3_S
1789469682.693789,1944,2879,3_S
1789469682.696331,1976,2880,3_S
1789469682.6986399,2240,2879,3_S
1789469682.699931,2149,2880,3_S
1789469682.702231,1691,2879,3_S
1789469682.704542,1948,2879,3_S
1789469682.705832,2261,2879,3_S
1789469682.708141,2207,2881,3_S
1789469682.715044,1996,2879,3_S
1789469682.716286,2023,2879,3_S
1789469682.7163851,2131,2879,3_S
1789469682.7180119,2042,2880,3_S
1789469682.718132,1846,2877,3_S
1789469682.720119,2100,2879,3_S
1789469682.723337,2154,2879,3_S
1789469682.725875,2155,2879,3_S
1789469682.726063,2135,2879,3_S
1789469682.728214,1950,2879,3_S
1789469682.730808,1974,2879,3_S
1789469682.7320378,2126,2879,3_S
1789469682.7343512,1959,2878,3_S
1789469682.739029,2021,2879,3_S
1789469682.7398589,2134,2879,3_S
1789469682.740664,2240,2879,3_S
1789469682.742155,2096,2879,3_S
1789469682.745429,1993,2879,3_S
1789469682.745924,1934,2879,3_S
1789469682.7477188,2122,2879,3_S
1789469682.750356,2074,2879,3_S
1789469682.752501,2001,2877,3_S
1789469682.753807,2034,2880,3_S
1789469682.756362,2186,2880,3_S
1789469682.7584379,2085,2878,3_S
1789469682.759597,2030,2879,3_S
1789469682.761954,1902,2879,3_S
1789469682.764257,2105,2879,3_S
1789469682.765565,2058,2880,3_S
1789469682.76797,1938,2879,3_S
1789469682.7705421,1882,2878,3_S
1789469682.771841,2151,2879,3_S
1789469682.774241,2111,2880,3_S
1789469682.776541,2267,2880,3_S
1789469682.777594,2136,2879,3_S
1789469682.77966,2078,2879,3_S
1789469682.7821498,2094,2879,3_S
1789469682.784459,1946,2879,3_S
1789469682.785517,1897,2879,3_S
1789469682.787581,2049,2879,3_S
1789469682.7901282,2111,2878,3_S
1789469682.792434,2073,2881,3_S
1789469682.793735,2028,2880,3_S
1789469682.796288,1931,2878,3_S
1789469682.798599,2119,2879,3_S
1789469682.799653,2042,2879,3_S
1789469682.802204,1979,2878,3_S
1789469682.8042681,2160,2879,3_S
1789469682.806577,2067,2879,3_S
1789469682.807868,2256,2881,3_S
1789469682.809921,2053,2879,3_S
1789469682.81683,1955,2879,3_S
1789469682.817373,2161,2878,3_S
1789469682.819368,2095,2880,3_S
1789469682.819537,1844,2878,3_S
1789469682.8197162,2016,2878,3_S
1789469682.822766,2155,2879,3_S
1789469682.827273,2171,2877,3_S
1789469682.827656,2121,2879,3_S
1789469682.8278432,2050,2878,3_S
1789469682.83003,2125,2879,3_S
1789469682.832096,2211,2879,3_S
1789469682.833409,1935,2878,3_S
1789469682.8359628,1923,2878,3_S
1789469682.8416178,2174,2879,3_S
1789469682.8425002,2208,2878,3_S
1789469682.842975,2118,2881,3_S
1789469682.844626,1931,2878,3_S
1789469682.846539,1942,2878,3_S
1789469682.849974,2223,2880,3_S
1789469682.8501508,2038,2880,3_S
1789469682.852609,1942,2878,3_S
1789469682.854749,2096,2880,3_S
1789469682.856048,2219,2879,3_S
1789469682.857344,2236,2880,3_S
1789469682.8594072,2141,2880,3_S
1789469682.861727,2084,2879,3_S
1789469682.86406,2153,2879,3_S
1789469682.8653572,2061,2880,3_S
1789469682.867671,1912,2878,3_S
1789469682.870038,1993,2878,3_S
1789469682.872185,2166,2879,3_S
1789469682.873297,2191,2881,3_S
1789469682.875844,2056,2881,3_S
1789469682.8781528,1990,2879,3_S
1789469682.879282,2062,2880,3_S
1789469682.8813398,2095,2880,3_S
1789469682.883661,1946,2879,3_S
1789469682.885972,1940,2879,3_S
1789469682.8872662,2090,2879,3_S
1789469682.889766,2213,2879,3_S
1789469682.8920681,2208,2880,3_S
1789469682.8933609,2097,2879,3_S
1789469682.895916,2046,2878,3_S
1789469682.897235,2214,2879,3_S
1789469682.8995368,2065,2880,3_S
1789469682.901837,1973,2879,3_S
1789469682.9031959,2055,2879,3_S
1789469682.905739,2186,2880,3_S
1789469682.9082859,2200,2881,3_S
1789469682.909577,2052,2879,3_S
1789469682.912117,2017,2880,3_S
1789469682.913409,2148,2878,3_S
1789469682.918713,2096,2879,3_S
1789469682.919243,1956,2878,3_S
1789469682.9197261,2058,2879,3_S
1789469682.921539,2193,2878,3_S
1789469682.925041,2243,2880,3_S
1789469682.926817,2125,2880,3_S
1789469682.9294,2023,2878,3_S
1789469682.929656,2071,2879,3_S
1789469682.931351,2178,2879,3_S
1789469682.9337091,2022,2878,3_S
1789469682.9362571,2053,2880,3_S
1789469682.937493,2136,2878,3_S
1789469682.942241,2164,2878,3_S
1789469682.943022,2141,2879,3_S
1789469682.9432058,2100,2878,3_S
1789469682.94523,2028,2879,3_S
1789469682.948267,2135,2879,3_S
1789469682.950321,1947,2877,3_S
1789469682.952752,1921,2879,3_S
1789469682.9549599,2110,2879,3_S
1789469682.955081,2218,2879,3_S
1789469682.957628,2150,2880,3_S
1789469682.9601731,2012,2879,3_S
1789469682.961466,2106,2879,3_S
1789469682.9635499,2163,2879,3_S
1789469682.965872,2082,2880,3_S
1789469682.967059,1919,2878,3_S
1789469682.96961,1935,2879,3_S
1789469682.9719129,2134,2880,3_S
1789469682.9732091,2300,2882,3_S
1789469682.9755142,2112,2880,3_S
1789469682.978058,2070,2879,3_S
1789469682.97935,2175,2879,3_S
1789469682.9818912,2238,2880,3_S
1789469682.9830139,2092,2879,3_S
1789469682.985455,2055,2879,3_S
1789469682.9877388,2006,2879,3_S
1789469682.9898539,2194,2878,3_S
1789469682.9910002,2156,2879,3_S
1789469682.9933062,1972,2878,3_S
1789469682.995616,1897,2879,3_S
1789469682.997674,2065,2879,3_S
1789469682.99997,2047,2879,3_S
1789469683.001018,1973,2878,3_S
1789469683.00332,2035,2879,3_S
1789469683.005862,2117,2879,3_S
1789469683.0071511,2216,2881,3_S
1789469683.0094569,2081,2879,3_S
1789469683.011998,1956,2879,3_S
1789469683.0133078,2169,2879,3_S
1789469683.017238,2120,2880,3_S
1789469683.017736,1956,2878,3_S
1789469683.020304,2020,2878,3_S
1789469683.021895,2242,2879,3_S
1789469683.0232909,2357,2881,3_S
1789469683.0256279,2221,2880,3_S
1789469683.028011,2102,2878,3_S
1789469683.030358,2107,2879,3_S
1789469683.03167,2097,2880,3_S
1789469683.033003,1922,2877,3_S
1789469683.035305,1986,2878,3_S
1789469683.0410728,2055,2878,3_S
1789469683.041533,2221,2879,3_S
1789469683.041625,2081,2878,3_S
1789469683.04349,1971,2879,3_S
1789469683.045055,1976,2878,3_S
1789469683.0485408,2226,2879,3_S
1789469683.050883,2095,2879,3_S
1789469683.05104,1962,2879,3_S
1789469683.053896,2032,2878,3_S
1789469683.054949,2243,2880,3_S
1789469683.057492,2109,2880,3_S
1789469683.059798,2037,2879,3_S
1789469683.060871,1985,2879,3_S
1789469683.062942,2165,2879,3_S
1789469683.065485,2207,2880,3_S
1789469683.06754,1989,2879,3_S
1789469683.068827,2037,2879,3_S
1789469683.0708768,2142,2879,3_S
1789469683.072941,2252,2880,3_S
1789469683.075391,2142,2880,3_S
1789469683.0779378,1998,2879,3_S
1789469683.079227,2050,2880,3_S
1789469683.081773,2149,2879,3_S
1789469683.0830631,1949,2879,3_S
1789469683.0856059,1895,2880,3_S
1789469683.086826,2071,2879,3_S
1789469683.088893,2190,2879,3_S
1789469683.091435,2181,2879,3_S
1789469683.093867,2117,2879,3_S
1789469683.0951529,2079,2879,3_S
1789469683.097457,2196,2879,3_S
1789469683.099515,2070,2879,3_S
1789469683.100808,1961,2879,3_S
1789469683.102874,2091,2878,3_S
1789469683.1049778,2171,2878,3_S
1789469683.1070569,2178,2880,3_S
1789469683.1133828,2043,2879,3_S
1789469683.1134698,1988,2878,3_S
1789469683.113579,2182,2879,3_S
1789469683.1155531,2150,2879,3_S
1789469683.117412,2025,2877,3_S
1789469683.119377,2036,2878,3_S
1789469683.1227741,2154,2880,3_S
1789469683.122957,2155,2877,3_S
1789469683.1259892,2151,2880,3_S
1789469683.1272802,2070,2879,3_S
1789469683.1286662,2058,2879,3_S
1789469683.135612,2089,2879,3_S
1789469683.135751,1930,2877,3_S
1789469683.136498,1971,2878,3_S
1789469683.139405,2113,2879,3_S
1789469683.139507,2228,2879,3_S
1789469683.141252,2112,2878,3_S
1789469683.144871,2067,2880,3_S
1789469683.1450272,2040,2878,3_S
1789469683.147095,2149,2878,3_S
1789469683.149647,2061,2879,3_S
1789469683.150938,1940,2879,3_S
1789469683.153192,2053,2879,3_S
1789469683.154596,2148,2879,3_S
1789469683.156916,2182,2879,3_S
1789469683.15946,2059,2879,3_S
1789469683.160748,1986,2878,3_S
1789469683.16329,2114,2879,3_S
1789469683.164576,2080,2880,3_S
1789469683.167115,1928,2877,3_S
1789469683.168513,1967,2878,3_S
1789469683.170806,2099,2879,3_S
1789469683.173111,2145,2878,3_S
1789469683.175401,2115,2879,3_S
1789469683.1766882,2021,2878,3_S
1789469683.178992,2058,2879,3_S
1789469683.1810508,2136,2878,3_S
1789469683.183111,1995,2877,3_S
1789469683.1845188,1980,2879,3_S
1789469683.187069,2133,2879,3_S
1789469683.1895208,2231,2879,3_S
1789469683.190808,2155,2880,3_S
1789469683.193099,2068,2878,3_S
1789469683.195353,2055,2878,3_S
1789469683.196639,2138,2879,3_S
1789469683.199195,1997,2877,3_S
1789469683.201494,1904,2879,3_S
1789469683.206487,2022,2878,3_S
1789469683.206937,2188,2879,3_S
1789469683.20734,2144,2880,3_S
1789469683.2092412,2044,2879,3_S
1789469683.211581,1976,2879,3_S
1789469683.212846,2078,2878,3_S
1789469683.214545,2092,2880,3_S
1789469683.216789,1998,2878,3_S
1789469683.2184682,2012,2879,3_S
1789469683.221015,2175,2879,3_S
1789469683.223316,2219,2880,3_S
1789469683.228825,2101,2879,3_S
1789469683.2292202,2046,2879,3_S
1789469683.2296278,2069,2879,3_S
1789469683.231037,2149,2880,3_S
1789469683.232867,1980,2878,3_S
1789469683.234745,1923,2879,3_S
1789469683.238496,2061,2879,3_S
1789469683.238627,2148,2878,3_S
1789469683.24122,2113,2880,3_S
1789469683.242511,2005,2879,3_S
1789469683.244899,1996,2878,3_S
1789469683.247013,2154,2880,3_S
1789469683.248401,2060,2880,3_S
1789469683.250955,1955,2879,3_S
1789469683.25334,2101,2878,3_S
1789469683.254399,2244,2879,3_S
1789469683.256707,2200,2880,3_S
1789469683.259249,2098,2879,3_S
1789469683.260347,2013,2879,3_S
1789469683.262414,2129,2878,3_S
1789469683.264471,2103,2879,3_S
1789469683.266776,1964,2878,3_S
1789469683.269069,1959,2879,3_S
1789469683.2703528,2111,2879,3_S
1789469683.2724109,2167,2879,3_S
1789469683.274703,2149,2880,3_S
1789469683.2772439,2042,2879,3_S
1789469683.27841,2085,2879,3_S
1789469683.280947,2140,2880,3_S
1789469683.2822678,2011,2878,3_S
1789469683.2844281,1949,2878,3_S
1789469683.286489,2133,2879,3_S
1789469683.2887821,2216,2879,3_S
1789469683.2910779,2134,2879,3_S
1789469683.292363,2026,2878,3_S
1789469683.294432,2041,2879,3_S
1789469683.2984781,2142,2879,3_S
1789469683.29898,2041,2880,3_S
1789469683.3009138,1938,2878,3_S
1789469683.303105,2051,2878,3_S
1789469683.305732,2151,2879,3_S
1789469683.3080761,2144,2880,3_S
1789469683.308314,2046,2878,3_S
1789469683.310975,2032,2878,3_S
1789469683.3122618,2140,2879,3_S
1789469683.314562,2142,2880,3_S
1789469683.319705,1930,2877,3_S
1789469683.3204181,1950,2879,3_S
1789469683.320481,2159,2879,3_S
1789469683.323123,2197,2877,3_S
1789469683.324672,2112,2880,3_S
1789469683.326509,2069,2879,3_S
1789469683.328714,2101,2879,3_S
1789469683.3430521,2131,2879,3_S
1789469683.3430898,1994,2877,3_S
1789469683.3431208,1957,2879,3_S
1789469683.343152,2115,2879,3_S
1789469683.3431811,2202,2879,3_S
1789469683.343211,2108,2879,3_S
1789469683.34324,1992,2879,3_S
1789469683.344651,2003,2880,3_S
1789469683.346113,2128,2878,3_S
1789469683.348709,2022,2880,3_S
1789469683.350083,1946,2880,3_S
1789469683.3526669,2063,2878,3_S
1789469683.354073,2176,2879,3_S
1789469683.356884,2211,2880,3_S
1789469683.358238,2121,2880,3_S
1789469683.360831,2075,2879,3_S
1789469683.362158,2110,2879,3_S
1789469683.3647418,2097,2879,3_S
1789469683.366106,1999,2878,3_S
1789469683.36856,1995,2879,3_S
1789469683.371146,2074,2878,3_S
1789469683.372443,2143,2879,3_S
1789469683.375176,2092,2879,3_S
1789469683.37654,2095,2880,3_S
1789469683.3791308,2109,2879,3_S
1789469683.3804889,2212,2878,3_S
1789469683.383052,1828,2877,3_S
1789469683.384392,1948,2878,3_S
1789469683.394829,2229,2879,3_S
1789469683.397718,2251,2879,3_S
1789469683.399868,2128,2879,3_S
1789469683.4026601,1937,2879,3_S
1789469683.403289,2013,2877,3_S
1789469683.403594,2211,2880,3_S
1789469683.403732,2097,2880,3_S
1789469683.405684,1898,2878,3_S
1789469683.4059289,2091,2879,3_S
1789469683.4060538,2068,2879,3_S
1789469683.406136,2136,2877,3_S
1789469683.408725,2191,2881,3_S
1789469683.410123,2078,2877,3_S
1789469683.412784,2069,2878,3_S
1789469683.419199,2103,2880,3_S
1789469683.42303,1925,2877,3_S
1789469683.4236531,1947,2880,3_S
1789469683.4249458,2157,2879,3_S
1789469683.4301171,2244,2880,3_S
1789469683.432344,2156,2880,3_S
1789469683.4324281,2118,2879,3_S
1789469683.432493,1825,2879,3_S
1789469683.4326122,1927,2879,3_S
1789469683.432692,2109,2878,3_S
1789469683.434144,1975,2879,3_S
1789469683.4367208,2144,2878,3_S
1789469683.438792,2186,2878,3_S
1789469683.4402828,2152,2880,3_S
1789469683.443014,2073,2878,3_S
1789469683.444392,2133,2879,3_S
1789469683.4470348,2244,2878,3_S
1789469683.448389,2194,2879,3_S
1789469683.450946,1996,2878,3_S
1789469683.452283,1958,2878,3_S
1789469683.454941,2012,2878,3_S
1789469683.456341,2115,2878,3_S
1789469683.458017,2071,2879,3_S
1789469683.460643,2040,2879,3_S
1789469683.461983,2201,2880,3_S
1789469683.464596,2005,2879,3_S
1789469683.465931,1880,2877,3_S
1789469683.468576,1991,2879,3_S
1789469683.469919,2189,2879,3_S
1789469683.47259,2243,2881,3_S
1789469683.473963,2139,2880,3_S
1789469683.4764879,2015,2879,3_S
1789469683.47783,2000,2878,3_S
1789469683.480435,2177,2879,3_S
1789469683.481801,1992,2877,3_S
1789469683.4843981,1909,2878,3_S
1789469683.485754,2094,2879,3_S
1789469683.48836,2201,2879,3_S
1789469683.4897668,2165,2880,3_S
1789469683.492256,2067,2879,3_S
1789469683.500937,1915,2878,3_S
1789469683.502066,2141,2880,3_S
1789469683.503888,2084,2880,3_S
1789469683.50655,1944,2879,3_S
1789469683.508179,2081,2881,3_S
1789469683.509778,2214,2880,3_S
1789469683.511648,2229,2881,3_S
1789469683.514791,2089,2879,3_S
1789469683.5153458,1950,2878,3_S
1789469683.517398,2117,2880,3_S
1789469683.518225,2075,2880,3_S
1789469683.5182981,1948,2877,3_S
1789469683.518362,2026,2879,3_S
1789469683.5197282,2171,2878,3_S
1789469683.522414,2159,2878,3_S
1789469683.5237818,2144,2880,3_S
1789469683.532116,2092,2878,3_S
1789469683.534297,2127,2878,3_S
1789469683.5346959,2160,2878,3_S
1789469683.5348842,1997,2878,3_S
1789469683.536921,2024,2879,3_S
1789469683.5375638,2114,2878,3_S
1789469683.538283,2235,2880,3_S
1789469683.5447192,2085,2878,3_S
1789469683.544984,1980,2879,3_S
1789469683.545156,2009,2878,3_S
1789469683.547711,2143,2878,3_S
1789469683.547791,2105,2879,3_S
1789469683.550424,1951,2879,3_S
1789469683.55179,1986,2880,3_S
1789469683.5542521,2213,2879,3_S
1789469683.555679,2206,2880,3_S
1789469683.5583758,2033,2880,3_S
1789469683.5597389,1991,2878,3_S
1789469683.562389,2152,2879,3_S
1789469683.5637388,2137,2879,3_S
1789469683.566339,1964,2877,3_S
1789469683.5677729,1855,2879,3_S
1789469683.570396,2074,2879,3_S
1789469683.5717351,2206,2878,3_S
1789469683.574477,2073,2879,3_S
1789469683.57585,2013,2879,3_S
1789469683.578461,2122,2879,3_S
1789469683.579794,2121,2880,3_S
1789469683.5823889,2039,2878,3_S
1789469683.583719,2032,2878,3_S
1789469683.5863192,2010,2879,3_S
1789469683.5879061,2179,2879,3_S
1789469683.5905879,2201,2880,3_S
1789469683.592088,2038,2879,3_S
1789469683.593947,2017,2879,3_S
1789469683.596863,2095,2878,3_S
1789469683.598204,2025,2880,3_S
1789469683.599614,1888,2879,3_S
1789469683.6027148,2063,2879,3_S
1789469683.6041338,2242,2879,3_S
1789469683.606914,2242,2880,3_S
1789469683.608377,2037,2880,3_S
1789469683.6102452,2023,2878,3_S
1789469683.611677,2061,2880,3_S
1789469683.614301,2092,2880,3_S
1789469683.638031,2048,2878,3_S
1789469683.6392682,1942,2879,3_S
1789469683.6393862,2148,2879,3_S
1789469683.6394439,2232,2879,3_S
1789469683.639534,2171,2880,3_S
1789469683.639584,2067,2879,3_S
1789469683.639627,2082,2879,3_S
1789469683.6396701,2120,2879,3_S
1789469683.639711,2026,2878,3_S
1789469683.639752,1886,2878,3_S
1789469683.639793,2036,2878,3_S
1789469683.639833,2160,2879,3_S
1789469683.639874,2172,2880,3_S
1789469683.641498,2141,2879,3_S
1789469683.6443179,2085,2878,3_S
1789469683.645681,2044,2879,3_S
1789469683.648339,2038,2879,3_S
1789469683.6495612,1972,2879,3_S
1789469683.65907,2051,2879,3_S
1789469683.661149,2178,2879,3_S
1789469683.663312,2119,2881,3_S
1789469683.663682,2036,2879,3_S
1789469683.6641521,1991,2878,3_S
1789469683.6664152,2108,2879,3_S
1789469683.675916,2140,2879,3_S
1789469683.676358,2020,2878,3_S
1789469683.676607,2038,2879,3_S
1789469683.678968,2172,2880,3_S
1789469683.679709,2217,2878,3_S
1789469683.679766,2060,2880,3_S
1789469683.67988,1906,2878,3_S
1789469683.680052,1957,2878,3_S
1789469683.68028,2106,2878,3_S
1789469683.681525,1983,2878,3_S
1789469683.683702,1928,2879,3_S
1789469683.686253,2105,2879,3_S
1789469683.687892,2173,2877,3_S
1789469683.69034,2160,2879,3_S
1789469683.691424,2109,2879,3_S
1789469683.6935139,2112,2879,3_S
1789469683.695827,2240,2880,3_S
1789469683.697902,2154,2880,3_S
1789469683.70023,1909,2878,3_S
1789469683.701526,2009,2878,3_S
1789469683.704053,2172,2880,3_S
1789469683.70535,2167,2881,3_S
1789469683.707809,2107,2879,3_S
1789469683.709926,2069,2879,3_S
1789469683.71233,2100,2879,3_S
1789469683.7136269,2087,2880,3_S
1789469683.7157571,2116,2877,3_S
1789469683.718313,1979,2879,3_S
1789469683.7196171,2132,2878,3_S
1789469683.7221692,2289,2881,3_S
1789469683.72327,2203,2880,3_S
1789469683.725832,2014,2879,3_S
1789469683.728231,2092,2879,3_S
1789469683.729534,2185,2880,3_S
1789469683.731874,1971,2878,3_S
1789469683.7342012,1946,2878,3_S
1789469683.735265,2142,2879,3_S
1789469683.737601,2162,2878,3_S
1789469683.740154,2130,2880,3_S
1789469683.741451,1992,2878,3_S
1789469683.7440069,1993,2878,3_S
1789469683.74531,2109,2878,3_S
1789469683.7478201,2061,2880,3_S
1789469683.749148,1982,2879,3_S
1789469683.75543,2068,2878,3_S
1789469683.7572072,2161,2879,3_S
1789469683.75824,2222,2881,3_S
1789469683.758398,2173,2880,3_S
1789469683.7652411,2068,2878,3_S
1789469683.771491,2154,2879,3_S
1789469683.772342,2088,2880,3_S
1789469683.772543,1894,2879,3_S
1789469683.772779,1923,2878,3_S
1789469683.775156,2113,2879,3_S
1789469683.775384,2195,2878,3_S
1789469683.775519,2075,2880,3_S
1789469683.7756422,2052,2880,3_S
1789469683.7777338,2062,2878,3_S
1789469683.779854,2261,2879,3_S
1789469683.7823,2043,2877,3_S
1789469683.791543,1972,2879,3_S
1789469683.791879,2053,2880,3_S
1789469683.792028,2093,2879,3_S
1789469683.7940218,2107,2879,3_S
1789469683.7946072,2091,2879,3_S
1789469683.795769,1987,2878,3_S
1789469683.796861,2136,2878,3_S
1789469683.797436,2068,2880,3_S
1789469683.802207,1987,2878,3_S
1789469683.802619,2084,2878,3_S
1789469683.804666,2237,2878,3_S
1789469683.8060029,2292,2879,3_S
1789469683.807084,2101,2879,3_S
1789469683.809526,2021,2879,3_S
1789469683.8117518,2077,2878,3_S
1789469683.8130062,2116,2879,3_S
1789469683.815181,2020,2877,3_S
1789469683.817373,1966,2878,3_S
1789469683.819747,2172,2878,3_S
1789469683.821013,2249,2881,3_S
1789469683.823413,2164,2880,3_S
1789469683.825747,1998,2877,3_S
1789469683.827942,2038,2878,3_S
1789469683.829173,2093,2880,3_S
1789469683.8313851,1978,2878,3_S
1789469683.833699,1966,2880,3_S
1789469683.835812,2088,2878,3_S
1789469683.836941,2223,2879,3_S
1789469683.839099,2162,2879,3_S
1789469683.8412108,2043,2879,3_S
1789469683.843539,1973,2879,3_S
1789469683.845881,2127,2879,3_S
1789469683.847231,2022,2880,3_S
1789469683.849448,1954,2878,3_S
1789469683.851616,2042,2879,3_S
1789469683.852896,2196,2879,3_S
1789469683.855113,2191,2881,3_S
1789469683.857485,1995,2880,3_S
1789469683.859802,2040,2879,3_S
1789469683.861099,2109,2879,3_S
1789469683.8634171,2211,2879,3_S
1789469683.8659708,2055,2877,3_S
1789469683.8670342,1851,2879,3_S
1789469683.869338,2016,2878,3_S
1789469683.871655,2236,2880,3_S
1789469683.873033,2160,2880,3_S
1789469683.8788311,1998,2878,3_S
1789469683.879454,2000,2880,3_S
1789469683.880065,2142,2880,3_S
1789469683.882102,1977,2878,3_S
1789469683.884125,1890,2879,3_S
1789469683.8857431,2110,2879,3_S
1789469683.888586,2209,2879,3_S
1789469683.891289,2041,2877,3_S
1789469683.8914828,2000,2879,3_S
1789469683.8935401,2046,2880,3_S
1789469683.895862,2166,2879,3_S
1789469683.8971589,2094,2878,3_S
1789469683.89971,1918,2879,3_S
1789469683.900971,1957,2879,3_S
1789469683.908393,2148,2878,3_S
1789469683.9091341,2233,2880,3_S
1789469683.910725,2144,2879,3_S
1789469683.913685,2009,2878,3_S
1789469683.915276,1965,2878,3_S
1789469683.915893,2100,2880,3_S
1789469683.916446,1909,2877,3_S
1789469683.921029,1926,2878,3_S
1789469683.921669,2081,2880,3_S
1789469683.921931,2229,2881,3_S
1789469683.924366,2195,2881,3_S
1789469683.925683,2074,2879,3_S
1789469683.9267561,2063,2880,3_S
1789469683.929468,2170,2880,3_S
1789469683.930801,1939,2879,3_S
1789469683.933408,1923,2878,3_S
1789469683.934844,2050,2879,3_S
1789469683.9372008,2124,2878,3_S
1789469683.939521,1998,2876,3_S
1789469683.940928,2004,2879,3_S
1789469683.943258,2035,2878,3_S
1789469683.945805,2152,2879,3_S
1789469683.94718,2101,2879,3_S
1789469683.949273,1916,2878,3_S
1789469683.951346,2044,2880,3_S
1789469683.952723,2174,2880,3_S
1789469683.955047,2070,2877,3_S
1789469683.957364,2042,2880,3_S
1789469683.958665,1970,2880,3_S
1789469683.96098,2015,2878,3_S
1789469683.963299,2104,2879,3_S
1789469683.965687,1884,2878,3_S
1789469683.9667552,1862,2879,3_S
1789469683.969077,2081,2879,3_S
1789469683.971156,2233,2878,3_S
1789469683.9734788,2116,2879,3_S
1789469683.974599,1980,2879,3_S
1789469683.976925,1882,2879,3_S
1789469683.9792798,2027,2878,3_S
1789469683.980684,1935,2878,3_S
1789469683.98276,1980,2879,3_S
1789469683.984847,2110,2879,3_S
1789469683.987193,2135,2879,3_S
1789469683.989272,2078,2881,3_S
1789469683.991679,1985,2877,3_S
1789469683.992759,2085,2879,3_S
1789469683.994755,2250,2878,3_S
1789469684.001652,2149,2880,3_S
1789469684.0027158,1972,2877,3_S
1789469684.004739,2142,2879,3_S
1789469684.004988,2228,2879,3_S
1789469684.0051122,2180,2881,3_S
1789469684.008491,1969,2880,3_S
1789469684.008692,2005,2879,3_S
1789469684.011929,1975,2879,3_S
1789469684.014836,2101,2879,3_S
1789469684.014976,2009,2877,3_S
1789469684.017334,1716,2879,3_S
1789469684.0186481,1992,2879,3_S
1789469684.021198,2172,2878,3_S
1789469684.0233119,2165,2879,3_S
1789469684.0246139,1961,2878,3_S
1789469684.03126,2143,2880,3_S
1789469684.032236,2284,2879,3_S
1789469684.034197,1920,2878,3_S
1789469684.0345001,1981,2878,3_S
1789469684.0363781,2023,2880,3_S
1789469684.036907,2345,2880,3_S
1789469684.038956,2204,2880,3_S
1789469684.041013,1948,2879,3_S
1789469684.0440361,2109,2879,3_S
1789469684.046083,2277,2880,3_S
1789469684.0475168,2153,2881,3_S
1789469684.048898,1696,2879,3_S
1789469684.051324,2033,2879,3_S
1789469684.0526621,2348,2879,3_S
1789469684.055261,2277,2880,3_S
1789469684.057102,1854,2877,3_S
1789469684.058508,1877,2879,3_S
1789469684.060887,2119,2878,3_S
1789469684.0630422,2235,2879,3_S
1789469684.064416,2043,2879,3_S
1789469684.066714,2119,2879,3_S
1789469684.069087,2057,2879,3_S
1789469684.0703921,2117,2879,3_S
1789469684.07344,2119,2880,3_S
1789469684.074791,2125,2879,3_S
1789469684.07696,2131,2879,3_S
1789469684.078424,2250,2878,3_S
1789469684.080848,1990,2880,3_S
1789469684.083051,1948,2877,3_S
1789469684.084401,2320,2879,3_S
1789469684.086733,2097,2879,3_S
1789469684.089094,2148,2880,3_S
1789469684.090524,2203,2880,3_S
1789469684.093158,2040,2879,3_S
1789469684.094359,2249,2879,3_S
1789469684.0969641,1966,2879,3_S
1789469684.09834,1865,2879,3_S
1789469684.100718,2083,2879,3_S
1789469684.103085,2253,2878,3_S
1789469684.105202,2209,2880,3_S
1789469684.106316,2036,2879,3_S
1789469684.108651,2031,2879,3_S
1789469684.110759,2043,2879,3_S
1789469684.1133409,2073,2880,3_S
1789469684.1145458,1918,2878,3_S
1789469684.121378,1899,2878,3_S
1789469684.123026,2129,2878,3_S
1789469684.1247869,2318,2881,3_S
1789469684.125217,2190,2880,3_S
1789469684.1276228,2095,2878,3_S
1789469684.128191,2159,2878,3_S
1789469684.128858,2117,2880,3_S
1789469684.132394,1968,2878,3_S
1789469684.1327622,1961,2879,3_S
1789469684.1354198,2277,2879,3_S
1789469684.137941,2199,2878,3_S
1789469684.139393,2096,2879,3_S
1789469684.140459,2102,2879,3_S
1789469684.142834,2088,2880,3_S
1789469684.144191,2045,2879,3_S
1789469684.150244,1971,2878,3_S
1789469684.151675,1901,2879,3_S
1789469684.153462,1915,2879,3_S
1789469684.153785,2109,2879,3_S
1789469684.1559522,2295,2880,3_S
1789469684.157664,1928,2880,3_S
1789469684.16297,1927,2879,3_S
1789469684.163234,2226,2878,3_S
1789469684.163533,2032,2879,3_S
1789469684.165941,2129,2878,3_S
1789469684.167284,2036,2879,3_S
1789469684.1683462,2170,2879,3_S
1789469684.1706681,2122,2879,3_S
1789469684.173058,2024,2880,3_S
1789469684.1742,1992,2878,3_S
1789469684.176803,2161,2880,3_S
1789469684.178184,2189,2880,3_S
1789469684.180266,2049,2880,3_S
1789469684.182354,1916,2878,3_S
1789469684.184432,2128,2880,3_S
1789469684.186754,2257,2880,3_S
1789469684.189078,2147,2880,3_S
1789469684.190376,1959,2879,3_S
1789469684.192707,2119,2878,3_S
1789469684.194785,2121,2879,3_S
1789469684.196152,2105,2880,3_S
1789469684.1984909,1842,2879,3_S
1789469684.200584,1900,2879,3_S
1789469684.2029078,2157,2878,3_S
1789469684.204994,2221,2881,3_S
1789469684.2062988,2095,2879,3_S
1789469684.208628,1886,2879,3_S
1789469684.2107232,2053,2880,3_S
1789469684.2128131,2159,2881,3_S
1789469684.215151,2094,2879,3_S
1789469684.216458,1889,2879,3_S
1789469684.2185311,2021,2879,3_S
1789469684.220875,2279,2882,3_S
1789469684.2221818,2328,2880,3_S
1789469684.224746,2161,2879,3_S
1789469684.226052,2037,2879,3_S
1789469684.228616,1983,2879,3_S
1789469684.230709,1948,2877,3_S
1789469684.232019,1891,2878,3_S
1789469684.234443,1967,2879,3_S
1789469684.236778,2094,2878,3_S
1789469684.238855,2164,2879,3_S
1789469684.240226,2091,2879,3_S
1789469684.246399,1963,2879,3_S
1789469684.24767,2088,2878,3_S
1789469684.248378,2128,2880,3_S
1789469684.2489548,2092,2879,3_S
1789469684.251165,2036,2879,3_S
1789469684.2545788,1848,2879,3_S
1789469684.254872,2097,2879,3_S
1789469684.261163,2059,2880,3_S
1789469684.261388,1838,2879,3_S
1789469684.2618518,2072,2879,3_S
1789469684.262181,2264,2880,3_S
1789469684.264767,1986,2878,3_S
1789469684.2661572,1901,2878,3_S
1789469684.2682471,2083,2878,3_S
1789469684.2706602,2242,2879,3_S
1789469684.2730958,2179,2880,3_S
1789469684.280033,2099,2879,3_S
1789469684.28111,1890,2879,3_S
1789469684.281326,2020,2878,3_S
1789469684.283197,1985,2878,3_S
1789469684.285147,1919,2879,3_S
1789469684.286391,2038,2878,3_S
1789469684.28755,2295,2879,3_S
1789469684.2907772,2218,2880,3_S
1789469684.2941499,1939,2878,3_S
1789469684.294445,1976,2880,3_S
1789469684.294698,2082,2879,3_S
1789469684.297185,2081,2880,3_S
1789469684.2984939,1902,2879,3_S
1789469684.3005881,1934,2880,3_S
1789469684.3026931,2292,2879,3_S
1789469684.304804,2092,2878,3_S
1789469684.30618,2022,2879,3_S
1789469684.308529,1965,2879,3_S
1789469684.309887,2222,2880,3_S
1789469684.312217,2105,2878,3_S
1789469684.314817,1978,2878,3_S
1789469684.3158872,1884,2879,3_S
1789469684.317975,2043,2878,3_S
1789469684.320054,2152,2879,3_S
1789469684.322556,2161,2880,3_S
1789469684.323982,2052,2880,3_S
1789469684.326375,1866,2878,3_S
1789469684.3278122,2153,2879,3_S
1789469684.330464,2063,2880,3_S
1789469684.332554,1951,2878,3_S
1789469684.334645,2015,2881,3_S
1789469684.3358002,2112,2879,3_S
1789469684.338428,2033,2879,3_S
1789469684.340773,2074,2879,3_S
1789469684.341836,2021,2879,3_S
1789469684.3443992,2108,2878,3_S
1789469684.3458078,1975,2879,3_S
1789469684.348408,1861,2877,3_S
1789469684.349747,2043,2879,3_S
1789469684.3523479,2111,2880,3_S
1789469684.354916,2164,2878,3_S
1789469684.3560598,2099,2880,3_S
1789469684.35819,2053,2880,3_S
1789469684.360536,2142,2880,3_S
1789469684.361842,2114,2880,3_S
1789469684.3641942,2026,2878,3_S
1789469684.366265,2115,2878,3_S
1789469684.3683672,2079,2880,3_S
1789469684.369689,2075,2880,3_S
1789469684.376404,2037,2879,3_S
1789469684.377068,1939,2879,3_S
1789469684.378176,2047,2878,3_S
1789469684.378838,2104,2879,3_S
1789469684.380815,2024,2880,3_S
1789469684.3834188,1828,2880,3_S
1789469684.3861241,2000,2878,3_S
1789469684.387876,2177,2879,3_S
1789469684.393225,2167,2881,3_S
1789469684.393566,2148,2879,3_S
1789469684.393986,2077,2879,3_S
1789469684.39427,2086,2879,3_S
1789469684.396876,1989,2878,3_S
1789469684.397949,1869,2879,3_S
1789469684.4002821,1924,2879,3_S
1789469684.401648,2143,2879,3_S
1789469684.4037309,2198,2879,3_S
1789469684.410401,2065,2881,3_S
1789469684.411536,1983,2880,3_S
1789469684.41396,2039,2879,3_S
1789469684.4140968,2108,2881,3_S
1789469684.41431,2059,2879,3_S
1789469684.417142,1971,2880,3_S
1789469684.4208362,2061,2879,3_S
1789469684.423869,2243,2879,3_S
1789469684.424217,2263,2881,3_S
1789469684.424463,1987,2878,3_S
1789469684.426802,1933,2880,3_S
1789469684.4278662,2109,2880,3_S
1789469684.4305222,2028,2877,3_S
1789469684.431645,1958,2879,3_S
1789469684.433748,2146,2879,3_S
1789469684.4360871,2175,2878,3_S
1789469684.438189,2155,2880,3_S
1789469684.4405189,2076,2879,3_S
1789469684.441584,2011,2879,3_S
1789469684.443903,2300,2880,3_S
1789469684.446225,1892,2877,3_S
1789469684.447527,1866,2878,3_S
1789469684.4499662,1892,2880,3_S
1789469684.4522932,2098,2879,3_S
1789469684.453593,2164,2878,3_S
1789469684.455913,2028,2880,3_S
1789469684.458247,2005,2879,3_S
1789469684.459556,2028,2879,3_S
1789469684.461877,2170,2880,3_S
1789469684.464191,1958,2879,3_S
1789469684.466317,1952,2880,3_S
1789469684.467482,2158,2879,3_S
1789469684.4695702,2236,2880,3_S
1789469684.471881,2072,2880,3_S
1789469684.4744442,1920,2879,3_S
1789469684.475553,2029,2878,3_S
1789469684.4779048,2101,2879,3_S
1789469684.479978,2042,2879,3_S
1789469684.482489,1991,2879,3_S
1789469684.483826,2093,2880,3_S
1789469684.486154,2245,2879,3_S
1789469684.4874601,2149,2880,3_S
1789469684.4895518,2111,2879,3_S
1789469684.491638,2030,2878,3_S
1789469684.493963,2082,2878,3_S
1789469684.496118,2089,2880,3_S
1789469684.50541,1935,2878,3_S
1789469684.5055811,1924,2878,3_S
1789469684.5062091,2131,2879,3_S
1789469684.507978,2185,2880,3_S
1789469684.5103831,2060,2880,3_S
1789469684.511467,2007,2878,3_S
1789469684.511651,2087,2879,3_S
1789469684.512319,2200,2880,3_S
1789469684.518361,2015,2879,3_S
1789469684.5185091,1994,2879,3_S
1789469684.518682,2131,2878,3_S
1789469684.521321,2192,2880,3_S
1789469684.5213661,2168,2880,3_S
1789469684.5239391,2068,2879,3_S
1789469684.5263271,2058,2879,3_S
1789469684.527724,2221,2878,3_S
1789469684.534165,2036,2880,3_S
1789469684.5349581,1934,2878,3_S
1789469684.535615,2122,2879,3_S
1789469684.537944,2215,2878,3_S
1789469684.5404701,2202,2881,3_S
1789469684.541287,2097,2880,3_S
1789469684.541975,2012,2879,3_S
1789469684.543874,2115,2879,3_S
1789469684.545868,2102,2879,3_S
1789469684.549071,1892,2879,3_S
1789469684.5520031,1908,2878,3_S
1789469684.552064,2192,2880,3_S
1789469684.554322,2266,2880,3_S
1789469684.555381,2138,2879,3_S
1789469684.557514,2028,2878,3_S
1789469684.5595992,2102,2879,3_S
1789469684.561922,2146,2879,3_S
1789469684.5640042,1948,2877,3_S
1789469684.566317,1992,2879,3_S
1789469684.56737,2103,2879,3_S
1789469684.5696719,2189,2878,3_S
1789469684.572056,2128,2879,3_S
1789469684.573351,2043,2879,3_S
1789469684.5758562,2113,2880,3_S
1789469684.57724,2146,2879,3_S
1789469684.579551,1994,2878,3_S
1789469684.581866,1927,2878,3_S
1789469684.5841842,2031,2880,3_S
1789469684.585238,2066,2878,3_S
1789469684.587557,2138,2880,3_S
1789469684.5898619,2036,2879,3_S
1789469684.591218,1976,2878,3_S
1789469684.5935428,2112,2878,3_S
1789469684.5960991,2096,2879,3_S
1789469684.597206,1939,2879,3_S
1789469684.599514,2008,2878,3_S
1789469684.60184,2196,2878,3_S
1789469684.603909,2246,2880,3_S
1789469684.605207,2070,2878,3_S
1789469684.607761,1967,2879,3_S
1789469684.610097,2057,2879,3_S
1789469684.611166,2160,2880,3_S
1789469684.6132329,1979,2878,3_S
1789469684.615314,1988,2879,3_S
1789469684.6176279,2141,2879,3_S
1789469684.625303,2204,2879,3_S
1789469684.625504,2066,2879,3_S
1789469684.626047,2026,2879,3_S
1789469684.627109,2063,2879,3_S
1789469684.6276438,2172,2879,3_S
1789469684.631266,2050,2879,3_S
1789469684.631378,1887,2878,3_S
1789469684.635173,1972,2880,3_S
1789469684.635413,2108,2878,3_S
1789469684.638325,2149,2880,3_S
1789469684.6409652,2043,2878,3_S
1789469684.642411,2074,2878,3_S
1789469684.643472,2098,2879,3_S
1789469684.6456199,2008,2880,3_S
1789469684.6476989,1862,2877,3_S
1789469684.655061,1975,2879,3_S
1789469684.6551821,2203,2879,3_S
1789469684.6558452,2265,2880,3_S
1789469684.65637,2196,2880,3_S
1789469684.658933,1994,2878,3_S
1789469684.6591349,2012,2878,3_S
1789469684.6619678,2148,2879,3_S
1789469684.6636102,2046,2877,3_S
1789469684.665248,2016,2879,3_S
1789469684.6680892,2124,2880,3_S
1789469684.670143,2203,2879,3_S
1789469684.671207,2137,2880,3_S
1789469684.6737568,1991,2879,3_S
1789469684.675067,1949,2879,3_S
1789469684.678097,2123,2879,3_S
1789469684.679181,2029,2877,3_S
1789469684.68151,1917,2878,3_S
1789469684.684064,2031,2880,3_S
1789469684.685363,2210,2879,3_S
1789469684.6876748,2157,2880,3_S
1789469684.68902,2082,2879,3_S
1789469684.69133,2060,2880,3_S
1789469684.693631,2247,2879,3_S
1789469684.695709,2117,2879,3_S
1789469684.6980128,1906,2878,3_S
1789469684.699209,2034,2879,3_S
1789469684.701592,2196,2880,3_S
1789469684.703719,2213,2881,3_S
1789469684.706028,2127,2877,3_S
1789469684.70732,2052,2879,3_S
1789469684.709842,2168,2878,3_S
1789469684.710958,2181,2880,3_S
1789469684.713509,1993,2878,3_S
1789469684.716058,1989,2878,3_S
1789469684.7171001,2119,2879,3_S
1789469684.719399,2264,2878,3_S
1789469684.721945,2053,2879,3_S
1789469684.723237,1969,2879,3_S
1789469684.725785,2031,2879,3_S
1789469684.726913,2198,2879,3_S
1789469684.7292202,2031,2880,3_S
1789469684.731766,1920,2879,3_S
1789469684.733057,2053,2878,3_S
1789469684.740243,2252,2879,3_S
1789469684.7407172,2177,2882,3_S
1789469684.740818,2049,2878,3_S
1789469684.7412841,2006,2879,3_S
1789469684.743124,2029,2879,3_S
1789469684.746231,2090,2880,3_S
1789469684.748716,1927,2878,3_S
1789469684.7513402,2006,2879,3_S
1789469684.75151,2188,2880,3_S
1789469684.753949,2219,2880,3_S
1789469684.7552562,2126,2880,3_S
1789469684.7574039,2067,2879,3_S
1789469684.759706,2129,2879,3_S
1789469684.761133,2200,2880,3_S
1789469684.7655501,1968,2877,3_S
1789469684.766498,1952,2878,3_S
1789469684.7687218,2161,2879,3_S
1789469684.770432,2224,2878,3_S
1789469684.7719412,2145,2879,3_S
1789469684.7743812,2016,2879,3_S
1789469684.777025,2018,2880,3_S
1789469684.7772381,2128,2879,3_S
1789469684.7791,2007,2879,3_S
1789469684.781662,1890,2878,3_S
1789469684.782828,2036,2879,3_S
1789469684.785146,2220,2879,3_S
1789469684.787462,2178,2880,3_S
1789469684.7897868,2091,2879,3_S
1789469684.7910862,2038,2878,3_S
1789469684.7933922,2174,2879,3_S
1789469684.795718,2153,2880,3_S
1789469684.796781,1998,2878,3_S
1789469684.7990808,2024,2880,3_S
1789469684.8014011,2137,2878,3_S
1789469684.803469,2226,2880,3_S
1789469684.80578,2088,2879,3_S
1789469684.807073,2023,2879,3_S
1789469684.809336,2146,2880,3_S
1789469684.810716,2162,2879,3_S
1789469684.813026,1982,2879,3_S
1789469684.815346,1963,2878,3_S
1789469684.817585,2103,2880,3_S
1789469684.8188832,2224,2879,3_S
1789469684.820956,2148,2879,3_S
1789469684.823264,1982,2878,3_S
1789469684.8258119,1987,2879,3_S
1789469684.826897,2169,2880,3_S
1789469684.82945,2070,2880,3_S
1789469684.8317618,1936,2878,3_S
1789469684.8328068,2101,2880,3_S
1789469684.835032,2220,2879,3_S
1789469684.8373451,2164,2882,3_S
1789469684.8394701,2088,2878,3_S
1789469684.840748,1995,2880,3_S
1789469684.8465018,2181,2879,3_S
1789469684.8474,2070,2880,3_S
1789469684.8479528,1917,2877,3_S
1789469684.8494651,1982,2879,3_S
1789469684.851268,2175,2880,3_S
1789469684.85276,2215,2880,3_S
1789469684.855362,2081,2880,3_S
1789469684.858051,2032,2879,3_S
1789469684.859971,2073,2879,3_S
1789469684.861282,2166,2880,3_S
1789469684.863353,1990,2877,3_S
1789469684.864649,1977,2879,3_S
1789469684.8668668,2158,2879,3_S
1789469684.8725991,2222,2878,3_S
1789469684.873473,2132,2879,3_S
1789469684.873649,2020,2878,3_S
1789469684.876043,2016,2879,3_S
1789469684.8778,2170,2880,3_S
1789469684.879703,2016,2880,3_S
1789469684.882056,1864,2878,3_S
1789469684.884723,2005,2880,3_S
1789469684.8849611,2187,2879,3_S
1789469684.8873348,2181,2881,3_S
1789469684.888646,2107,2879,3_S
1789469684.8909671,2027,2879,3_S
1789469684.893039,2126,2879,3_S
1789469684.895443,2104,2880,3_S
1789469684.896579,1917,2878,3_S
1789469684.898894,1990,2879,3_S
1789469684.9014568,2113,2879,3_S
1789469684.90271,2151,2878,3_S
1789469684.90523,2107,2880,3_S
1789469684.907674,2041,2879,3_S
1789469684.908878,2098,2877,3_S
1789469684.911225,2177,2880,3_S
1789469684.912525,2010,2878,3_S
1789469684.915093,1959,2877,3_S
1789469684.917654,2093,2879,3_S
1789469684.9189508,2203,2879,3_S
1789469684.921335,2165,2879,3_S
1789469684.922602,2001,2879,3_S
1789469684.924907,2006,2879,3_S
1789469684.927451,2096,2879,3_S
1789469684.9285061,1984,2878,3_S
1789469684.930814,1937,2880,3_S
1789469684.933123,2084,2880,3_S
1789469684.934489,2204,2878,3_S
1789469684.936815,2217,2881,3_S
1789469684.939363,2056,2878,3_S
1789469684.940654,1992,2879,3_S
1789469684.942954,2194,2879,3_S
1789469684.945249,2130,2880,3_S
1789469684.946431,1944,2878,3_S
1789469684.9485419,2007,2879,3_S
1789469684.9535959,2219,2879,3_S
1789469684.9540968,2262,2881,3_S
1789469684.956575,1991,2880,3_S
1789469684.9568388,1988,2880,3_S
1789469684.959577,2059,2879,3_S
1789469684.961875,2224,2881,3_S
1789469684.9643168,2036,2878,3_S
1789469684.9646358,1941,2878,3_S
1789469684.9664938,2118,2880,3_S
1789469684.9690502,2156,2878,3_S
1789469684.9711292,2152,2880,3_S
1789469684.972419,2043,2879,3_S
1789469684.978008,2105,2878,3_S
1789469684.978519,2088,2880,3_S
1789469684.979419,1939,2877,3_S
1789469684.980962,1900,2878,3_S
1789469684.982986,2159,2879,3_S
1789469684.98469,2226,2879,3_S
1789469684.988651,2252,2879,3_S
1789469684.988798,1880,2879,3_S
1789469684.9905338,1968,2878,3_S
1789469684.99284,2075,2879,3_S
1789469684.995334,2029,2881,3_S
1789469684.996662,1940,2879,3_S
1789469684.998971,1980,2879,3_S
1789469685.0004249,2093,2878,3_S
1789469685.002731,2278,2881,3_S
1789469685.005277,2153,2880,3_S
1789469685.006569,2062,2879,3_S
1789469685.008876,2143,2879,3_S
1789469685.0111842,2418,2881,3_S
1789469685.012258,1977,2879,3_S
1789469685.014805,1878,2879,3_S
1789469685.01735,1935,2880,3_S
1789469685.018393,2178,2878,3_S
1789469685.020936,2235,2881,3_S
1789469685.023007,1920,2879,3_S
1789469685.024298,1924,2879,3_S
1789469685.026599,2317,2879,3_S
1789469685.028694,2007,2880,3_S
1789469685.030997,1933,2878,3_S
1789469685.033298,1909,2879,3_S
1789469685.03449,2243,2879,3_S
1789469685.037034,2241,2880,3_S
1789469685.0383239,2043,2880,3_S
1789469685.040871,1953,2879,3_S
1789469685.042232,2078,2880,3_S
1789469685.044537,2159,2880,3_S
1789469685.0466502,2013,2878,3_S
1789469685.0487108,2009,2879,3_S
1789469685.055219,2243,2878,3_S
1789469685.0557299,2166,2879,3_S
1789469685.056569,2099,2880,3_S
1789469685.0570712,1964,2878,3_S
1789469685.058409,2092,2879,3_S
1789469685.0612721,2163,2878,3_S
1789469685.063547,1957,2877,3_S
1789469685.065981,1928,2878,3_S
1789469685.06782,2127,2879,3_S
1789469685.068888,2178,2878,3_S
1789469685.070179,2195,2879,3_S
1789469685.072493,2085,2878,3_S
1789469685.074809,1997,2878,3_S
1789469685.0792582,2183,2878,3_S
1789469685.079338,2093,2880,3_S
1789469685.08109,1926,2877,3_S
1789469685.084108,2068,2878,3_S
1789469685.084953,2259,2878,3_S
1789469685.086402,2218,2880,3_S
1789469685.090049,2064,2879,3_S
1789469685.090335,2069,2879,3_S
1789469685.092171,2150,2880,3_S
1789469685.094487,2107,2879,3_S
1789469685.0970209,1912,2877,3_S
1789469685.098312,2032,2879,3_S
1789469685.100383,2161,2879,3_S
1789469685.102514,2201,2880,3_S
1789469685.1047208,2086,2879,3_S
1789469685.106836,2042,2878,3_S
1789469685.108124,2075,2879,3_S
1789469685.110664,2209,2879,3_S
1789469685.112885,2057,2878,3_S
1789469685.114026,1912,2879,3_S
1789469685.116571,2123,2879,3_S
1789469685.119112,2235,2879,3_S
1789469685.12031,2229,2879,3_S
1789469685.122852,2019,2878,3_S
1789469685.12414,2022,2879,3_S
1789469685.126194,2256,2879,3_S
1789469685.1282492,1960,2877,3_S
1789469685.130794,1856,2879,3_S
1789469685.132854,2060,2879,3_S
