timestamp,ch1,ch2,label
1789469721.978816,2127,2879,5
1789469721.97887,1867,2879,5
1789469721.984303,1952,2878,5
1789469721.98667,2252,2880,5
1789469721.990078,2304,2879,5
1789469721.990762,2099,2879,5
1789469721.99203,1969,2878,5
1789469721.996145,2062,2879,5
1789469721.996445,2155,2880,5
1789469721.996707,1941,2877,5
1789469721.997209,1939,2880,5
1789469722.000436,2180,2879,5
1789469722.000554,2288,2879,5
1789469722.001916,2159,2879,5
1789469722.004332,2006,2878,5
1789469722.005528,2017,2878,5
1789469722.0088089,2218,2880,5
1789469722.00992,2049,2876,5
1789469722.012377,1908,2879,5
1789469722.01373,2070,2879,5
1789469722.0163698,2272,2879,5
1789469722.0179222,2217,2881,5
1789469722.020573,2039,2878,5
1789469722.021908,1951,2878,5
1789469722.024608,2165,2880,5
1789469722.0257359,2111,2880,5
1789469722.0281332,1935,2878,5
1789469722.0294468,2036,2880,5
1789469722.03183,2206,2879,5
1789469722.034181,2226,2881,5
1789469722.0363252,2054,2881,5
1789469722.0376582,1950,2879,5
1789469722.0399811,2025,2879,5
1789469722.042316,2180,2880,5
1789469722.043395,2115,2877,5
1789469722.0457458,2076,2879,5
1789469722.048152,2167,2879,5
1789469722.050516,2205,2878,5
1789469722.051598,2090,2880,5
1789469722.054206,1951,2879,5
1789469722.0554361,1920,2878,5
1789469722.057869,2141,2879,5
1789469722.060517,2064,2880,5
1789469722.061834,2009,2879,5
1789469722.064172,2126,2880,5
1789469722.066421,2217,2879,5
1789469722.067751,2172,2880,5
1789469722.070393,2042,2879,5
1789469722.0716789,2027,2878,5
1789469722.074296,2095,2879,5
1789469722.075391,2087,2879,5
1789469722.083541,1997,2878,5
1789469722.085532,2082,2880,5
1789469722.088054,2194,2878,5
1789469722.0900202,2246,2877,5
1789469722.091315,2148,2879,5
1789469722.092931,2064,2878,5
1789469722.096368,2120,2878,5
1789469722.100499,2176,2878,5
1789469722.100765,2012,2877,5
1789469722.10082,1959,2878,5
1789469722.100864,2114,2879,5
1789469722.100907,2241,2879,5
1789469722.101989,2172,2879,5
1789469722.1041112,2073,2878,5
1789469722.106614,2069,2878,5
1789469722.107768,2198,2879,5
1789469722.110187,2063,2880,5
1789469722.1115289,1916,2877,5
1789469722.114149,2042,2879,5
1789469722.115482,2199,2879,5
1789469722.1179898,2231,2880,5
1789469722.119384,2110,2879,5
1789469722.12183,2018,2878,5
1789469722.1245,2140,2879,5
1789469722.125855,2140,2881,5
1789469722.1283488,1997,2877,5
1789469722.12974,2011,2878,5
1789469722.132173,2148,2879,5
1789469722.133544,2178,2878,5
1789469722.1361878,2087,2879,5
1789469722.13762,1957,2879,5
1789469722.1402829,2089,2879,5
1789469722.1414442,2151,2879,5
1789469722.1435661,1993,2879,5
1789469722.145935,1982,2880,5
1789469722.147375,2157,2878,5
1789469722.1499908,2240,2879,5
1789469722.1513941,2173,2881,5
1789469722.1540139,2060,2879,5
1789469722.155413,2007,2880,5
1789469722.157629,2143,2879,5
1789469722.160238,2038,2879,5
1789469722.161579,1951,2878,5
1789469722.164238,2008,2880,5
1789469722.165602,2155,2878,5
1789469722.167985,2192,2880,5
1789469722.169398,2059,2879,5
1789469722.172124,2007,2878,5
1789469722.174576,2096,2879,5
1789469722.175809,2109,2881,5
1789469722.178205,1943,2878,5
1789469722.17956,1979,2879,5
1789469722.1821618,2115,2880,5
1789469722.184313,2207,2879,5
1789469722.185649,2095,2880,5
1789469722.188351,2038,2879,5
1789469722.1901271,2046,2878,5
1789469722.1915278,2104,2879,5
1789469722.193742,1965,2878,5
1789469722.196307,1953,2879,5
1789469722.1976562,2086,2880,5
1789469722.1999512,2184,2879,5
1789469722.2023401,2188,2880,5
1789469722.2045429,2089,2879,5
1789469722.205943,2101,2879,5
1789469722.207402,2180,2879,5
1789469722.2100952,2055,2879,5
1789469722.211468,1962,2878,5
1789469722.213877,2055,2880,5
1789469722.216268,2200,2879,5
1789469722.217653,2207,2881,5
1789469722.220603,2118,2879,5
1789469722.2275798,2023,2879,5
1789469722.2284422,2135,2880,5
1789469722.2291899,2094,2881,5
1789469722.231932,1890,2877,5
1789469722.2341719,1926,2878,5
1789469722.23683,2081,2878,5
1789469722.237,2155,2878,5
1789469722.237728,2099,2879,5
1789469722.238011,2044,2879,5
1789469722.243936,2081,2879,5
1789469722.2468212,2171,2878,5
1789469722.24864,1977,2878,5
1789469722.2494268,1956,2879,5
1789469722.2497559,2084,2881,5
1789469722.251971,2205,2879,5
1789469722.252664,2163,2880,5
1789469722.254108,2016,2878,5
1789469722.2565272,2051,2880,5
1789469722.257664,2162,2879,5
1789469722.260643,2040,2879,5
1789469722.266732,1930,2879,5
1789469722.267452,2015,2879,5
1789469722.2687979,2165,2879,5
1789469722.270657,2205,2880,5
1789469722.270899,2104,2880,5
1789469722.274952,2013,2880,5
1789469722.276275,2124,2880,5
1789469722.278655,2105,2880,5
1789469722.2788448,1942,2878,5
1789469722.28091,1981,2879,5
1789469722.2837088,2139,2880,5
1789469722.283927,2242,2879,5
1789469722.285386,2135,2879,5
1789469722.287727,2035,2879,5
1789469722.290507,2072,2878,5
1789469722.291792,2132,2879,5
1789469722.294187,1938,2877,5
1789469722.2954571,1891,2879,5
1789469722.298084,2057,2879,5
1789469722.2994602,2227,2879,5
1789469722.302123,2169,2879,5
1789469722.3034172,2012,2879,5
1789469722.3060741,2023,2879,5
1789469722.3073542,2166,2878,5
1789469722.309984,2058,2880,5
1789469722.3113332,1928,2878,5
1789469722.313523,2008,2878,5
1789469722.316183,2141,2878,5
1789469722.317506,2133,2876,5
1789469722.320152,2035,2879,5
1789469722.321352,1999,2878,5
1789469722.32381,2122,2878,5
1789469722.325962,2123,2878,5
1789469722.327342,1932,2879,5
1789469722.329874,1960,2878,5
1789469722.332515,2112,2879,5
1789469722.3338938,2218,2878,5
1789469722.336289,2112,2880,5
1789469722.337613,1982,2879,5
1789469722.340054,2056,2877,5
1789469722.342206,2119,2878,5
1789469722.343551,1986,2876,5
1789469722.345686,1960,2878,5
1789469722.347811,2103,2878,5
1789469722.350252,2240,2878,5
1789469722.351597,2179,2879,5
1789469722.354004,2044,2879,5
1789469722.357035,2012,2877,5
1789469722.358161,2142,2878,5
1789469722.359487,2013,2878,5
1789469722.361855,1905,2878,5
1789469722.363959,1997,2879,5
1789469722.3663418,2159,2879,5
1789469722.3676531,2189,2881,5
1789469722.3752298,2060,2880,5
1789469722.3769522,1959,2878,5
1789469722.378918,2068,2879,5
1789469722.379211,2092,2881,5
1789469722.382391,1942,2878,5
1789469722.3851871,1929,2878,5
1789469722.3864288,2117,2879,5
1789469722.388843,2201,2878,5
1789469722.394155,2144,2880,5
1789469722.394551,2048,2878,5
1789469722.3946052,2106,2878,5
1789469722.394654,2172,2879,5
1789469722.394697,2020,2878,5
1789469722.3958552,1960,2879,5
1789469722.398464,2108,2879,5
1789469722.3995662,2184,2878,5
1789469722.4017339,2174,2880,5
1789469722.404145,2059,2878,5
1789469722.411082,2072,2878,5
1789469722.415024,2130,2878,5
1789469722.415513,2026,2880,5
1789469722.417779,1931,2877,5
1789469722.419227,2014,2879,5
1789469722.421767,2198,2880,5
1789469722.4258718,2178,2881,5
1789469722.428543,2069,2879,5
1789469722.4291542,2003,2879,5
1789469722.42976,2103,2879,5
1789469722.43009,2111,2880,5
1789469722.432649,1958,2878,5
1789469722.434402,1973,2878,5
1789469722.434537,2163,2878,5
1789469722.4346082,2248,2877,5
1789469722.4358559,2132,2879,5
1789469722.4381812,1997,2879,5
1789469722.439405,2059,2880,5
1789469722.4421902,2131,2879,5
1789469722.443535,1972,2877,5
1789469722.4461398,1932,2877,5
1789469722.447381,2088,2879,5
1789469722.450006,2179,2879,5
1789469722.4513311,2138,2879,5
1789469722.453504,2042,2878,5
1789469722.456079,2042,2877,5
1789469722.45825,2168,2879,5
1789469722.459452,2073,2880,5
1789469722.462077,1956,2879,5
1789469722.4634109,2043,2878,5
1789469722.466035,2197,2878,5
1789469722.468195,2208,2880,5
1789469722.469541,2080,2880,5
1789469722.471906,1980,2879,5
1789469722.4742699,2102,2879,5
1789469722.475592,2087,2880,5
1789469722.478008,1975,2877,5
1789469722.479396,1973,2880,5
1789469722.481621,2146,2879,5
1789469722.483976,2210,2878,5
1789469722.485306,2132,2880,5
1789469722.487488,2042,2879,5
1789469722.489844,2075,2878,5
1789469722.492185,2141,2878,5
1789469722.493498,1984,2878,5
1789469722.495889,1943,2879,5
1789469722.4973629,2071,2879,5
1789469722.49997,2173,2880,5
1789469722.50151,2136,2880,5
1789469722.5035992,2023,2879,5
1789469722.50618,2014,2879,5
1789469722.507351,2148,2879,5
1789469722.509687,2073,2880,5
1789469722.512268,1956,2879,5
1789469722.5135942,2062,2879,5
1789469722.515916,2179,2879,5
1789469722.517555,2188,2880,5
1789469722.523322,2061,2879,5
1789469722.524011,2017,2878,5
1789469722.5247,2119,2880,5
1789469722.5274072,2140,2879,5
1789469722.5275688,1990,2878,5
1789469722.529793,1951,2879,5
1789469722.532558,2110,2880,5
1789469722.535033,2163,2879,5
1789469722.5372312,2127,2880,5
1789469722.5373929,2059,2879,5
1789469722.540164,2091,2878,5
1789469722.542272,2101,2880,5
1789469722.543585,1962,2878,5
1789469722.5461602,1921,2879,5
1789469722.5475142,2098,2879,5
1789469722.55341,2197,2878,5
1789469722.554386,2158,2879,5
1789469722.55456,2074,2879,5
1789469722.557089,2034,2879,5
1789469722.559642,2141,2880,5
1789469722.5597959,2027,2879,5
1789469722.564238,1934,2879,5
1789469722.564513,2055,2879,5
1789469722.566656,2182,2879,5
1789469722.569438,2184,2881,5
1789469722.5697122,2080,2879,5
1789469722.572047,1985,2879,5
1789469722.573364,2086,2880,5
1789469722.575756,2078,2880,5
1789469722.578314,1967,2879,5
1789469722.579398,1979,2878,5
1789469722.5815308,2115,2880,5
1789469722.584108,2200,2879,5
1789469722.5861871,2102,2880,5
1789469722.587496,2014,2878,5
1789469722.58982,2032,2879,5
1789469722.592205,2114,2879,5
1789469722.593518,1932,2878,5
1789469722.5958478,1930,2879,5
1789469722.5981781,2085,2879,5
1789469722.5994859,2184,2879,5
1789469722.601812,2125,2881,5
1789469722.60413,2048,2879,5
1789469722.6064608,1992,2878,5
1789469722.607713,2142,2879,5
1789469722.610282,2047,2879,5
1789469722.61159,1955,2879,5
1789469722.613678,2063,2880,5
1789469722.616016,2181,2880,5
1789469722.617332,2190,2881,5
1789469722.619657,2091,2879,5
1789469722.621972,2046,2880,5
1789469722.624289,2142,2879,5
1789469722.625525,2094,2881,5
1789469722.6280901,1931,2877,5
1789469722.630187,1974,2878,5
1789469722.631556,2095,2879,5
1789469722.633673,2169,2879,5
1789469722.6360152,2122,2880,5
1789469722.637333,2027,2879,5
1789469722.6396549,2050,2879,5
1789469722.641977,2134,2880,5
1789469722.6445389,1985,2879,5
1789469722.649811,1942,2880,5
1789469722.6504908,2088,2879,5
1789469722.651175,2194,2879,5
1789469722.652859,2150,2879,5
1789469722.6547148,2041,2878,5
1789469722.65745,2033,2879,5
1789469722.6581619,2095,2879,5
1789469722.660487,1975,2876,5
1789469722.665031,1896,2879,5
1789469722.6652899,2050,2878,5
1789469722.665608,2190,2879,5
1789469722.668569,2205,2880,5
1789469722.6698592,2081,2878,5
1789469722.6713119,2036,2879,5
1789469722.6737652,2126,2879,5
1789469722.676126,2099,2879,5
1789469722.684777,1967,2879,5
1789469722.686916,1979,2879,5
1789469722.687318,2139,2880,5
1789469722.689207,2243,2880,5
1789469722.6907158,2090,2880,5
1789469722.6913338,2016,2880,5
1789469722.692385,2099,2880,5
1789469722.694647,2197,2880,5
1789469722.6969018,2031,2879,5
1789469722.697406,1985,2879,5
1789469722.697738,2105,2879,5
1789469722.7002912,2202,2879,5
1789469722.7013628,2123,2880,5
1789469722.703441,2010,2879,5
1789469722.7058508,2012,2879,5
1789469722.708431,2186,2880,5
1789469722.709752,2064,2879,5
1789469722.712169,1952,2879,5
1789469722.713259,2048,2879,5
1789469722.7153249,2162,2880,5
1789469722.7174048,2154,2880,5
1789469722.7197251,2055,2878,5
1789469722.721803,2004,2879,5
1789469722.724213,2119,2880,5
1789469722.725279,2083,2880,5
1789469722.7273579,1954,2879,5
1789469722.7294369,1976,2879,5
1789469722.731758,2145,2879,5
1789469722.734387,2215,2879,5
1789469722.7357771,2161,2880,5
1789469722.7381172,2080,2879,5
1789469722.739315,2083,2879,5
1789469722.741674,2124,2879,5
1789469722.744153,1992,2878,5
1789469722.745279,1953,2879,5
1789469722.747373,2074,2880,5
1789469722.749842,2189,2878,5
1789469722.75202,2125,2881,5
1789469722.754124,2020,2878,5
1789469722.755363,2005,2878,5
1789469722.757448,2155,2879,5
1789469722.759537,2045,2880,5
1789469722.761903,1933,2878,5
1789469722.763249,2017,2879,5
1789469722.765571,2151,2879,5
1789469722.7678988,2131,2878,5
1789469722.769359,2039,2880,5
1789469722.771616,2018,2880,5
1789469722.777981,2099,2879,5
1789469722.7786088,2039,2879,5
1789469722.7797499,1924,2878,5
1789469722.781717,1952,2879,5
1789469722.781923,2146,2879,5
1789469722.784495,2233,2880,5
1789469722.786678,2119,2880,5
1789469722.788766,2007,2880,5
1789469722.7912261,2048,2879,5
1789469722.7913642,2152,2880,5
1789469722.793806,2052,2877,5
1789469722.79596,1976,2878,5
1789469722.7972999,2104,2880,5
1789469722.799861,2195,2878,5
1789469722.8059242,2164,2879,5
1789469722.8068879,2045,2878,5
1789469722.807841,2050,2878,5
1789469722.809793,2122,2880,5
1789469722.809952,2018,2880,5
1789469722.812192,1915,2878,5
1789469722.8136609,2027,2879,5
1789469722.8164349,2176,2879,5
1789469722.8188741,2204,2880,5
1789469722.820863,2104,2879,5
1789469722.822171,2064,2880,5
1789469722.823474,2147,2880,5
1789469722.8257978,2107,2879,5
1789469722.8283598,1992,2879,5
1789469722.829661,1988,2879,5
1789469722.8321779,2087,2879,5
1789469722.83348,2109,2879,5
1789469722.835802,2103,2879,5
1789469722.838112,2040,2878,5
1789469722.8394198,2091,2880,5
1789469722.841981,2145,2879,5
1789469722.843286,2001,2876,5
1789469722.8456068,1965,2879,5
1789469722.8479302,2142,2879,5
1789469722.850241,2216,2880,5
1789469722.8515399,2130,2880,5
1789469722.8536131,2032,2879,5
1789469722.8559308,2037,2878,5
1789469722.8580968,2151,2880,5
1789469722.859403,2026,2880,5
1789469722.8619661,1927,2878,5
1789469722.864287,2055,2879,5
1789469722.865346,2174,2879,5
1789469722.867423,2174,2881,5
1789469722.869744,2071,2880,5
1789469722.872063,2018,2879,5
1789469722.8733609,2146,2879,5
1789469722.8755589,2134,2880,5
1789469722.877877,1957,2878,5
1789469722.879997,1957,2879,5
1789469722.882081,2113,2879,5
1789469722.883378,2180,2879,5
1789469722.885687,2106,2880,5
1789469722.887773,2042,2879,5
1789469722.8940349,2038,2880,5
1789469722.894499,2151,2880,5
1789469722.896615,2037,2879,5
1789469722.8967528,1958,2879,5
1789469722.898666,2052,2879,5
1789469722.900213,2169,2880,5
1789469722.90293,2119,2880,5
1789469722.905248,2063,2879,5
1789469722.905362,2030,2879,5
1789469722.908163,2150,2879,5
1789469722.909462,2049,2880,5
1789469722.911781,1980,2878,5
1789469722.918868,2082,2879,5
1789469722.919343,2179,2879,5
1789469722.920063,2180,2880,5
1789469722.921383,2093,2879,5
1789469722.921531,1999,2879,5
1789469722.924971,2109,2880,5
1789469722.927295,2092,2880,5
1789469722.9296892,1931,2878,5
1789469722.929924,1975,2879,5
1789469722.932099,2145,2879,5
1789469722.933404,2200,2880,5
1789469722.9357178,2124,2880,5
1789469722.938275,2025,2879,5
1789469722.9394271,2063,2879,5
1789469722.941838,2153,2879,5
1789469722.944151,1999,2878,5
1789469722.9452422,1948,2880,5
1789469722.94737,2062,2879,5
1789469722.9496908,2219,2879,5
1789469722.951969,2181,2881,5
1789469722.954036,2042,2879,5
1789469722.956342,2018,2879,5
1789469722.957397,2137,2879,5
1789469722.9597042,2048,2880,5
1789469722.962077,1965,2878,5
1789469722.9632242,2025,2879,5
1789469722.965545,2180,2880,5
1789469722.9676192,2165,2881,5
1789469722.970172,2059,2880,5
1789469722.971284,1999,2880,5
1789469722.9735959,2123,2879,5
1789469722.9759202,2112,2880,5
1789469722.9782348,1974,2878,5
1789469722.979528,2000,2879,5
1789469722.981601,2121,2879,5
1789469722.983922,2196,2877,5
1789469722.98624,2093,2880,5
1789469722.987536,2050,2879,5
1789469722.989849,2075,2879,5
1789469722.9924102,2190,2878,5
1789469722.993705,2029,2877,5
1789469722.999646,1958,2879,5
1789469723.000139,2051,2879,5
1789469723.000598,2139,2879,5
1789469723.002528,2123,2879,5
1789469723.004289,2028,2879,5
1789469723.005719,2046,2880,5
1789469723.010595,2171,2880,5
1789469723.0110679,2031,2880,5
1789469723.0113149,1927,2879,5
1789469723.014122,2033,2881,5
1789469723.015231,2187,2879,5
1789469723.017704,2223,2881,5
1789469723.0245278,2073,2879,5
1789469723.025067,2007,2879,5
1789469723.0259242,2155,2880,5
1789469723.027213,2117,2881,5
1789469723.027433,1992,2878,5
1789469723.030779,2018,2879,5
1789469723.033152,2128,2879,5
1789469723.033303,2233,2880,5
1789469723.035609,2149,2880,5
1789469723.037478,2095,2879,5
1789469723.039794,2115,2879,5
1789469723.0421052,2103,2878,5
1789469723.043232,1952,2877,5
1789469723.0457091,1927,2880,5
1789469723.04828,2027,2879,5
1789469723.049579,2139,2879,5
1789469723.052141,2146,2880,5
1789469723.053437,2049,2879,5
1789469723.055987,2036,2879,5
1789469723.058275,2160,2879,5
1789469723.0595672,2062,2880,5
1789469723.06212,1944,2879,5
1789469723.063215,2034,2879,5
1789469723.06553,2134,2879,5
1789469723.067641,2159,2878,5
1789469723.069716,2071,2880,5
1789469723.072026,2004,2879,5
1789469723.07332,2123,2880,5
1789469723.075635,2127,2880,5
1789469723.078186,1961,2879,5
1789469723.0794811,1990,2880,5
1789469723.081774,2214,2878,5
1789469723.08415,2239,2880,5
1789469723.085441,2027,2879,5
1789469723.087991,1950,2879,5
1789469723.089283,2070,2879,5
1789469723.091831,2183,2879,5
1789469723.0938911,2015,2880,5
1789469723.100828,1961,2878,5
1789469723.100965,1965,2879,5
1789469723.1014678,2106,2879,5
1789469723.101932,2231,2881,5
1789469723.103433,2090,2880,5
1789469723.106266,2143,2879,5
1789469723.10874,2200,2879,5
1789469723.110878,2160,2880,5
1789469723.1129248,1733,2879,5
1789469723.114222,1984,2879,5
1789469723.115514,2336,2878,5
1789469723.117571,2282,2881,5
1789469723.1236842,1975,2879,5
1789469723.1238441,1903,2880,5
1789469723.124598,2047,2879,5
1789469723.126486,2150,2880,5
1789469723.128352,1991,2877,5
1789469723.129772,2070,2880,5
1789469723.131978,2071,2879,5
1789469723.134123,2187,2879,5
1789469723.1361961,2234,2879,5
1789469723.1374972,1931,2877,5
1789469723.140049,1966,2879,5
1789469723.141234,2217,2879,5
1789469723.143602,2023,2880,5
1789469723.146174,1986,2877,5
1789469723.147307,2187,2879,5
1789469723.1498618,2297,2879,5
1789469723.1511822,2182,2881,5
1789469723.153735,1957,2879,5
1789469723.1562839,1959,2878,5
1789469723.157575,2201,2878,5
1789469723.1601238,2091,2880,5
1789469723.161195,1797,2878,5
1789469723.163262,1928,2880,5
1789469723.165571,2324,2879,5
1789469723.1679301,2160,2880,5
1789469723.1702452,2126,2880,5
1789469723.1712918,2099,2880,5
1789469723.173839,2295,2879,5
1789469723.176139,2205,2880,5
1789469723.177212,1863,2878,5
1789469723.179322,2011,2879,5
1789469723.1816268,2192,2879,5
1789469723.184174,2241,2881,5
1789469723.185258,2025,2880,5
1789469723.187807,2290,2880,5
1789469723.190367,2167,2879,5
1789469723.191413,2156,2880,5
1789469723.193718,1987,2878,5
1789469723.1996071,1956,2879,5
1789469723.2003798,2118,2879,5
1789469723.200864,2132,2879,5
1789469723.202394,2087,2880,5
1789469723.2043798,2049,2880,5
1789469723.205555,2065,2879,5
1789469723.2079968,2066,2879,5
1789469723.210382,2033,2880,5
1789469723.212111,1986,2879,5
1789469723.213411,1993,2880,5
1789469723.2155352,2126,2880,5
1789469723.217599,2258,2880,5
1789469723.222728,2086,2879,5
1789469723.224015,1942,2878,5
1789469723.22442,2105,2879,5
1789469723.225684,2022,2881,5
1789469723.227656,1801,2878,5
1789469723.230836,1880,2880,5
1789469723.233058,2269,2878,5
1789469723.233302,2195,2878,5
1789469723.235938,2373,2880,5
1789469723.23723,2019,2879,5
1789469723.239539,1760,2878,5
1789469723.24209,2131,2879,5
1789469723.2432,2189,2880,5
1789469723.2457569,2117,2880,5
1789469723.2478342,2045,2880,5
1789469723.249176,2132,2879,5
1789469723.251481,2026,2878,5
1789469723.253786,2019,2880,5
1789469723.256347,1957,2880,5
1789469723.2574,2150,2879,5
1789469723.2599459,2055,2880,5
1789469723.2612338,1840,2878,5
1789469723.263778,2156,2878,5
1789469723.266337,1946,2879,5
1789469723.2676249,1991,2878,5
1789469723.270062,2532,2881,5
1789469723.27118,2066,2879,5
1789469723.2737238,2135,2879,5
1789469723.275794,2090,2879,5
1789469723.278103,1747,2879,5
1789469723.2791529,1869,2879,5
1789469723.281458,2010,2880,5
1789469723.290028,2127,2880,5
1789469723.2900732,2208,2880,5
1789469723.290106,1937,2879,5
1789469723.290137,1921,2879,5
1789469723.3134909,2033,2878,5
1789469723.313759,2081,2878,5
1789469723.313801,2144,2880,5
1789469723.323544,2137,2880,5
1789469723.3244748,1946,2879,5
1789469723.332006,2060,2880,5
1789469723.3320599,2002,2880,5
1789469723.332119,1771,2880,5
1789469723.3321621,2251,2878,5
1789469723.332198,2003,2881,5
1789469723.332235,1859,2879,5
1789469723.332442,1822,2880,5
1789469723.3325682,2151,2879,5
1789469723.332681,2218,2881,5
1789469723.332753,2348,2880,5
1789469723.332835,2371,2880,5
1789469723.332905,1907,2879,5
1789469723.3329978,1879,2877,5
1789469723.333075,1872,2878,5
1789469723.333163,1962,2879,5
1789469723.33325,1984,2879,5
1789469723.333303,2120,2878,5
1789469723.3358898,1900,2879,5
1789469723.3379672,1870,2879,5
1789469723.3403242,2145,2881,5
1789469723.341623,2154,2879,5
1789469723.3441641,2024,2879,5
1789469723.345464,1942,2880,5
1789469723.3475552,2048,2880,5
1789469723.349878,2128,2879,5
1789469723.3511748,2113,2881,5
1789469723.353479,1945,2879,5
1789469723.356035,1951,2879,5
1789469723.357329,2109,2879,5
1789469723.359652,2068,2880,5
1789469723.3617249,1929,2879,5
1789469723.364026,2051,2879,5
1789469723.3651578,2180,2880,5
1789469723.367281,2151,2879,5
1789469723.369845,2032,2881,5
1789469723.372148,1935,2879,5
1789469723.373441,2017,2879,5
1789469723.375988,2041,2880,5
1789469723.377285,2029,2879,5
1789469723.379769,2006,2878,5
1789469723.3818471,2076,2880,5
1789469723.3841531,2200,2878,5
1789469723.38545,2044,2880,5
1789469723.3877509,1954,2880,5
1789469723.389997,2029,2880,5
1789469723.3954298,2165,2879,5
1789469723.396221,1988,2879,5
1789469723.3963242,1960,2880,5
1789469723.398331,2087,2879,5
1789469723.4001238,2153,2879,5
1789469723.401469,2151,2881,5
1789469723.403929,1971,2879,5
1789469723.406382,1925,2878,5
1789469723.408082,2058,2879,5
1789469723.409378,1968,2879,5
1789469723.4114518,1891,2878,5
1789469723.4137669,1975,2880,5
1789469723.4191911,2026,2879,5
1789469723.41998,2093,2877,5
1789469723.420097,2062,2880,5
1789469723.42183,2035,2880,5
1789469723.423697,2193,2880,5
1789469723.4268942,1959,2878,5
1789469723.429245,1855,2878,5
1789469723.429478,2159,2879,5
1789469723.432387,2329,2880,5
1789469723.433683,2220,2878,5
1789469723.4359949,1983,2878,5
1789469723.43729,1900,2879,5
1789469723.4393768,2098,2877,5
1789469723.441695,2275,2879,5
1789469723.443999,1972,2876,5
1789469723.445299,1824,2879,5
1789469723.447849,1982,2879,5
1789469723.449151,2168,2879,5
1789469723.4516962,2163,2879,5
1789469723.4539928,2146,2881,5
1789469723.455282,2006,2880,5
1789469723.4575841,2059,2879,5
1789469723.459789,1935,2877,5
1789469723.462094,1944,2879,5
1789469723.463383,1939,2878,5
1789469723.4655738,2060,2879,5
1789469723.467875,2026,2878,5
1789469723.470185,2023,2879,5
1789469723.471225,2135,2880,5
1789469723.473769,2238,2880,5
1789469723.475109,2032,2879,5
1789469723.477654,1930,2878,5
1789469723.4801002,2052,2880,5
1789469723.481395,2210,2879,5
1789469723.483694,2250,2879,5
1789469723.48601,2049,2879,5
1789469723.4909189,1799,2878,5
1789469723.4913669,2106,2879,5
1789469723.491839,2230,2879,5
1789469723.493969,1862,2877,5
1789469723.495898,1640,2878,5
1789469723.497843,1773,2880,5
1789469723.4991481,2354,2879,5
1789469723.5013309,2031,2878,5
1789469723.5042088,1865,2879,5
1789469723.505513,1944,2879,5
1789469723.50807,1979,2879,5
1789469723.509163,1948,2880,5
1789469723.511719,1989,2879,5
1789469723.516771,2018,2880,5
1789469723.5172522,1929,2879,5
1789469723.517369,1802,2879,5
1789469723.52067,1989,2880,5
1789469723.522329,2051,2879,5
1789469723.524097,1759,2879,5
1789469723.526262,1919,2878,5
1789469723.528385,1211,2878,5
1789469723.529435,1853,2878,5
1789469723.5319831,1919,2878,5
1789469723.5332758,1473,2878,5
1789469723.53584,1465,2877,5
1789469723.53716,1628,2876,5
1789469723.53971,1861,2878,5
1789469723.542042,1832,2879,5
1789469723.543113,2052,2878,5
1789469723.545422,1736,2878,5
1789469723.547481,1697,2879,5
1789469723.549553,1747,2878,5
1789469723.551856,1827,2878,5
1789469723.554155,1736,2878,5
1789469723.555444,1191,2876,5
1789469723.557753,1676,2877,5
1789469723.559807,1144,2875,5
1789469723.56211,1790,2877,5
1789469723.5631528,2021,2878,5
1789469723.565276,1772,2878,5
1789469723.5675719,2085,2879,5
1789469723.5701172,1382,2879,5
1789469723.5711622,1826,2877,5
1789469723.5734642,2313,2880,5
1789469723.576011,1421,2876,5
1789469723.5772989,1341,2877,5
1789469723.579423,1862,2878,5
1789469723.5814831,1995,2878,5
1789469723.5837,2482,2882,5
1789469723.586018,2118,2880,5
1789469723.591191,2009,2880,5
1789469723.5917451,2080,2881,5
1789469723.592638,1728,2878,5
1789469723.595289,1669,2879,5
1789469723.595677,1715,2879,5
1789469723.598837,2011,2878,5
1789469723.6013272,1903,2878,5
1789469723.6014762,1590,2877,5
1789469723.6042821,1914,2880,5
1789469723.605397,1957,2880,5
1789469723.607456,2146,2879,5
1789469723.6099122,1759,2877,5
1789469723.614269,1153,2879,5
1789469723.6143749,1421,2879,5
1789469723.6164968,1985,2879,5
1789469723.6182039,1932,2879,5
1789469723.619479,1416,2876,5
1789469723.62146,1883,2879,5
1789469723.623809,1832,2877,5
1789469723.625875,2238,2880,5
1789469723.627181,1542,2877,5
1789469723.629735,1747,2879,5
1789469723.6320481,2047,2879,5
1789469723.63336,2188,2879,5
1789469723.635922,2024,2880,5
1789469723.637217,1573,2876,5
1789469723.6392782,1813,2879,5
1789469723.641577,2296,2881,5
1789469723.644125,1990,2877,5
1789469723.64518,1742,2878,5
1789469723.647491,1882,2880,5
1789469723.649761,2066,2878,5
1789469723.65105,2131,2882,5
1789469723.653357,1990,2880,5
1789469723.6555939,1936,2879,5
1789469723.658165,2280,2880,5
1789469723.6592078,2162,2880,5
1789469723.6613219,1838,2877,5
1789469723.663397,1687,2879,5
1789469723.6659489,1843,2879,5
1789469723.667242,2377,2881,5
1789469723.6697931,2539,2880,5
1789469723.671083,1709,2879,5
1789469723.673354,2125,2880,5
1789469723.67572,2064,2878,5
1789469723.6777868,2066,2879,5
1789469723.68013,2325,2880,5
1789469723.684982,2225,2878,5
1789469723.685739,2126,2877,5
1789469723.686521,2301,2879,5
1789469723.687636,2013,2879,5
1789469723.6891189,2076,2880,5
1789469723.6926038,2167,2879,5
1789469723.695055,2086,2877,5
1789469723.6952078,1997,2878,5
1789469723.6977558,2212,2879,5
1789469723.700068,2439,2880,5
1789469723.701129,2203,2880,5
1789469723.707498,2180,2879,5
1789469723.707923,2059,2878,5
1789469723.7086341,2267,2879,5
1789469723.7115781,2330,2880,5
1789469723.7119732,1861,2879,5
1789469723.713603,2120,2878,5
1789469723.7173069,2391,2880,5
1789469723.7175438,2390,2881,5
1789469723.7195609,2233,2878,5
1789469723.7209642,2332,2881,5
1789469723.723284,2235,2880,5
1789469723.725599,2264,2880,5
1789469723.727934,1741,2877,5
1789469723.729255,2050,2879,5
1789469723.731699,2166,2879,5
1789469723.73382,2513,2881,5
1789469723.734957,1986,2878,5
1789469723.737516,1862,2878,5
1789469723.739764,2130,2879,5
1789469723.741842,2252,2879,5
1789469723.742948,2068,2877,5
1789469723.745264,2065,2880,5
1789469723.747574,2035,2880,5
1789469723.7497349,2345,2879,5
1789469723.7521029,2311,2880,5
1789469723.753525,1983,2879,5
1789469723.755988,2024,2878,5
1789469723.757119,2324,2879,5
1789469723.759261,2244,2880,5
1789469723.761664,1798,2878,5
1789469723.764063,2031,2880,5
1789469723.7652538,2319,2879,5
1789469723.767887,2384,2881,5
1789469723.7691891,2073,2879,5
1789469723.771449,1964,2878,5
1789469723.773679,2095,2880,5
1789469723.7836921,2179,2881,5
1789469723.7840798,1846,2878,5
1789469723.786999,1983,2879,5
1789469723.788291,2126,2880,5
1789469723.7903092,2350,2881,5
1789469723.790957,2161,2880,5
1789469723.793762,2097,2880,5
1789469723.796125,1996,2879,5
1789469723.7964249,2167,2880,5
1789469723.796468,1950,2878,5
1789469723.796617,1847,2880,5
1789469723.7979178,2001,2880,5
1789469723.799328,2081,2878,5
1789469723.80186,2261,2880,5
1789469723.80316,2147,2880,5
1789469723.809299,2125,2880,5
1789469723.8115141,2267,2881,5
1789469723.814006,2135,2880,5
1789469723.815756,2002,2879,5
1789469723.816313,2012,2880,5
1789469723.8181388,2079,2878,5
1789469723.821056,2130,2879,5
1789469723.821308,2073,2880,5
1789469723.8215759,1968,2878,5
1789469723.823616,2126,2880,5
1789469723.8258681,2145,2879,5
1789469723.827002,1907,2878,5
1789469723.829331,1848,2879,5
1789469723.83175,2290,2880,5
1789469723.83394,2287,2881,5
1789469723.835018,1977,2879,5
1789469723.8372219,1814,2878,5
1789469723.839398,1905,2879,5
1789469723.8414662,2018,2879,5
1789469723.844047,1716,2878,5
1789469723.845175,1995,2878,5
1789469723.847254,2154,2879,5
1789469723.8496482,2266,2880,5
1789469723.850946,1995,2880,5
1789469723.853523,2016,2878,5
1789469723.855707,2086,2879,5
1789469723.8570082,2189,2880,5
1789469723.859565,2096,2878,5
1789469723.861954,1921,2878,5
1789469723.863005,1970,2878,5
1789469723.865555,2094,2878,5
1789469723.866972,2263,2881,5
1789469723.8692858,2111,2879,5
1789469723.871679,1979,2878,5
1789469723.8729768,2145,2881,5
1789469723.875254,2058,2881,5
1789469723.877388,1787,2878,5
1789469723.879675,1810,2880,5
1789469723.886774,2063,2880,5
1789469723.887383,2258,2879,5
1789469723.887557,2061,2881,5
1789469723.888017,1902,2879,5
1789469723.8897762,2108,2880,5
1789469723.8923929,2188,2879,5
1789469723.8940842,1865,2878,5
1789469723.895568,1878,2880,5
1789469723.898335,2191,2881,5
1789469723.900159,2215,2879,5
1789469723.901213,2149,2880,5
1789469723.903767,1955,2879,5
1789469723.9061189,1951,2878,5
1789469723.910465,2188,2880,5
1789469723.91133,2093,2880,5
1789469723.911745,1846,2879,5
1789469723.913645,1988,2880,5
1789469723.915591,2403,2880,5
1789469723.9189801,2281,2881,5
1789469723.9190989,1880,2879,5
1789469723.922066,1691,2879,5
1789469723.924026,2313,2880,5
1789469723.925329,2221,2880,5
1789469723.927645,1801,2878,5
1789469723.9289432,1958,2879,5
1789469723.931499,2184,2878,5
1789469723.93407,2215,2879,5
1789469723.935366,2186,2880,5
1789469723.937666,1939,2879,5
1789469723.9389591,2051,2878,5
1789469723.941269,2166,2880,5
1789469723.943785,1799,2878,5
1789469723.944928,2043,2879,5
1789469723.94748,2140,2879,5
1789469723.9497888,2059,2879,5
1789469723.950926,2059,2880,5
1789469723.952994,2035,2879,5
1789469723.955513,2060,2878,5
1789469723.9580748,2214,2880,5
1789469723.9591238,2081,2879,5
1789469723.9614289,1839,2880,5
1789469723.963487,2006,2879,5
1789469723.9655511,2290,2879,5
1789469723.966926,2266,2881,5
1789469723.969476,2113,2879,5
1789469723.971895,2051,2879,5
1789469723.973185,2097,2879,5
1789469723.9755468,2169,2880,5
1789469723.977748,1901,2877,5
1789469723.97892,2007,2879,5
1789469723.985178,2065,2879,5
1789469723.985595,2288,2879,5
1789469723.986392,2147,2880,5
1789469723.987917,2104,2879,5
1789469723.989727,2011,2880,5
1789469723.991348,2120,2879,5
1789469723.992991,1930,2879,5
1789469723.9955661,1894,2879,5
1789469723.997588,2185,2880,5
1789469723.999902,2235,2879,5
1789469724.000952,2157,2879,5
1789469724.003021,1864,2879,5
1789469724.007114,1894,2879,5
1789469724.0078652,2254,2880,5
1789469724.00995,2179,2880,5
1789469724.0117812,1803,2878,5
1789469724.0134962,1867,2879,5
1789469724.015241,2174,2879,5
1789469724.0179598,2232,2880,5
1789469724.019549,2171,2880,5
1789469724.020919,2041,2879,5
1789469724.023471,2165,2880,5
1789469724.025963,2140,2879,5
1789469724.027265,1777,2877,5
1789469724.029653,1958,2878,5
1789469724.031716,2282,2880,5
1789469724.03301,2182,2877,5
1789469724.03556,2145,2879,5
1789469724.0369668,1946,2880,5
1789469724.039375,1930,2878,5
1789469724.04192,2183,2880,5
1789469724.043214,1988,2878,5
1789469724.045762,1965,2880,5
1789469724.046908,2131,2880,5
1789469724.049452,2271,2880,5
1789469724.0517619,2140,2881,5
1789469724.05292,1997,2879,5
1789469724.055467,1997,2880,5
1789469724.057895,2238,2880,5
1789469724.059186,2132,2880,5
1789469724.061492,1815,2878,5
1789469724.063811,2002,2880,5
1789469724.064904,2237,2879,5
1789469724.0674508,2267,2880,5
1789469724.0697632,1912,2881,5
1789469724.072072,1871,2878,5
1789469724.073193,2139,2880,5
1789469724.0756822,2134,2880,5
1789469724.0795891,1884,2879,5
1789469724.0800252,1993,2878,5
1789469724.0823948,2183,2879,5
1789469724.083963,2332,2882,5
1789469724.085547,2163,2881,5
1789469724.087467,1979,2880,5
1789469724.090498,2055,2879,5
1789469724.0923982,2254,2881,5
1789469724.0934699,2016,2877,5
1789469724.095776,1790,2878,5
1789469724.0968971,2033,2880,5
1789469724.1031182,2204,2879,5
1789469724.103481,2177,2880,5
1789469724.103987,2067,2879,5
1789469724.1053739,2088,2879,5
1789469724.10699,2260,2881,5
1789469724.1102872,2123,2880,5
1789469724.11293,1953,2878,5
1789469724.113038,2002,2880,5
1789469724.115633,2143,2880,5
1789469724.11686,2238,2881,5
1789469724.1192188,2118,2879,5
1789469724.12154,2036,2879,5
1789469724.12367,2096,2879,5
1789469724.124974,2112,2881,5
1789469724.1270452,1887,2878,5
1789469724.129594,1882,2880,5
1789469724.1309109,2153,2880,5
1789469724.133234,2295,2878,5
1789469724.135376,2157,2880,5
1789469724.1379242,2027,2880,5
1789469724.138978,2123,2879,5
1789469724.141495,2233,2879,5
1789469724.1435552,2020,2878,5
1789469724.1448991,1959,2879,5
1789469724.147445,2121,2880,5
1789469724.149612,2210,2880,5
1789469724.151912,2205,2880,5
1789469724.1532001,2068,2879,5
1789469724.155426,2031,2879,5
1789469724.1577349,2218,2880,5
1789469724.159023,2085,2880,5
1789469724.161567,1922,2879,5
1789469724.162892,2073,2880,5
1789469724.165448,2205,2879,5
1789469724.1680021,2224,2880,5
1789469724.169317,2084,2880,5
1789469724.174224,2037,2878,5
1789469724.175045,2128,2880,5
1789469724.1757922,2110,2880,5
1789469724.177403,1887,2877,5
1789469724.179213,1981,2879,5
1789469724.182457,2196,2879,5
1789469724.185133,2283,2879,5
1789469724.1852958,2158,2880,5
1789469724.1872482,2018,2879,5
1789469724.189777,2032,2879,5
1789469724.191069,2092,2880,5
1789469724.197349,1859,2879,5
1789469724.197797,1826,2879,5
1789469724.1985269,2056,2879,5
1789469724.1999848,2239,2880,5
1789469724.201913,2185,2881,5
1789469724.2035189,2028,2879,5
1789469724.205158,1976,2878,5
1789469724.207715,2240,2881,5
1789469724.209866,2032,2879,5
1789469724.211168,1862,2879,5
1789469724.2137249,2050,2880,5
1789469724.215016,2275,2879,5
1789469724.217597,2305,2881,5
1789469724.2189,2142,2880,5
1789469724.221448,2027,2879,5
1789469724.223753,2237,2880,5
1789469724.225045,2174,2880,5
1789469724.227594,1920,2877,5
1789469724.228884,1970,2879,5
1789469724.231127,2173,2880,5
1789469724.233429,2279,2881,5
1789469724.235543,2125,2879,5
1789469724.236885,2101,2879,5
1789469724.239413,2069,2880,5
1789469724.2418802,2235,2880,5
1789469724.242931,2099,2877,5
1789469724.2452369,2044,2878,5
1789469724.247786,2157,2879,5
1789469724.249078,2287,2879,5
1789469724.2516239,2267,2879,5
1789469724.25392,2101,2877,5
1789469724.255209,1930,2879,5
1789469724.2577548,2197,2880,5
1789469724.2590468,2136,2879,5
1789469724.261108,1851,2879,5
1789469724.263653,2085,2879,5
1789469724.264975,2281,2878,5
1789469724.269124,2283,2881,5
1789469724.269533,2239,2880,5
1789469724.271578,2189,2879,5
1789469724.273838,2221,2880,5
1789469724.275456,2330,2881,5
1789469724.281227,1989,2878,5
1789469724.281274,1879,2879,5
1789469724.2814999,2125,2880,5
1789469724.2838058,2306,2878,5
1789469724.285105,2260,2880,5
1789469724.287431,2097,2879,5
1789469724.292168,2079,2879,5
1789469724.292619,2153,2879,5
1789469724.2941492,1982,2877,5
1789469724.296021,1965,2880,5
1789469724.29734,2222,2879,5
1789469724.299314,2287,2879,5
1789469724.301941,2253,2880,5
1789469724.3037498,2197,2880,5
1789469724.305042,2022,2879,5
1789469724.307601,2268,2879,5
1789469724.308893,2071,2880,5
1789469724.311428,1852,2878,5
1789469724.3137379,2103,2879,5
1789469724.31503,2241,2879,5
1789469724.317575,2274,2880,5
1789469724.319874,2075,2879,5
1789469724.321163,2086,2880,5
1789469724.3232262,2216,2879,5
1789469724.3255239,2281,2881,5
1789469724.3268118,1936,2877,5
1789469724.328916,2021,2879,5
1789469724.331072,2267,2880,5
1789469724.333376,2371,2881,5
1789469724.335545,2218,2879,5
1789469724.337606,2020,2877,5
1789469724.338892,2086,2879,5
1789469724.340998,2233,2879,5
1789469724.343332,2016,2878,5
1789469724.3458922,2035,2878,5
1789469724.346962,2272,2881,5
1789469724.349514,2474,2881,5
1789469724.351959,2444,2881,5
1789469724.353245,2191,2879,5
1789469724.355789,2119,2879,5
1789469724.356844,2366,2881,5
1789469724.361707,2251,2881,5
1789469724.362475,1966,2879,5
1789469724.3640902,2127,2880,5
1789469724.365519,2277,2878,5
1789469724.366949,2330,2881,5
1789469724.3688881,2099,2880,5
1789469724.371357,1990,2878,5
1789469724.3732312,2143,2879,5
1789469724.375582,2148,2879,5
1789469724.3776371,1966,2878,5
1789469724.3832881,2107,2880,5
1789469724.383952,2316,2879,5
1789469724.384058,2344,2880,5
1789469724.385461,2234,2879,5
1789469724.3881888,2128,2879,5
1789469724.389923,2163,2879,5
1789469724.392454,2276,2880,5
1789469724.394335,2011,2878,5
1789469724.395632,1896,2879,5
1789469724.3979409,2079,2880,5
1789469724.398983,2221,2879,5
1789469724.401365,2143,2879,5
1789469724.40392,2136,2880,5
1789469724.405212,2052,2879,5
1789469724.4075341,2229,2880,5
1789469724.4098501,2157,2880,5
1789469724.4111402,1974,2879,5
1789469724.413333,2118,2879,5
1789469724.41564,2275,2879,5
1789469724.416935,2275,2881,5
1789469724.419452,2097,2879,5
1789469724.422055,2021,2879,5
1789469724.423103,2155,2880,5
1789469724.425647,2219,2881,5
1789469724.426938,2024,2878,5
1789469724.429363,2085,2881,5
1789469724.430727,2279,2880,5
1789469724.433088,2310,2879,5
1789469724.4356322,2200,2880,5
1789469724.4367318,2047,2878,5
1789469724.438845,2080,2879,5
1789469724.4412138,2272,2880,5
1789469724.443758,2029,2878,5
1789469724.4449081,1949,2878,5
1789469724.451494,2179,2881,5
1789469724.45226,2307,2880,5
1789469724.452718,2223,2879,5
1789469724.453124,2046,2880,5
1789469724.455574,1984,2879,5
1789469724.457502,2135,2879,5
1789469724.458943,2081,2880,5
1789469724.461474,1905,2880,5
1789469724.4633548,2011,2879,5
1789469724.465665,2207,2878,5
1789469724.4667158,2203,2881,5
1789469724.469277,2086,2879,5
1789469724.473351,1994,2879,5
1789469724.4734468,2072,2879,5
1789469724.475658,2173,2880,5
1789469724.4774,1966,2879,5
1789469724.479202,1956,2879,5
1789469724.4828968,2171,2879,5
1789469724.483147,2203,2879,5
1789469724.485766,2092,2880,5
1789469724.486819,2045,2879,5
1789469724.4890509,2043,2879,5
1789469724.4915981,2241,2880,5
1789469724.492913,2039,2878,5
1789469724.495391,2019,2880,5
1789469724.4967139,2159,2879,5
1789469724.499269,2280,2879,5
1789469724.5015821,2227,2881,5
1789469724.502871,2026,2879,5
1789469724.505163,2025,2880,5
1789469724.507383,2176,2880,5
1789469724.508739,2059,2880,5
1789469724.5112882,1852,2878,5
1789469724.5134568,1981,2879,5
1789469724.514747,2285,2879,5
1789469724.517293,2282,2880,5
1789469724.519356,2141,2880,5
1789469724.5207171,2039,2879,5
1789469724.523016,2113,2879,5
1789469724.525079,2152,2881,5
1789469724.527623,1919,2878,5
1789469724.5289118,1884,2880,5
1789469724.531459,2126,2879,5
1789469724.533514,2195,2879,5
1789469724.5348082,2149,2880,5
1789469724.537112,2069,2879,5
1789469724.541759,2093,2878,5
1789469724.542194,2223,2879,5
1789469724.544493,2018,2878,5
1789469724.545911,1926,2879,5
1789469724.548088,2122,2879,5
1789469724.551852,2226,2879,5
1789469724.552033,2200,2880,5
1789469724.55382,2067,2879,5
1789469724.5551271,1949,2879,5
1789469724.557677,2059,2879,5
1789469724.558966,2121,2880,5
1789469724.563918,1895,2878,5
1789469724.5644338,2007,2879,5
1789469724.5660648,2220,2879,5
1789469724.5675688,2256,2881,5
1789469724.5690398,2050,2880,5
1789469724.5708811,1939,2879,5
1789469724.573458,2082,2880,5
1789469724.575296,2152,2880,5
1789469724.577615,1886,2878,5
1789469724.578877,1850,2879,5
1789469724.581294,2112,2878,5
1789469724.582687,2244,2880,5
1789469724.585255,2114,2879,5
1789469724.5867012,2126,2880,5
1789469724.5890088,2054,2880,5
1789469724.591564,2250,2880,5
1789469724.592854,2020,2878,5
1789469724.595401,1969,2878,5
1789469724.596703,2206,2880,5
1789469724.599015,2233,2879,5
1789469724.601315,2158,2880,5
1789469724.60337,2058,2879,5
1789469724.605679,1970,2877,5
1789469724.606967,2100,2879,5
1789469724.609281,1874,2877,5
1789469724.6113422,1909,2878,5
1789469724.612691,2034,2880,5
1789469724.615246,2289,2879,5
1789469724.617307,2182,2881,5
1789469724.6196039,2020,2879,5
1789469724.62071,1862,2879,5
1789469724.623254,2013,2879,5
1789469724.625429,2088,2880,5
1789469724.627489,1929,2879,5
1789469724.632192,1980,2880,5
1789469724.632591,2061,2879,5
1789469724.6333508,2097,2878,5
1789469724.635117,2152,2880,5
1789469724.638326,2081,2879,5
1789469724.639903,2123,2879,5
1789469724.6424792,2297,2880,5
1789469724.6440299,2118,2881,5
1789469724.645078,1954,2879,5
1789469724.647378,1901,2880,5
1789469724.6497018,2143,2879,5
1789469724.653465,2295,2882,5
1789469724.6541288,2129,2879,5
1789469724.656091,2084,2879,5
1789469724.6574981,2097,2879,5
1789469724.6589959,2058,2881,5
1789469724.663188,1777,2878,5
1789469724.663424,2132,2879,5
1789469724.6654,2265,2880,5
1789469724.667467,2138,2879,5
1789469724.668761,2011,2880,5
1789469724.6713111,1979,2879,5
1789469724.672653,2137,2880,5
1789469724.675023,2187,2878,5
1789469724.677341,2054,2878,5
1789469724.67961,1991,2879,5
1789469724.6806889,2126,2881,5
1789469724.68299,2069,2879,5
1789469724.6850612,2277,2880,5
1789469724.6874712,1910,2879,5
1789469724.6897721,1940,2878,5
1789469724.6910589,2175,2879,5
1789469724.693368,1978,2878,5
1789469724.695793,1952,2880,5
1789469724.697083,2141,2880,5
1789469724.699399,2068,2878,5
1789469724.7006888,2100,2878,5
1789469724.703232,2105,2880,5
1789469724.705298,2102,2880,5
1789469724.70671,2121,2880,5
1789469724.709261,2084,2880,5
1789469724.711583,1804,2877,5
1789469724.712682,1908,2880,5
1789469724.714745,2249,2880,5
1789469724.716819,2542,2882,5
1789469724.7230332,1932,2880,5
1789469724.723478,1913,2879,5
1789469724.7238731,2098,2879,5
1789469724.725284,2100,2880,5
1789469724.727047,2013,2879,5
1789469724.730072,1913,2879,5
1789469724.7325282,2175,2879,5
1789469724.73453,2262,2879,5
1789469724.7346811,1971,2878,5
1789469724.736994,1895,2879,5
1789469724.739543,2066,2880,5
1789469724.744193,2329,2880,5
1789469724.744299,2045,2880,5
1789469724.7464871,1845,2879,5
1789469724.747982,1994,2880,5
1789469724.7494211,2179,2878,5
1789469724.751321,2260,2881,5
1789469724.753657,1980,2879,5
1789469724.7556312,1862,2879,5
1789469724.756928,1982,2879,5
1789469724.759236,2048,2880,5
1789469724.761309,1713,2878,5
1789469724.762662,2042,2878,5
1789469724.764985,2146,2879,5
1789469724.7671108,2177,2878,5
1789469724.769186,2267,2880,5
1789469724.771741,2197,2880,5
1789469724.773033,2259,2879,5
1789469724.775585,2116,2879,5
1789469724.77667,1884,2877,5
1789469724.779119,1914,2878,5
1789469724.7811909,2063,2880,5
1789469724.783401,2120,2880,5
1789469724.7857542,2052,2879,5
1789469724.786934,1992,2879,5
1789469724.789479,2045,2878,5
1789469724.7907672,2057,2879,5
1789469724.7931259,1783,2877,5
1789469724.7956731,1956,2880,5
1789469724.796723,2147,2879,5
1789469724.7992692,2238,2879,5
1789469724.800672,2327,2881,5
1789469724.802976,2147,2878,5
1789469724.805519,2001,2879,5
1789469724.806676,2148,2879,5
1789469724.8120499,1992,2879,5
1789469724.812473,1890,2878,5
1789469724.814537,2026,2879,5
1789469724.81468,2158,2879,5
1789469724.8178198,2105,2878,5
1789469724.8195221,1991,2879,5
1789469724.821974,1883,2879,5
1789469724.82397,2092,2878,5
1789469724.825017,2153,2879,5
1789469724.8270788,1980,2878,5
1789469724.829555,2003,2879,5
1789469724.833712,2066,2879,5
1789469724.834069,2194,2878,5
1789469724.8359208,2025,2880,5
1789469724.837635,1906,2879,5
1789469724.839423,2049,2879,5
1789469724.8407931,2223,2879,5
1789469724.843144,1985,2879,5
1789469724.844954,1875,2880,5
1789469724.84732,2031,2880,5
1789469724.84863,2183,2879,5
1789469724.851142,2165,2880,5
1789469724.8535109,1952,2880,5
1789469724.8548028,1947,2880,5
1789469724.857364,2098,2879,5
1789469724.859745,2063,2879,5
1789469724.860794,1993,2877,5
1789469724.8630972,2042,2879,5
1789469724.8654,2229,2879,5
1789469724.866664,2287,2881,5
1789469724.869229,2128,2879,5
1789469724.87154,2086,2879,5
1789469724.8726468,2205,2879,5
1789469724.8749702,2170,2879,5
1789469724.8770869,1919,2878,5
1789469724.879539,1808,2879,5
1789469724.8808398,2027,2879,5
1789469724.8831491,2282,2877,5
1789469724.8857012,2211,2879,5
1789469724.886765,1937,2878,5
1789469724.889309,2067,2880,5
1789469724.8916428,2241,2880,5
1789469724.8929338,2020,2877,5
1789469724.895235,1857,2879,5
1789469724.901964,2072,2879,5
1789469724.902715,2223,2879,5
1789469724.902841,2197,2880,5
1789469724.9029288,2084,2878,5
1789469724.905636,2021,2879,5
1789469724.907457,2145,2880,5
1789469724.9091358,2134,2880,5
1789469724.911519,1933,2878,5
1789469724.9135559,2077,2879,5
1789469724.914858,2230,2878,5
1789469724.917174,2219,2878,5
1789469724.923311,2012,2879,5
1789469724.923441,1918,2878,5
1789469724.92382,1957,2878,5
1789469724.9254458,2009,2879,5
1789469724.92718,1858,2878,5
1789469724.928711,1872,2879,5
1789469724.9325929,1968,2879,5
1789469724.9328141,2393,2881,5
1789469724.9352179,2325,2881,5
1789469724.9375591,1929,2880,5
1789469724.9388502,2010,2879,5
1789469724.941401,2134,2879,5
1789469724.943798,2016,2878,5
1789469724.94509,1711,2879,5
1789469724.947637,2022,2880,5
1789469724.9489238,2180,2879,5
1789469724.951468,1953,2877,5
1789469724.952755,1916,2879,5
1789469724.9552991,1905,2877,5
1789469724.956681,2165,2880,5
1789469724.958993,2153,2880,5
1789469724.9615371,1838,2877,5
1789469724.962755,1679,2878,5
1789469724.9653041,2066,2879,5
1789469724.966645,2101,2878,5
1789469724.969064,2338,2880,5
1789469724.97137,1918,2879,5
1789469724.9726589,1766,2879,5
1789469724.975204,2348,2879,5
1789469724.9774988,1654,2877,5
1789469724.978613,2125,2878,5
1789469724.980719,2157,2879,5
1789469724.982933,2103,2878,5
1789469724.985238,1683,2877,5
1789469724.991319,1910,2879,5
1789469724.992074,1824,2878,5
1789469724.992536,2305,2879,5
1789469724.993879,2095,2879,5
1789469724.996093,1811,2878,5
1789469724.998933,2132,2879,5
1789469724.999063,1847,2879,5
1789469725.001442,2171,2878,5
1789469725.003276,2410,2880,5
1789469725.0046341,1168,2876,5
1789469725.006751,1483,2875,5
1789469725.0091782,2646,2881,5
1789469725.0130508,2019,2878,5
1789469725.0134661,1974,2878,5
1789469725.0154939,1759,2879,5
1789469725.017204,1963,2878,5
1789469725.018699,2155,2881,5
1789469725.022445,2339,2880,5
1789469725.024014,1752,2878,5
1789469725.02531,2325,2880,5
1789469725.026618,1447,2878,5
1789469725.028716,1969,2878,5
1789469725.031119,1760,2879,5
1789469725.033688,2187,2878,5
1789469725.03498,2045,2878,5
1789469725.037285,2025,2879,5
1789469725.038697,2139,2879,5
1789469725.041017,2308,2880,5
1789469725.043314,1686,2877,5
1789469725.0454998,1509,2878,5
1789469725.0466108,1982,2879,5
1789469725.0489202,2108,2878,5
1789469725.0512269,2301,2881,5
1789469725.053524,2398,2881,5
1789469725.05481,1978,2880,5
1789469725.0573518,1834,2878,5
1789469725.058638,1836,2878,5
1789469725.061182,2005,2878,5
1789469725.0632372,2144,2879,5
1789469725.06554,1941,2879,5
1789469725.066627,2507,2881,5
1789469725.0686889,2493,2881,5
1789469725.070984,1544,2876,5
1789469725.073045,1817,2878,5
1789469725.075607,2110,2880,5
1789469725.0769012,2178,2878,5
1789469725.081758,2040,2879,5
1789469725.082582,2145,2879,5
1789469725.0844202,1719,2878,5
1789469725.0861871,1924,2876,5
1789469725.087661,1929,2880,5
1789469725.0892339,1796,2878,5
1789469725.0916748,2097,2879,5
1789469725.093214,2155,2880,5
1789469725.094801,1654,2877,5
1789469725.097304,1559,2879,5
1789469725.1033359,1729,2880,5
1789469725.103722,2086,2879,5
1789469725.1041448,2227,2880,5
1789469725.105578,1805,2880,5
1789469725.107146,2039,2879,5
1789469725.108727,1563,2877,5
1789469725.1126049,1629,2877,5
1789469725.1127648,1979,2879,5
1789469725.1152372,2340,2879,5
1789469725.116571,2198,2881,5
1789469725.118635,2097,2879,5
1789469725.121187,1846,2880,5
1789469725.1235268,2170,2880,5
1789469725.1248372,2191,2879,5
1789469725.1273038,1928,2878,5
1789469725.12859,1968,2879,5
1789469725.131135,2004,2879,5
1789469725.133433,2238,2878,5
1789469725.134729,2303,2879,5
1789469725.136779,2005,2880,5
1789469725.1388412,1808,2878,5
1789469725.140909,2058,2879,5
1789469725.14322,2107,2877,5
1789469725.14457,2131,2879,5
1789469725.14702,2189,2880,5
1789469725.149567,2226,2879,5
1789469725.1508548,2375,2880,5
1789469725.152961,1989,2879,5
1789469725.155513,2287,2880,5
1789469725.156804,2378,2880,5
1789469725.158873,2026,2879,5
1789469725.1614761,1980,2879,5
1789469725.1627781,2092,2880,5
1789469725.164941,2352,2879,5
1789469725.1670132,2175,2882,5
1789469725.1694489,2177,2879,5
1789469725.174438,2026,2879,5
1789469725.1748831,2123,2879,5
1789469725.1752262,2307,2880,5
1789469725.177189,1895,2878,5
1789469725.178955,1865,2879,5
1789469725.1820428,2107,2879,5
1789469725.184583,2260,2878,5
1789469725.184674,2268,2880,5
1789469725.187475,2350,2879,5
1789469725.188641,1923,2880,5
1789469725.190953,2181,2879,5
1789469725.196296,2088,2878,5
1789469725.196713,1955,2879,5
1789469725.197721,1964,2880,5
1789469725.200174,2522,2882,5
1789469725.201634,2206,2880,5
1789469725.203543,2315,2880,5
1789469725.206041,1883,2879,5
1789469725.207562,2123,2880,5
1789469725.208868,2382,2881,5
1789469725.211421,1899,2878,5
1789469725.2125819,2066,2880,5
1789469725.2151392,2336,2879,5
1789469725.217463,1990,2878,5
1789469725.2187572,2048,2879,5
1789469725.221303,2063,2879,5
1789469725.222591,2191,2880,5
1789469725.225008,2283,2880,5
1789469725.227552,1674,2878,5
1789469725.228839,2102,2880,5
1789469725.2314,2232,2880,5
1789469725.2334878,2059,2879,5
1789469725.234779,2148,2879,5
1789469725.2370791,2175,2879,5
1789469725.2393842,1851,2879,5
1789469725.24067,2286,2880,5
1789469725.242773,2144,2879,5
1789469725.2451708,2064,2879,5
1789469725.2477272,2162,2880,5
1789469725.24877,2355,2879,5
1789469725.251078,2288,2881,5
1789469725.253626,1890,2879,5
1789469725.254915,2285,2879,5
1789469725.257459,2027,2881,5
1789469725.25875,2015,2880,5
1789469725.2649422,1798,2878,5
1789469725.2650208,2017,2880,5
1789469725.265118,2108,2880,5
1789469725.269055,2016,2879,5
1789469725.269216,2006,2879,5
1789469725.2710028,2091,2880,5
1789469725.274967,2143,2879,5
1789469725.275126,2011,2879,5
1789469725.276663,2021,2878,5
1789469725.279218,2020,2879,5
1789469725.280565,2167,2881,5
1789469725.282971,2201,2879,5
1789469725.286981,2073,2880,5
1789469725.2874272,1950,2879,5
1789469725.2893922,2245,2879,5
1789469725.291119,2182,2880,5
1789469725.2926579,1966,2877,5
1789469725.296578,1796,2879,5
1789469725.2966888,2070,2880,5
1789469725.299469,2243,2879,5
1789469725.300522,2269,2880,5
1789469725.302599,1908,2879,5
1789469725.30515,1730,2878,5
1789469725.30772,2295,2881,5
1789469725.309011,2204,2881,5
1789469725.311317,1879,2878,5
1789469725.313626,1997,2879,5
1789469725.314912,2026,2880,5
1789469725.317148,2091,2880,5
1789469725.3197298,2137,2880,5
1789469725.32102,2143,2879,5
1789469725.323329,2052,2879,5
1789469725.324617,2126,2879,5
1789469725.326924,1780,2877,5
1789469725.3290398,1775,2878,5
1789469725.331452,2365,2879,5
1789469725.332739,2508,2882,5
1789469725.335047,2112,2880,5
1789469725.337106,1734,2877,5
1789469725.3394098,1895,2878,5
1789469725.340696,2181,2878,5
1789469725.343138,1908,2878,5
1789469725.3444521,1949,2879,5
1789469725.34652,2080,2879,5
1789469725.3485818,2101,2879,5
1789469725.350782,2156,2880,5
1789469725.3551848,1969,2879,5
1789469725.355566,1951,2880,5
1789469725.35769,1997,2880,5
1789469725.359458,2067,2880,5
1789469725.3608372,1862,2879,5
1789469725.362717,1985,2879,5
1789469725.365269,2182,2880,5
1789469725.36713,2220,2881,5
1789469725.369442,2141,2879,5
1789469725.370732,2244,2879,5
1789469725.37664,2285,2880,5
1789469725.377056,1996,2879,5
1789469725.377414,1700,2878,5
1789469725.379141,1984,2878,5
1789469725.380567,2106,2879,5
1789469725.383892,2081,2878,5
1789469725.3863418,2150,2880,5
1789469725.386511,2004,2879,5
1789469725.389479,1967,2879,5
1789469725.39077,2224,2879,5
1789469725.3933198,2008,2878,5
1789469725.394472,1733,2879,5
1789469725.3970492,2030,2879,5
1789469725.398432,2229,2879,5
1789469725.400738,2262,2880,5
1789469725.402839,2063,2879,5
1789469725.405021,1754,2879,5
1789469725.4076009,2000,2879,5
1789469725.408747,2285,2880,5
1789469725.410801,1826,2878,5
1789469725.412856,1840,2879,5
1789469725.415165,2116,2879,5
1789469725.4164538,2148,2879,5
1789469725.419001,2121,2879,5
1789469725.421298,1971,2878,5
1789469725.4236128,1975,2879,5
1789469725.424903,2007,2880,5
1789469725.4274461,1991,2878,5
1789469725.428732,1969,2879,5
1789469725.431173,2070,2879,5
1789469725.43246,2206,2879,5
1789469725.434766,2131,2880,5
1789469725.437069,1934,2879,5
1789469725.4384372,1885,2877,5
1789469725.440738,2293,2879,5
1789469725.445457,2055,2880,5
1789469725.4461818,1783,2879,5
1789469725.448087,1738,2878,5
1789469725.4499378,2546,2882,5
1789469725.451433,2368,2881,5
1789469725.453104,1928,2879,5
1789469725.455714,1967,2880,5
1789469725.457647,2144,2879,5
1789469725.4589388,2305,2881,5
1789469725.461519,2082,2878,5
1789469725.46281,1997,2880,5
1789469725.466937,2066,2878,5
1789469725.4672818,2115,2878,5
1789469725.468532,1978,2880,5
1789469725.471194,1942,2879,5
1789469725.473973,2029,2880,5
1789469725.476644,2114,2879,5
1789469725.476768,1721,2877,5
1789469725.479245,2039,2878,5
1789469725.480535,2355,2880,5
1789469725.483084,2222,2880,5
1789469725.4852,2309,2880,5
1789469725.487296,2174,2879,5
1789469725.48859,2050,2879,5
1789469725.491136,2183,2879,5
1789469725.493433,2133,2881,5
1789469725.494727,2001,2879,5
1789469725.4972732,1936,2879,5
1789469725.498563,2173,2879,5
1789469725.500871,2224,2881,5
1789469725.503416,1992,2879,5
1789469725.5044942,1984,2879,5
1789469725.5067892,2162,2880,5
1789469725.509336,1844,2877,5
1789469725.510427,1813,2879,5
1789469725.512734,1823,2879,5
1789469725.515101,2143,2879,5
1789469725.517401,2375,2881,5
1789469725.518455,2093,2879,5
1789469725.521,2095,2880,5
1789469725.523571,2125,2879,5
1789469725.524618,2209,2880,5
1789469725.52717,2082,2877,5
1789469725.528459,1935,2879,5
1789469725.530918,2110,2879,5
1789469725.535539,2305,2878,5
1789469725.5360188,1922,2876,5
1789469725.5380218,1792,2878,5
1789469725.539853,1999,2879,5
1789469725.541489,2265,2880,5
1789469725.5430589,1953,2878,5
1789469725.5462022,1825,2879,5
1789469725.548116,2047,2879,5
1789469725.549414,2210,2878,5
1789469725.550466,2088,2878,5
1789469725.552768,2094,2879,5
1789469725.55801,2164,2879,5
1789469725.558122,2247,2879,5
1789469725.56005,2132,2879,5
1789469725.561805,1743,2878,5
1789469725.563209,1898,2879,5
1789469725.56477,2163,2881,5
1789469725.5673459,2257,2882,5
1789469725.568864,2077,2881,5
1789469725.5713851,1966,2879,5
1789469725.572435,2194,2880,5
1789469725.574983,2296,2879,5
1789469725.577564,1953,2879,5
1789469725.578866,1923,2878,5
1789469725.581413,2174,2879,5
1789469725.582531,2287,2880,5
1789469725.5848398,2188,2878,5
1789469725.587384,2086,2879,5
1789469725.5885398,1919,2878,5
1789469725.591088,2150,2878,5
1789469725.593208,2017,2879,5
1789469725.59439,1734,2879,5
1789469725.5967019,1856,2879,5
1789469725.598764,2444,2879,5
1789469725.601069,2277,2881,5
1789469725.603372,2057,2879,5
1789469725.604425,1927,2879,5
1789469725.606741,2219,2880,5
1789469725.6092942,2186,2880,5
1789469725.610558,1952,2878,5
1789469725.612797,2113,2879,5
1789469725.615345,2209,2880,5
1789469725.616639,2198,2878,5
1789469725.619186,2013,2880,5
1789469725.6214862,2057,2879,5
1789469725.62707,2121,2879,5
1789469725.627137,2235,2880,5
1789469725.627203,1871,2878,5
1789469725.629198,1938,2879,5
1789469725.630958,2168,2879,5
1789469725.633982,2232,2879,5
1789469725.636773,2195,2880,5
1789469725.636946,2129,2879,5
1789469725.6384199,1975,2880,5
1789469725.640745,2080,2878,5
1789469725.643049,1945,2877,5
1789469725.648799,1823,2879,5
1789469725.64916,1930,2879,5
1789469725.649589,2212,2879,5
1789469725.651417,2296,2882,5
1789469725.652791,2108,2880,5
1789469725.6560938,1974,2879,5
1789469725.658724,2144,2880,5
1789469725.6588311,2151,2880,5
1789469725.6607628,1931,2880,5
1789469725.663317,2026,2880,5
1789469725.664426,2246,2879,5
1789469725.666979,2241,2877,5
1789469725.6693602,2093,2881,5
1789469725.670655,1988,2879,5
1789469725.673193,2126,2879,5
1789469725.675481,2209,2878,5
1789469725.676768,1965,2878,5
1789469725.679073,1908,2879,5
1789469725.6803882,2150,2880,5
1789469725.682535,2273,2880,5
1789469725.6850822,2138,2880,5
1789469725.687378,2047,2880,5
1789469725.688419,2056,2880,5
1789469725.6909618,2231,2879,5
1789469725.6932092,2078,2880,5
1789469725.6953018,1898,2879,5
1789469725.6965902,2058,2879,5
1789469725.699133,2277,2878,5
1789469725.700424,2231,2881,5
1789469725.702733,2022,2879,5
1789469725.7048378,1893,2879,5
1789469725.7071922,2081,2879,5
1789469725.70848,2115,2881,5
1789469725.711025,1836,2879,5
1789469725.7131882,2021,2880,5
1789469725.71757,2245,2881,5
1789469725.718396,2337,2881,5
1789469725.719154,2117,2881,5
1789469725.721556,2028,2879,5
1789469725.7230542,2068,2879,5
1789469725.72497,2229,2880,5
1789469725.7281,1960,2877,5
1789469725.7299578,1900,2880,5
1789469725.7312589,2134,2879,5
1789469725.73237,2208,2880,5
1789469725.734878,2184,2880,5
1789469725.739167,2045,2879,5
1789469725.739538,2100,2880,5
1789469725.7417011,2225,2880,5
1789469725.743475,2035,2880,5
1789469725.745009,1854,2878,5
1789469725.749111,2044,2880,5
1789469725.749233,2370,2880,5
1789469725.7507699,2346,2881,5
1789469725.752846,2180,2879,5
1789469725.7551491,2014,2879,5
1789469725.756387,2091,2879,5
1789469725.7587268,2114,2880,5
1789469725.761288,1910,2879,5
1789469725.762377,1995,2878,5
1789469725.764694,2307,2878,5
1789469725.7672389,2343,2881,5
1789469725.7685308,2152,2880,5
1789469725.771074,2026,2879,5
1789469725.773184,2127,2879,5
1789469725.774375,2322,2880,5
1789469725.77669,2109,2878,5
1789469725.7791328,1905,2879,5
1789469725.781201,2108,2879,5
1789469725.782488,2186,2880,5
1789469725.784792,2106,2879,5
1789469725.7870002,1928,2879,5
1789469725.7892969,1970,2879,5
1789469725.790355,2227,2879,5
1789469725.792408,2079,2880,5
1789469725.794637,1890,2879,5
1789469725.7971158,2111,2879,5
1789469725.7994199,2288,2879,5
1789469725.8007061,2310,2880,5
1789469725.803253,2080,2880,5
1789469725.808055,2077,2879,5
1789469725.8081799,2201,2879,5
1789469725.810545,2261,2879,5
1789469725.8107562,2006,2878,5
1789469725.813508,2083,2880,5
1789469725.815406,2256,2878,5
1789469725.8181078,2223,2877,5
1789469725.8200698,2219,2880,5
1789469725.8213692,2075,2879,5
1789469725.822415,2096,2880,5
1789469725.824718,2193,2879,5
1789469725.829754,1993,2878,5
1789469725.830152,1908,2880,5
1789469725.832085,2207,2879,5
1789469725.833774,2310,2880,5
1789469725.8350499,2174,2880,5
1789469725.83687,2065,2880,5
1789469725.839437,2024,2879,5
1789469725.8410082,2244,2880,5
1789469725.842308,2107,2880,5
1789469725.844857,1952,2878,5
1789469725.8474119,2093,2880,5
1789469725.848522,2316,2878,5
1789469725.8510778,2391,2881,5
1789469725.8523269,2197,2879,5
1789469725.854692,2076,2879,5
1789469725.856999,2234,2879,5
1789469725.859064,2330,2880,5
1789469725.861364,2108,2879,5
1789469725.8624141,2163,2879,5
1789469725.864715,2413,2879,5
1789469725.867017,2477,2881,5
1789469725.8691342,2356,2880,5
1789469725.870305,2161,2879,5
1789469725.87285,2180,2880,5
1789469725.87495,2356,2880,5
1789469725.87709,2065,2878,5
1789469725.878381,1999,2880,5
1789469725.880682,2210,2879,5
1789469725.882988,2352,2878,5
1789469725.885098,2221,2881,5
1789469725.8863978,2069,2879,5
1789469725.8886988,2052,2879,5
1789469725.890999,2182,2880,5
1789469725.892242,2148,2879,5
1789469725.8943942,2094,2879,5
1789469725.898051,2204,2880,5
1789469725.900617,2345,2878,5
1789469725.900813,2352,2880,5
1789469725.902669,2248,2880,5
1789469725.908109,2198,2878,5
1789469725.908271,2277,2880,5
1789469725.9084501,2183,2881,5
1789469725.911175,1937,2877,5
1789469725.9124658,1984,2880,5
1789469725.914774,2191,2879,5
1789469725.920161,2293,2881,5
1789469725.920566,2092,2880,5
1789469725.921294,1942,2879,5
1789469725.9229782,2101,2880,5
1789469725.924703,2170,2879,5
1789469725.927684,2029,2878,5
1789469725.930347,1981,2879,5
1789469725.930485,2156,2879,5
1789469725.9331908,2245,2880,5
1789469725.934484,2186,2880,5
1789469725.937032,2092,2878,5
1789469725.9393651,2080,2879,5
1789469725.940673,2259,2880,5
1789469725.943228,2107,2879,5
1789469725.94452,2020,2879,5
1789469725.946822,2071,2880,5
1789469725.9491,2236,2880,5
1789469725.950389,2269,2881,5
1789469725.952617,2151,2879,5
1789469725.955164,2020,2879,5
1789469725.956453,2256,2880,5
1789469725.958878,2181,2880,5
1789469725.9609559,2021,2878,5
1789469725.962244,2054,2880,5
1789469725.964541,2242,2880,5
1789469725.967084,2257,2878,5
1789469725.968371,2131,2880,5
1789469725.970436,2015,2879,5
1789469725.9727411,2030,2880,5
1789469725.975041,2156,2880,5
1789469725.977365,2100,2879,5
1789469725.978656,2027,2878,5
1789469725.9812,2157,2880,5
1789469725.982241,2277,2880,5
1789469725.9844081,2245,2881,5
1789469725.98858,2114,2880,5
1789469725.988981,2091,2878,5
1789469725.9931588,2245,2879,5
1789469725.9936671,2054,2880,5
1789469725.996085,1866,2879,5
1789469725.99872,2070,2879,5
1789469725.998812,2252,2879,5
1789469726.0004082,2259,2880,5
1789469726.002971,2108,2880,5
1789469726.004267,1986,2879,5
1789469726.010834,2100,2879,5
1789469726.01124,2143,2879,5
1789469726.011589,1884,2878,5
1789469726.0126941,1922,2879,5
1789469726.0153458,2153,2880,5
1789469726.0194979,2225,2879,5
1789469726.0197551,2109,2880,5
1789469726.021437,1991,2880,5
1789469726.022729,2046,2879,5
1789469726.025044,2181,2881,5
1789469726.02634,1968,2877,5
1789469726.028678,1866,2880,5
1789469726.031234,1998,2880,5
1789469726.032524,2101,2879,5
1789469726.034955,2158,2879,5
1789469726.03726,2000,2880,5
1789469726.038548,2010,2879,5
1789469726.041091,2185,2879,5
1789469726.042203,2097,2880,5
1789469726.044522,1958,2880,5
1789469726.047072,2056,2880,5
1789469726.048225,2248,2879,5
1789469726.050529,2220,2881,5
1789469726.053073,2113,2880,5
1789469726.054231,1977,2879,5
1789469726.0565388,2091,2880,5
1789469726.0588381,2108,2880,5
1789469726.061148,1921,2878,5
1789469726.0622091,1937,2880,5
1789469726.0645728,2143,2880,5
1789469726.0669398,2220,2878,5
1789469726.0682309,2106,2879,5
1789469726.07054,1923,2879,5
1789469726.0726342,2007,2880,5
1789469726.0778282,2167,2879,5
1789469726.078291,1943,2878,5
1789469726.078984,1880,2878,5
1789469726.08038,2038,2880,5
1789469726.08301,2182,2879,5
1789469726.085112,2168,2880,5
1789469726.087626,2078,2879,5
1789469726.089366,2013,2879,5
1789469726.090663,2232,2880,5
1789469726.0932128,2104,2880,5
1789469726.094413,1876,2877,5
1789469726.098644,1979,2880,5
1789469726.0996292,2224,2881,5
1789469726.100938,2232,2882,5
1789469726.102578,2091,2880,5
1789469726.10534,2024,2880,5
1789469726.107609,2092,2880,5
1789469726.109468,2088,2880,5
1789469726.1105769,1921,2879,5
1789469726.112958,1954,2880,5
1789469726.1152582,2169,2879,5
1789469726.1163058,2260,2880,5
1789469726.1183732,2136,2880,5
1789469726.120697,2020,2878,5
1789469726.123204,2121,2879,5
1789469726.124497,2188,2880,5
1789469726.126959,1995,2877,5
1789469726.12927,1934,2879,5
1789469726.130312,2110,2880,5
1789469726.132622,2196,2878,5
1789469726.1347258,2151,2879,5
1789469726.137011,2015,2878,5
1789469726.138299,1979,2878,5
1789469726.14061,2154,2879,5
1789469726.143153,2019,2879,5
1789469726.1442099,1929,2879,5
1789469726.146576,2037,2880,5
1789469726.14912,2189,2879,5
1789469726.1504068,2153,2878,5
1789469726.152628,2056,2880,5
1789469726.154932,1983,2879,5
1789469726.156218,2085,2879,5
1789469726.1587598,2087,2880,5
1789469726.161056,1937,2877,5
1789469726.165874,1953,2879,5
1789469726.166267,2153,2881,5
1789469726.167131,2267,2879,5
1789469726.169887,2130,2880,5
1789469726.17172,1982,2879,5
1789469726.173148,2024,2878,5
1789469726.177539,2139,2881,5
1789469726.177578,1989,2879,5
1789469726.178626,1916,2879,5
1789469726.1806872,2084,2879,5
1789469726.186486,2216,2879,5
1789469726.186881,2111,2880,5
1789469726.187912,1982,2879,5
1789469726.1892328,1920,2879,5
1789469726.190932,2156,2879,5
1789469726.192213,2041,2880,5
1789469726.196542,1914,2879,5
1789469726.1967318,1928,2879,5
1789469726.19853,2294,2880,5
1789469726.200863,2256,2880,5
1789469726.202194,2140,2880,5
1789469726.204757,2011,2879,5
1789469726.207082,2115,2880,5
1789469726.2083788,2152,2880,5
1789469726.210688,1952,2879,5
1789469726.212998,1883,2879,5
1789469726.215322,2146,2880,5
1789469726.216377,2301,2880,5
1789469726.218922,2156,2879,5
1789469726.221157,2081,2880,5
1789469726.222202,1815,2878,5
1789469726.224745,2095,2880,5
1789469726.226857,2075,2879,5
1789469726.2281501,2034,2879,5
1789469726.230456,2099,2880,5
1789469726.233,1905,2879,5
1789469726.234287,2053,2880,5
1789469726.23683,2105,2879,5
1789469726.239137,2095,2880,5
1789469726.2403111,2222,2880,5
1789469726.242369,2043,2880,5
1789469726.244437,1904,2879,5
1789469726.246495,1973,2880,5
1789469726.248815,2292,2879,5
1789469726.250166,2099,2879,5
1789469726.255936,2071,2880,5
1789469726.256033,2051,2880,5
1789469726.258379,2068,2880,5
1789469726.258442,2053,2879,5
1789469726.261323,2000,2877,5
1789469726.263135,1843,2878,5
1789469726.265567,2212,2879,5
1789469726.267434,2131,2877,5
1789469726.268728,2077,2880,5
1789469726.271283,2078,2879,5
1789469726.272392,2103,2878,5
1789469726.2772639,2252,2879,5
1789469726.2776341,1982,2877,5
1789469726.279863,1810,2879,5
1789469726.281708,1926,2880,5
1789469726.284723,2292,2879,5
1789469726.2849221,1987,2878,5
1789469726.2872598,1971,2880,5
1789469726.289084,2106,2879,5
1789469726.2903821,2454,2880,5
1789469726.292934,1998,2879,5
1789469726.2950342,1784,2880,5
1789469726.29617,2245,2880,5
1789469726.2985,2377,2880,5
1789469726.3008041,2176,2878,5
1789469726.3031008,2029,2880,5
1789469726.304169,1960,2880,5
1789469726.306394,1988,2879,5
1789469726.3086998,2052,2879,5
1789469726.310936,1933,2877,5
1789469726.313,1730,2880,5
1789469726.315309,1886,2879,5
1789469726.316355,2440,2880,5
1789469726.318901,2347,2880,5
1789469726.3201559,1998,2880,5
1789469726.3227038,1803,2879,5
1789469726.325015,1999,2880,5
1789469726.326186,2029,2878,5
1789469726.3284879,1791,2878,5
1789469726.331041,2281,2879,5
1789469726.332331,2501,2882,5
1789469726.33482,2164,2879,5
1789469726.3371289,1919,2879,5
1789469726.338416,1833,2879,5
1789469726.34097,2013,2880,5
1789469726.342391,2204,2881,5
1789469726.3463192,1784,2879,5
1789469726.347737,1808,2880,5
1789469726.348903,2372,2882,5
1789469726.350301,2329,2880,5
1789469726.3535948,1969,2879,5
1789469726.355916,2051,2880,5
1789469726.357892,2063,2879,5
1789469726.359144,2163,2879,5
1789469726.3602,2009,2878,5
1789469726.362516,1895,2880,5
1789469726.368421,2171,2879,5
1789469726.3685398,2297,2880,5
1789469726.369021,1978,2880,5
1789469726.370402,1877,2879,5
1789469726.372264,2004,2879,5
1789469726.375224,2277,2879,5
1789469726.3777668,2048,2879,5
1789469726.379617,1903,2879,5
1789469726.3809202,2001,2878,5
1789469726.383243,2107,2878,5
1789469726.384301,2095,2880,5
1789469726.386698,1947,2879,5
1789469726.3890932,1952,2878,5
1789469726.390212,2166,2880,5
1789469726.3927722,2131,2881,5
1789469726.394849,1920,2879,5
1789469726.396908,1967,2879,5
1789469726.399022,2136,2879,5
1789469726.400165,2236,2881,5
1789469726.402478,2069,2878,5
1789469726.405032,1939,2879,5
1789469726.4063292,2141,2878,5
1789469726.4088771,2203,2880,5
1789469726.411,1947,2878,5
1789469726.4121118,1955,2879,5
1789469726.4144242,2059,2880,5
1789469726.416534,2206,2879,5
1789469726.4186041,2137,2879,5
1789469726.421052,2100,2879,5
1789469726.422144,2057,2879,5
1789469726.42469,2156,2879,5
1789469726.427238,2038,2877,5
1789469726.4285288,1910,2879,5
1789469726.4308321,2082,2879,5
1789469726.432116,2141,2879,5
1789469726.436705,2213,2880,5
1789469726.4370902,2045,2878,5
1789469726.438994,2033,2880,5
1789469726.440892,2310,2880,5
1789469726.442455,2231,2880,5
1789469726.446455,1906,2879,5
1789469726.44663,1934,2880,5
1789469726.448599,2092,2878,5
1789469726.451164,2177,2878,5
1789469726.452224,2005,2881,5
1789469726.454528,1889,2879,5
1789469726.458802,1896,2879,5
1789469726.459383,2150,2880,5
1789469726.4614851,1972,2878,5
1789469726.4631019,2001,2879,5
1789469726.465076,2096,2879,5
1789469726.4669282,2070,2879,5
1789469726.4694898,2151,2879,5
1789469726.4715881,2109,2880,5
1789469726.472896,2099,2879,5
1789469726.475009,2131,2880,5
1789469726.4763908,1948,2878,5
1789469726.4787068,1880,2880,5
1789469726.480006,1999,2879,5
1789469726.482572,2176,2879,5
1789469726.484888,2157,2881,5
1789469726.48618,2025,2878,5
1789469726.488503,2049,2879,5
1789469726.491061,2075,2881,5
1789469726.4921322,1888,2878,5
1789469726.494196,1948,2878,5
1789469726.496743,2135,2879,5
1789469726.499295,2143,2879,5
1789469726.5005949,2063,2878,5
1789469726.503149,1870,2878,5
1789469726.504204,1516,2876,5
1789469726.506521,2308,2881,5
1789469726.5090759,2234,2880,5
1789469726.51037,1743,2877,5
1789469726.512931,1640,2879,5
1789469726.515239,2079,2879,5
1789469726.516294,2360,2882,5
1789469726.518354,2191,2880,5
1789469726.520585,2029,2879,5
1789469726.522881,2004,2879,5
1789469726.5249941,1922,2879,5
1789469726.526289,1771,2878,5
1789469726.531023,1920,2879,5
1789469726.5315,2160,2880,5
1789469726.533671,2395,2881,5
1789469726.535682,1923,2879,5
1789469726.537205,1675,2878,5
1789469726.538769,1804,2880,5
1789469726.5413089,2951,2882,5
1789469726.543055,1434,2877,5
1789469726.544659,1606,2878,5
1789469726.547209,1968,2879,5
1789469726.548259,2428,2881,5
1789469726.553429,2321,2881,5
1789469726.554859,1946,2879,5
1789469726.554924,1987,2879,5
1789469726.557461,1764,2879,5
1789469726.559181,2265,2880,5
1789469726.561142,1814,2878,5
1789469726.563767,1711,2880,5
1789469726.565398,2007,2880,5
1789469726.5664792,2715,2881,5
1789469726.569035,1971,2881,5
1789469726.57009,1729,2878,5
1789469726.572565,1452,2877,5
1789469726.5748951,2245,2879,5
1789469726.57619,2257,2882,5
1789469726.57874,2307,2881,5
1789469726.580032,2038,2879,5
1789469726.582339,1442,2877,5
1789469726.584411,1496,2878,5
1789469726.586957,2290,2880,5
1789469726.588247,1936,2880,5
1789469726.5908039,2042,2879,5
1789469726.593125,1952,2881,5
1789469726.594422,1920,2878,5
1789469726.5965319,1290,2878,5
1789469726.5988412,1617,2878,5
1789469726.60013,2297,2881,5
1789469726.602435,2233,2880,5
1789469726.604722,2354,2881,5
1789469726.6070342,2305,2881,5
1789469726.6082492,1350,2877,5
1789469726.61056,1815,2878,5
1789469726.612621,1901,2878,5
1789469726.615187,1706,2879,5
1789469726.616247,2039,2878,5
1789469726.618565,2369,2880,5
1789469726.624923,2153,2880,5
1789469726.6262,1664,2878,5
1789469726.626675,1963,2880,5
1789469726.628298,1730,2879,5
1789469726.628492,1427,2878,5
1789469726.631665,1776,2880,5
1789469726.633771,1595,2879,5
1789469726.636539,1645,2879,5
1789469726.63664,1480,2877,5
1789469726.638771,1763,2879,5
1789469726.6408598,1829,2879,5
1789469726.6429281,2073,2879,5
1789469726.644223,2011,2878,5
1789469726.650181,1934,2880,5
1789469726.650631,2088,2879,5
1789469726.651117,2063,2878,5
1789469726.653209,1995,2880,5
1789469726.6550488,1783,2879,5
1789469726.6566699,1813,2879,5
1789469726.658335,1912,2880,5
1789469726.6610591,1700,2878,5
1789469726.66318,1995,2879,5
1789469726.664243,2060,2879,5
1789469726.666805,2174,2879,5
1789469726.668105,2218,2880,5
1789469726.6704261,1740,2878,5
1789469726.6727521,1877,2879,5
1789469726.6748118,2257,2880,5
1789469726.6761112,2081,2880,5
1789469726.6782541,1585,2878,5
1789469726.6805608,1926,2878,5
1789469726.682881,2216,2878,5
1789469726.684004,2387,2881,5
1789469726.686563,2213,2880,5
1789469726.688875,2059,2879,5
1789469726.690172,2240,2880,5
1789469726.6927319,1921,2878,5
1789469726.6940281,1912,2878,5
1789469726.696555,2036,2880,5
1789469726.698862,2399,2880,5
1789469726.699989,2135,2879,5
1789469726.7022998,2357,2881,5
1789469726.704601,1823,2879,5
1789469726.706008,2137,2881,5
1789469726.708315,2147,2878,5
1789469726.710871,1785,2878,5
1789469726.711991,2234,2879,5
1789469726.714304,2191,2880,5
1789469726.716862,2418,2881,5
1789469726.7181592,2170,2880,5
1789469726.720717,2070,2879,5
1789469726.726191,2009,2879,5
1789469726.727196,2431,2880,5
1789469726.728012,2042,2878,5
1789469726.7293718,2042,2879,5
1789469726.7314692,2086,2880,5
1789469726.733236,2151,2879,5
1789469726.735126,2184,2881,5
1789469726.737977,2461,2880,5
1789469726.738074,2028,2879,5
1789469726.7407439,2600,2881,5
1789469726.742056,1860,2879,5
1789469726.744574,2112,2879,5
1789469726.75046,2302,2880,5
1789469726.751009,2334,2878,5
1789469726.7514791,2256,2881,5
1789469726.753401,2289,2879,5
1789469726.7547588,1800,2878,5
1789469726.756495,2264,2881,5
1789469726.758968,2255,2881,5
1789469726.761886,2114,2878,5
1789469726.762145,1684,2879,5
1789469726.764972,2174,2880,5
1789469726.766273,2084,2879,5
1789469726.768353,2398,2879,5
1789469726.770665,2185,2881,5
1789469726.772984,1859,2877,5
1789469726.774241,2497,2880,5
1789469726.7767942,1948,2879,5
1789469726.7780879,1923,2879,5
1789469726.780409,2435,2880,5
1789469726.7827241,2233,2879,5
1789469726.784794,2022,2878,5
1789469726.786091,1986,2879,5
1789469726.7883992,2125,2879,5
1789469726.790933,2399,2880,5
1789469726.791984,2406,2880,5
1789469726.794295,1760,2878,5
1789469726.796596,2210,2880,5
1789469726.79892,2176,2881,5
1789469726.800221,2439,2881,5
1789469726.8025322,2308,2880,5
1789469726.8048341,1802,2878,5
1789469726.806128,2082,2881,5
1789469726.808676,2309,2880,5
1789469726.810987,1545,2879,5
1789469726.812292,1838,2879,5
1789469726.8145988,2177,2880,5
1789469726.8159711,2412,2882,5
1789469726.818279,2108,2879,5
1789469726.82041,1983,2880,5
1789469726.827274,2229,2880,5
1789469726.828585,2192,2880,5
1789469726.829957,1915,2878,5
1789469726.830268,1858,2880,5
1789469726.83038,2261,2880,5
1789469726.832493,2255,2879,5
1789469726.834817,2281,2880,5
1789469726.839373,1888,2879,5
1789469726.839659,1995,2879,5
1789469726.841761,2109,2879,5
1789469726.842836,1958,2880,5
1789469726.844147,2047,2877,5
1789469726.846474,1796,2879,5
1789469726.853086,2173,2879,5
1789469726.853996,2529,2882,5
1789469726.854856,2136,2879,5
1789469726.856226,2065,2879,5
1789469726.858061,2091,2879,5
1789469726.8592288,2196,2880,5
1789469726.862048,1874,2878,5
1789469726.8622222,1937,2879,5
1789469726.865362,2080,2879,5
1789469726.86757,2247,2878,5
1789469726.868879,2149,2880,5
1789469726.870226,2047,2879,5
1789469726.872573,1832,2879,5
1789469726.873964,2082,2879,5
1789469726.876436,1985,2879,5
1789469726.878556,2003,2880,5
1789469726.8808808,2049,2879,5
1789469726.882192,2102,2880,5
1789469726.884751,2212,2880,5
1789469726.8860538,1828,2879,5
1789469726.888331,1854,2879,5
1789469726.890402,2088,2878,5
1789469726.892718,2240,2879,5
1789469726.894793,1971,2879,5
1789469726.896095,1877,2879,5
1789469726.898165,2053,2879,5
1789469726.9004722,2493,2881,5
1789469726.902793,2192,2879,5
1789469726.9051268,1871,2878,5
1789469726.906185,1963,2879,5
1789469726.908421,2122,2881,5
1789469726.9108381,1897,2879,5
1789469726.911963,2088,2880,5
1789469726.914458,2134,2879,5
1789469726.917017,2182,2878,5
1789469726.9180648,2114,2880,5
1789469726.920395,2154,2880,5
1789469726.9227068,2117,2881,5
1789469726.925028,2079,2878,5
1789469726.926303,1757,2878,5
1789469726.928616,1637,2879,5
1789469726.929926,2127,2880,5
1789469726.935594,2386,2882,5
1789469726.936159,2230,2881,5
1789469726.93665,1878,2879,5
1789469726.9383428,1948,2879,5
1789469726.941901,2264,2881,5
1789469726.942534,2041,2880,5
1789469726.944534,1997,2880,5
1789469726.947701,1953,2879,5
1789469726.950138,2063,2879,5
1789469726.950181,2170,2881,5
1789469726.952542,1928,2880,5
1789469726.955111,1924,2880,5
1789469726.956173,2107,2879,5
1789469726.962689,2383,2881,5
1789469726.963179,2074,2878,5
1789469726.963686,1982,2879,5
1789469726.965125,2139,2879,5
1789469726.966889,2284,2878,5
1789469726.968423,2054,2880,5
1789469726.97103,2052,2879,5
1789469726.97415,1962,2879,5
1789469726.9742908,1824,2879,5
1789469726.976501,1801,2879,5
1789469726.978833,1851,2879,5
1789469726.9799511,1886,2880,5
1789469726.9822679,1978,2880,5
1789469726.9845939,2142,2881,5
1789469726.9866712,2283,2880,5
1789469726.9889889,2269,2880,5
1789469726.990043,2341,2880,5
1789469726.992388,2194,2879,5
1789469726.9949398,1992,2878,5
1789469726.996236,1854,2880,5
1789469726.998733,2051,2879,5
1789469727.000031,2271,2881,5
1789469727.002584,2010,2878,5
1789469727.004703,1934,2879,5
1789469727.006,2102,2879,5
1789469727.008322,2082,2881,5
1789469727.01085,1748,2878,5
1789469727.012146,1908,2878,5
1789469727.014457,2221,2880,5
1789469727.017102,2318,2878,5
1789469727.018402,2148,2879,5
1789469727.0209532,1904,2879,5
1789469727.022006,1826,2880,5
1789469727.0243158,1989,2879,5
1789469727.026866,2193,2880,5
1789469727.028159,2004,2878,5
1789469727.030462,2005,2880,5
1789469727.033014,2227,2880,5
1789469727.0340722,2220,2880,5
1789469727.036623,1874,2877,5
1789469727.0387251,1890,2879,5
1789469727.043642,2350,2880,5
1789469727.0449228,2188,2880,5
1789469727.046547,1745,2878,5
1789469727.046742,1992,2878,5
1789469727.048479,2182,2879,5
1789469727.052246,2321,2881,5
1789469727.052381,2591,2883,5
1789469727.055587,1998,2879,5
1789469727.0576499,2068,2880,5
1789469727.058958,2027,2880,5
1789469727.060014,1875,2878,5
1789469727.0625,1936,2881,5
1789469727.068526,2140,2879,5
1789469727.068989,2338,2881,5
1789469727.070991,1943,2879,5
1789469727.071092,1753,2879,5
1789469727.073032,1931,2880,5
1789469727.0744572,2203,2880,5
1789469727.076489,2084,2881,5
1789469727.0793972,1953,2879,5
1789469727.0814662,2059,2880,5
1789469727.082762,2300,2879,5
1789469727.083921,2159,2881,5
1789469727.086483,2061,2879,5
1789469727.089042,1980,2879,5
1789469727.090359,2214,2880,5
1789469727.092528,2025,2880,5
1789469727.09393,1817,2879,5
1789469727.096261,2013,2879,5
1789469727.098742,2195,2880,5
1789469727.1000419,2147,2878,5
1789469727.102591,2021,2880,5
1789469727.1039329,2011,2880,5
1789469727.106005,2180,2878,5
1789469727.10832,2115,2878,5
1789469727.110868,1878,2877,5
1789469727.112109,1992,2880,5
1789469727.114666,2060,2880,5
1789469727.115959,2288,2879,5
1789469727.1182652,2086,2879,5
1789469727.1205812,2054,2879,5
1789469727.122903,2062,2881,5
1789469727.123945,2273,2879,5
1789469727.126496,2102,2880,5
1789469727.128812,2044,2878,5
1789469727.130111,2084,2881,5
1789469727.132663,2127,2879,5
1789469727.1339571,2185,2880,5
1789469727.136512,2072,2879,5
1789469727.1385942,1965,2879,5
1789469727.1452959,2257,2880,5
1789469727.145406,2099,2879,5
1789469727.1458728,1757,2878,5
1789469727.146667,2088,2880,5
1789469727.1493142,2343,2879,5
1789469727.151018,2227,2878,5
1789469727.153203,1950,2878,5
1789469727.1561038,1955,2879,5
1789469727.156308,1970,2879,5
1789469727.158047,1990,2879,5
1789469727.160356,1693,2877,5
1789469727.162668,1888,2878,5
1789469727.1688828,2282,2879,5
1789469727.16902,2245,2879,5
1789469727.169475,2268,2880,5
1789469727.171681,2001,2879,5
1789469727.173218,2092,2879,5
1789469727.174853,2335,2880,5
1789469727.1769128,2009,2878,5
1789469727.179956,1850,2880,5
1789469727.1801379,2056,2878,5
1789469727.183006,2235,2880,5
1789469727.18431,2227,2882,5
1789469727.186621,2041,2878,5
1789469727.1879182,2087,2879,5
1789469727.190219,2226,2879,5
1789469727.1924841,2092,2880,5
1789469727.19505,1653,2877,5
1789469727.196349,1813,2880,5
1789469727.198581,2154,2880,5
1789469727.2008908,2309,2881,5
1789469727.201949,2121,2880,5
1789469727.2043982,2008,2879,5
1789469727.206947,2036,2879,5
1789469727.208,2097,2880,5
1789469727.210309,2201,2878,5
1789469727.212611,1828,2879,5
1789469727.214735,2065,2880,5
1789469727.216821,2219,2878,5
1789469727.218119,2171,2880,5
1789469727.2204201,1980,2879,5
1789469727.222729,2009,2879,5
1789469727.225038,2262,2880,5
1789469727.226335,2034,2879,5
1789469727.228649,1858,2879,5
1789469727.230964,2070,2878,5
1789469727.232258,2231,2880,5
1789469727.234329,2303,2880,5
1789469727.2366369,2130,2880,5
1789469727.23793,1931,2880,5
1789469727.240244,2196,2880,5
1789469727.246007,2078,2881,5
1789469727.246131,1895,2879,5
1789469727.2469351,1990,2879,5
1789469727.248848,2211,2880,5
1789469727.250769,2316,2882,5
1789469727.252914,2108,2880,5
1789469727.25436,2013,2880,5
1789469727.257601,2018,2879,5
1789469727.259671,2183,2880,5
1789469727.260727,1905,2877,5
1789469727.2628071,1907,2879,5
1789469727.2641048,2153,2879,5
1789469727.2705548,2305,2878,5
1789469727.270968,2177,2879,5
1789469727.271401,2014,2880,5
1789469727.2732632,2008,2879,5
1789469727.274739,2198,2879,5
1789469727.27633,2062,2878,5
1789469727.278311,1917,2879,5
1789469727.281603,2040,2880,5
1789469727.283641,2278,2879,5
1789469727.283776,2259,2880,5
1789469727.2860851,2011,2879,5
1789469727.288555,1907,2878,5
1789469727.290636,2138,2879,5
1789469727.2919428,2111,2880,5
1789469727.294006,1911,2880,5
1789469727.296331,1960,2879,5
1789469727.298642,2196,2879,5
1789469727.299913,2250,2881,5
1789469727.30225,2088,2880,5
1789469727.30479,1884,2879,5
1789469727.306089,2168,2880,5
1789469727.308409,2178,2880,5
1789469727.3107252,1867,2879,5
1789469727.3120341,1936,2879,5
1789469727.3145878,2210,2879,5
1789469727.315883,2326,2881,5
1789469727.3182988,2236,2879,5
1789469727.320853,2041,2879,5
1789469727.321901,2037,2880,5
1789469727.3242319,2305,2881,5
1789469727.326551,2063,2878,5
1789469727.327847,1934,2879,5
1789469727.3303208,2076,2880,5
1789469727.3326359,2156,2878,5
1789469727.3337688,2256,2880,5
1789469727.336077,2161,2879,5
1789469727.338624,2141,2878,5
1789469727.339919,2185,2880,5
1789469727.345975,2085,2880,5
1789469727.346563,1904,2878,5
1789469727.346996,2057,2879,5
1789469727.348636,2182,2879,5
1789469727.350226,2309,2880,5
1789469727.352235,2164,2881,5
1789469727.356622,1966,2879,5
1789469727.3568509,2105,2880,5
1789469727.35848,2332,2880,5
1789469727.360796,2124,2878,5
1789469727.362088,1966,2878,5
1789469727.364392,2244,2879,5
1789469727.3687522,2384,2881,5
1789469727.3691661,2331,2880,5
1789469727.371181,2167,2880,5
1789469727.372718,1979,2878,5
1789469727.374632,1960,2878,5
1789469727.3763971,2003,2879,5
1789469727.379076,1846,2880,5
1789469727.389668,2124,2879,5
1789469727.389971,2296,2878,5
1789469727.39001,2183,2881,5
1789469727.3900428,2052,2880,5
1789469727.390552,1957,2879,5
1789469727.390591,2265,2879,5
1789469727.39803,2221,2880,5
1789469727.3981261,1962,2880,5
1789469727.400064,2068,2880,5
1789469727.407509,2387,2880,5
1789469727.407553,2382,2881,5
1789469727.407587,2147,2880,5
1789469727.407626,2008,2879,5
1789469727.407658,2048,2879,5
1789469727.407844,2319,2880,5
1789469727.416758,2102,2877,5
1789469727.416835,2126,2879,5
1789469727.416925,2108,2878,5
1789469727.417046,2219,2879,5
1789469727.4181042,2180,2879,5
1789469727.423907,2100,2879,5
1789469727.424,2135,2881,5
1789469727.4240682,2319,2880,5
1789469727.4271228,2100,2880,5
1789469727.428759,1966,2878,5
1789469727.429871,2037,2880,5
1789469727.4324539,2277,2879,5
1789469727.4345322,2282,2880,5
1789469727.436835,2101,2879,5
1789469727.438132,2030,2877,5
1789469727.444183,2092,2879,5
1789469727.4447901,1944,2878,5
1789469727.445312,1797,2878,5
1789469727.447244,1955,2879,5
1789469727.4490318,2186,2878,5
1789469727.4504268,2257,2881,5
1789469727.45288,2074,2878,5
1789469727.455816,1922,2879,5
1789469727.455988,2034,2879,5
1789469727.4581041,2188,2880,5
1789469727.460664,1985,2879,5
1789469727.461974,1973,2879,5
1789469727.468817,2201,2880,5
1789469727.469656,2253,2879,5
1789469727.470151,2124,2880,5
1789469727.470576,2088,2880,5
1789469727.473286,2147,2879,5
1789469727.474672,2276,2880,5
1789469727.477,2106,2879,5
1789469727.4799821,1985,2878,5
1789469727.480202,2139,2879,5
1789469727.482251,2295,2878,5
1789469727.4845812,2260,2880,5
1789469727.4857678,2136,2880,5
1789469727.488078,2159,2879,5
1789469727.490388,2298,2879,5
1789469727.492718,2261,2879,5
1789469727.49402,2019,2879,5
1789469727.496348,2080,2880,5
1789469727.497731,2324,2879,5
1789469727.499786,2298,2880,5
1789469727.5020952,2147,2879,5
1789469727.5044029,2020,2878,5
1789469727.505811,2092,2878,5
1789469727.508369,2209,2878,5
1789469727.5097442,2004,2879,5
1789469727.511822,1975,2878,5
1789469727.51437,2158,2879,5
1789469727.515755,2262,2879,5
1789469727.517983,2138,2879,5
1789469727.520531,2030,2878,5
1789469727.521821,2067,2879,5
1789469727.5241349,2226,2880,5
1789469727.5266812,2056,2879,5
1789469727.527972,1932,2878,5
1789469727.5300329,2140,2880,5
1789469727.5325801,2344,2878,5
1789469727.533699,2326,2880,5
1789469727.536253,2172,2879,5
1789469727.5385668,2072,2878,5
1789469727.540909,2279,2879,5
1789469727.542175,2218,2879,5
1789469727.547481,1956,2877,5
1789469727.548697,2030,2879,5
1789469727.5488372,2197,2880,5
1789469727.551931,2261,2882,5
1789469727.5523741,2103,2878,5
1789469727.553998,1982,2879,5
1789469727.5582871,2027,2879,5
1789469727.558451,2120,2880,5
1789469727.560492,1973,2878,5
1789469727.5618172,1960,2879,5
1789469727.563883,2096,2879,5
1789469727.566447,2224,2879,5
1789469727.571294,2194,2880,5
1789469727.5717812,2035,2879,5
1789469727.571908,2021,2879,5
1789469727.574094,2209,2880,5
1789469727.577358,2027,2879,5
1789469727.579494,1911,2878,5
1789469727.582457,2055,2880,5
1789469727.582776,2215,2879,5
1789469727.585032,2220,2881,5
1789469727.5863402,2123,2879,5
1789469727.587735,2002,2878,5
1789469727.590063,2135,2879,5
1789469727.592391,2105,2880,5
1789469727.593706,1892,2877,5
1789469727.596107,1939,2878,5
1789469727.59871,2130,2880,5
1789469727.600018,2212,2878,5
1789469727.6026208,2104,2880,5
1789469727.603702,1992,2879,5
1789469727.60654,2104,2880,5
1789469727.607855,2223,2880,5
1789469727.610417,2022,2877,5
1789469727.611722,1997,2879,5
1789469727.613805,2153,2879,5
1789469727.615882,2225,2880,5
1789469727.618431,2125,2880,5
1789469727.620759,1986,2879,5
1789469727.621811,1958,2878,5
1789469727.6243641,2169,2879,5
1789469727.6257222,2078,2880,5
1789469727.627887,1940,2879,5
1789469727.630442,2086,2880,5
1789469727.631745,2237,2880,5
1789469727.634064,2278,2880,5
1789469727.6363788,2121,2878,5
1789469727.638679,2056,2879,5
1789469727.6399732,2177,2879,5
1789469727.642445,2144,2879,5
1789469727.643739,1925,2877,5
1789469727.6461692,1973,2878,5
1789469727.648488,2151,2879,5
1789469727.653646,2236,2878,5
1789469727.654185,2108,2880,5
1789469727.6555939,2014,2879,5
1789469727.6585531,2070,2879,5
1789469727.659461,2191,2879,5
1789469727.6609018,1966,2878,5
1789469727.665549,1949,2880,5
1789469727.6656718,2118,2880,5
1789469727.665932,2232,2880,5
1789469727.668724,2172,2879,5
1789469727.670018,2037,2879,5
1789469727.6725812,2045,2879,5
1789469727.673884,2211,2880,5
1789469727.678383,2033,2879,5
1789469727.679713,1895,2879,5
1789469727.680206,2059,2878,5
1789469727.6819189,2253,2878,5
1789469727.684727,2290,2881,5
1789469727.6937459,2123,2879,5
1789469727.69385,2059,2880,5
1789469727.693923,2151,2879,5
1789469727.69399,2162,2881,5
1789469727.694162,1940,2879,5
1789469727.696643,1972,2879,5
1789469727.697994,2168,2879,5
1789469727.700502,2227,2878,5
1789469727.7018418,2119,2881,5
1789469727.7041762,2005,2879,5
1789469727.7063448,2076,2878,5
1789469727.7084758,2190,2880,5
1789469727.7108438,1990,2878,5
1789469727.7121542,1915,2880,5
1789469727.714493,2136,2880,5
1789469727.715791,2297,2879,5
1789469727.7180061,2199,2881,5
1789469727.720163,2093,2880,5
1789469727.72241,2097,2879,5
1789469727.7248042,2247,2879,5
1789469727.72586,2085,2880,5
1789469727.728192,1937,2878,5
1789469727.730339,2044,2879,5
1789469727.731723,2236,2879,5
1789469727.734074,2228,2881,5
1789469727.736713,2081,2880,5
1789469727.737955,1995,2879,5
1789469727.740134,2144,2880,5
1789469727.74264,2166,2880,5
1789469727.7438898,1935,2878,5
1789469727.7460291,1992,2880,5
1789469727.748126,2196,2879,5
1789469727.750339,2240,2879,5
1789469727.752596,2116,2880,5
1789469727.753819,2010,2879,5
1789469727.758523,2073,2879,5
1789469727.759077,2192,2879,5
1789469727.7616398,2002,2878,5
1789469727.761879,1970,2880,5
1789469727.764398,2116,2879,5
1789469727.767071,2250,2879,5
1789469727.7699468,2207,2880,5
1789469727.770241,2034,2879,5
1789469727.772253,2007,2879,5
1789469727.774577,2188,2880,5
1789469727.7756312,2066,2879,5
1789469727.777694,1942,2879,5
1789469727.783665,2068,2880,5
1789469727.784383,2147,2880,5
1789469727.784906,2134,2878,5
1789469727.7864919,2021,2880,5
1789469727.7883258,1978,2878,5
1789469727.790071,2168,2879,5
1789469727.79213,2212,2879,5
1789469727.7948532,1866,2878,5
1789469727.7965848,1994,2879,5
1789469727.797892,2092,2879,5
1789469727.800215,2240,2879,5
1789469727.802465,2111,2880,5
1789469727.803562,2066,2879,5
1789469727.806132,2119,2880,5
1789469727.808661,2338,2880,5
1789469727.809956,2007,2876,5
1789469727.812271,1659,2878,5
1789469727.8143392,2058,2879,5
1789469727.8156319,2296,2879,5
1789469727.81818,2214,2881,5
1789469727.819571,1964,2879,5
1789469727.8219059,1865,2877,5
1789469727.82422,2265,2880,5
1789469727.825568,2028,2879,5
1789469727.827687,1956,2878,5
1789469727.829995,2061,2880,5
1789469727.8323112,1862,2879,5
1789469727.834613,2188,2879,5
1789469727.835905,2138,2879,5
1789469727.838248,1924,2879,5
1789469727.839612,2309,2879,5
1789469727.8419242,2132,2879,5
1789469727.84423,1927,2878,5
1789469727.8455942,2102,2879,5
1789469727.8481548,2286,2880,5
1789469727.850303,2478,2883,5
1789469727.852619,2229,2880,5
1789469727.8538198,2013,2879,5
1789469727.856375,2062,2880,5
1789469727.857669,2198,2879,5
1789469727.860223,2063,2879,5
1789469727.865087,1874,2879,5
1789469727.865648,1978,2879,5
1789469727.866932,1988,2879,5
1789469727.868186,2074,2879,5
1789469727.869974,1938,2879,5
1789469727.876246,2209,2878,5
1789469727.876429,2327,2881,5
1789469727.876537,2108,2881,5
1789469727.878321,1976,2879,5
1789469727.879627,1972,2879,5
1789469727.882192,2233,2880,5
1789469727.883562,2328,2878,5
1789469727.8905559,2186,2881,5
1789469727.8910232,2026,2879,5
1789469727.891876,2081,2879,5
1789469727.892292,2038,2879,5
1789469727.893782,1893,2878,5
1789469727.896673,1771,2879,5
1789469727.8989398,2076,2880,5
1789469727.9015622,2128,2880,5
1789469727.9016619,2184,2880,5
1789469727.904632,2032,2879,5
1789469727.9059331,2048,2878,5
1789469727.908011,1983,2880,5
1789469727.910423,1761,2878,5
1789469727.911722,1899,2880,5
1789469727.914289,2170,2879,5
1789469727.916616,2339,2879,5
1789469727.917921,2349,2881,5
1789469727.9202318,2124,2879,5
1789469727.921747,1948,2879,5
1789469727.924062,2104,2879,5
1789469727.926147,1824,2877,5
1789469727.9287412,1889,2879,5
1789469727.9299588,1905,2879,5
1789469727.932481,2334,2878,5
1789469727.933567,2136,2878,5
1789469727.935851,2050,2881,5
1789469727.937987,2027,2878,5
1789469727.940469,2118,2879,5
1789469727.9417741,2046,2881,5
1789469727.944329,1993,2879,5
1789469727.946482,2108,2879,5
1789469727.947775,2219,2879,5
1789469727.950353,2255,2880,5
1789469727.951684,1946,2880,5
1789469727.95406,2024,2879,5
1789469727.956137,2019,2879,5
1789469727.958653,1937,2878,5
1789469727.95971,1948,2878,5
1789469727.961932,2090,2879,5
1789469727.968857,2127,2879,5
1789469727.968956,2076,2879,5
1789469727.9695308,2243,2880,5
1789469727.9708831,2161,2878,5
1789469727.973757,1848,2879,5
1789469727.974592,2129,2879,5
1789469727.9761522,2122,2879,5
1789469727.978246,1779,2878,5
1789469727.980923,2039,2879,5
1789469727.9830558,2107,2879,5
1789469727.984121,2262,2881,5
1789469727.986689,2189,2879,5
1789469727.987865,2073,2879,5
1789469727.9899461,2175,2879,5
1789469727.994496,2290,2879,5
1789469727.995241,1925,2877,5
1789469727.997372,1912,2879,5
1789469727.999276,2119,2880,5
1789469728.0015051,2154,2878,5
1789469728.0029492,2056,2879,5
1789469728.005655,1972,2879,5
1789469728.005791,2179,2879,5
1789469728.0079958,2246,2880,5
1789469728.010565,1930,2878,5
1789469728.011622,1837,2878,5
1789469728.014176,2023,2878,5
1789469728.016495,2238,2879,5
1789469728.017558,2124,2880,5
1789469728.0201101,2087,2880,5
1789469728.02266,2082,2879,5
1789469728.023956,2242,2879,5
1789469728.026452,2038,2880,5
1789469728.027536,1810,2879,5
1789469728.030089,1882,2879,5
1789469728.032344,2153,2879,5
1789469728.03364,2237,2882,5
1789469728.036188,2134,2879,5
1789469728.037544,1978,2879,5
1789469728.039713,2071,2880,5
1789469728.041777,2154,2880,5
1789469728.044223,1900,2879,5
1789469728.045542,1898,2879,5
1789469728.0478568,2126,2879,5
1789469728.050223,2244,2880,5
1789469728.052526,2121,2880,5
1789469728.0535731,1920,2877,5
1789469728.056115,2081,2879,5
1789469728.0586739,2320,2880,5
1789469728.059968,1983,2877,5
1789469728.062172,1813,2880,5
1789469728.0635421,2028,2879,5
1789469728.065848,2376,2879,5
1789469728.07073,2235,2880,5
1789469728.071212,2099,2879,5
1789469728.073545,2074,2879,5
1789469728.075018,2222,2879,5
1789469728.0770519,2067,2880,5
1789469728.078611,1943,2878,5
1789469728.081177,1998,2879,5
1789469728.08317,2098,2880,5
1789469728.084474,2156,2878,5
1789469728.085767,2012,2878,5
1789469728.08789,1916,2878,5
1789469728.094569,2057,2879,5
1789469728.094691,2119,2879,5
1789469728.0951219,1969,2877,5
1789469728.096687,1861,2879,5
1789469728.0985339,2188,2879,5
1789469728.1000938,2466,2882,5
1789469728.1016908,2190,2880,5
1789469728.104266,1929,2879,5
1789469728.106308,2006,2879,5
1789469728.108626,2304,2879,5
1789469728.109916,1878,2878,5
1789469728.112225,1757,2879,5
1789469728.114563,2047,2880,5
1789469728.115627,2245,2878,5
1789469728.117928,2092,2877,5
1789469728.1202402,2033,2878,5
1789469728.1215749,1963,2878,5
1789469728.124025,2261,2880,5
1789469728.126384,2013,2880,5
1789469728.127506,1716,2877,5
1789469728.130058,1824,2880,5
1789469728.1326048,2303,2879,5
1789469728.133899,2402,2882,5
1789469728.13621,2113,2881,5
1789469728.138517,1848,2880,5
1789469728.139807,1892,2879,5
1789469728.1421068,1957,2880,5
1789469728.144424,1927,2877,5
1789469728.145715,1956,2878,5
1789469728.1482592,2034,2881,5
1789469728.1503239,2078,2879,5
1789469728.152622,2328,2881,5
1789469728.153671,1959,2880,5
1789469728.1559749,1954,2879,5
1789469728.1584241,2197,2879,5
1789469728.1595352,2169,2881,5
1789469728.161847,1926,2879,5
1789469728.166544,2138,2880,5
1789469728.166667,2228,2878,5
1789469728.169139,2014,2878,5
1789469728.171059,1757,2878,5
1789469728.1729631,1964,2878,5
1789469728.174412,2143,2879,5
1789469728.1769228,2036,2880,5
1789469728.178921,1630,2877,5
1789469728.179968,1876,2879,5
1789469728.182517,1999,2879,5
1789469728.18358,2307,2881,5
1789469728.1900558,2182,2880,5
1789469728.190166,2168,2879,5
1789469728.191384,1824,2878,5
1789469728.191874,2327,2880,5
1789469728.194475,1771,2877,5
1789469728.196385,1576,2878,5
1789469728.198019,2171,2879,5
1789469728.200525,2107,2879,5
1789469728.2026381,1754,2877,5
1789469728.203704,2393,2880,5
1789469728.206027,1659,2878,5
1789469728.208352,2192,2879,5
1789469728.209656,1966,2877,5
1789469728.212215,1522,2879,5
1789469728.2145238,2265,2881,5
1789469728.215817,2112,2880,5
1789469728.2181199,2110,2881,5
1789469728.219481,2229,2879,5
1789469728.222046,1946,2880,5
1789469728.224622,1504,2877,5
1789469728.225918,1985,2880,5
1789469728.228471,2545,2881,5
1789469728.2297611,2130,2879,5
1789469728.232245,2304,2879,5
1789469728.23354,1712,2878,5
1789469728.236087,1770,2877,5
1789469728.2387369,1634,2877,5
1789469728.239834,1840,2879,5
1789469728.242385,2050,2879,5
1789469728.243676,1659,2876,5
1789469728.2459772,1658,2879,5
1789469728.2482822,2473,2879,5
1789469728.249551,2406,2881,5
1789469728.252112,1917,2878,5
1789469728.254664,1978,2880,5
1789469728.2559528,1802,2878,5
1789469728.2582788,2044,2879,5
1789469728.25949,2172,2879,5
1789469728.265907,1210,2876,5
1789469728.2664661,1988,2879,5
1789469728.266902,2540,2880,5
1789469728.268358,2133,2880,5
1789469728.2706182,2112,2880,5
1789469728.272265,2295,2880,5
1789469728.2762072,2528,2881,5
1789469728.276366,1748,2878,5
1789469728.2783859,1526,2879,5
1789469728.2794821,2130,2878,5
1789469728.281798,2205,2879,5
1789469728.284106,2199,2880,5
1789469728.286489,2016,2879,5
1789469728.287543,1862,2879,5
1789469728.2898839,2208,2880,5
1789469728.292085,2541,2881,5
1789469728.2973702,1613,2877,5
1789469728.297853,1668,2879,5
1789469728.297929,2151,2880,5
1789469728.300053,2087,2879,5
1789469728.30246,1681,2877,5
1789469728.305391,1626,2879,5
1789469728.30555,1891,2879,5
1789469728.308347,1992,2879,5
1789469728.310118,1892,2877,5
1789469728.311498,2011,2879,5
1789469728.31356,2064,2879,5
1789469728.3161118,2291,2880,5
1789469728.318444,2149,2880,5
1789469728.319498,1535,2876,5
1789469728.322047,1643,2877,5
1789469728.3243468,2540,2880,5
1789469728.325637,2503,2882,5
1789469728.328183,2117,2880,5
1789469728.330486,1811,2878,5
1789469728.331539,1786,2880,5
1789469728.333856,2120,2880,5
1789469728.3359182,2574,2881,5
1789469728.3382201,1820,2879,5
1789469728.339512,1785,2880,5
1789469728.341828,2052,2879,5
1789469728.344382,1820,2878,5
1789469728.3456771,1835,2879,5
1789469728.348145,2268,2879,5
1789469728.349466,2285,2879,5
1789469728.351796,2087,2880,5
1789469728.354078,2215,2881,5
1789469728.356162,2005,2879,5
1789469728.35748,2343,2880,5
1789469728.359545,1653,2877,5
1789469728.361611,1799,2878,5
1789469728.363932,2083,2879,5
1789469728.366126,2251,2880,5
1789469728.368452,2261,2881,5
1789469728.373562,1903,2878,5
1789469728.374528,1878,2879,5
1789469728.375339,2155,2879,5
1789469728.3780348,2096,2880,5
1789469728.37844,1957,2879,5
1789469728.380037,1778,2878,5
1789469728.381681,2364,2880,5
1789469728.384428,2340,2880,5
1789469728.386558,1940,2880,5
1789469728.387867,2041,2879,5
1789469728.390423,2273,2880,5
1789469728.391551,1986,2879,5
1789469728.394111,2244,2880,5
1789469728.3995469,1760,2880,5
1789469728.400011,2086,2879,5
1789469728.400478,2321,2882,5
1789469728.402399,2267,2881,5
1789469728.404247,2151,2879,5
1789469728.405826,2231,2881,5
1789469728.410055,2389,2880,5
1789469728.410197,1945,2879,5
1789469728.4122822,1908,2879,5
1789469728.4135811,1760,2879,5
1789469728.415892,2090,2879,5
1789469728.418205,2098,2878,5
1789469728.419499,2350,2880,5
1789469728.422055,2232,2880,5
1789469728.4243279,2526,2880,5
1789469728.426634,1797,2876,5
1789469728.427925,1583,2878,5
1789469728.4302258,2418,2879,5
1789469728.431516,2507,2878,5
1789469728.434062,2482,2881,5
1789469728.436519,2123,2878,5
1789469728.4378119,1974,2877,5
1789469728.440362,2035,2879,5
1789469728.4415581,2227,2881,5
1789469728.44387,1902,2878,5
1789469728.4464152,2252,2879,5
1789469728.447489,2012,2880,5
1789469728.449802,2471,2881,5
1789469728.451859,2291,2880,5
1789469728.4544058,2019,2879,5
1789469728.4556959,2146,2880,5
1789469728.458,2327,2881,5
1789469728.460546,2111,2878,5
1789469728.461837,1882,2878,5
1789469728.464139,2000,2880,5
1789469728.4654741,2189,2880,5
1789469728.4677892,2377,2880,5
1789469728.470119,2089,2880,5
1789469728.4725041,2031,2879,5
1789469728.473556,2322,2880,5
1789469728.4758599,1955,2879,5
1789469728.478372,1954,2878,5
1789469728.482702,2116,2880,5
1789469728.483117,2192,2880,5
1789469728.485142,2207,2880,5
1789469728.487095,2073,2879,5
1789469728.488375,2018,2880,5
1789469728.490368,2186,2879,5
1789469728.49313,2128,2880,5
1789469728.4950862,1590,2879,5
1789469728.496395,1884,2880,5
1789469728.497689,2274,2879,5
1789469728.500244,2184,2878,5
1789469728.501597,2037,2880,5
1789469728.506912,1942,2878,5
1789469728.507075,1882,2879,5
1789469728.5092149,2206,2879,5
1789469728.510908,2219,2880,5
1789469728.512554,1795,2879,5
1789469728.5144918,2269,2879,5
1789469728.5173068,2329,2878,5
1789469728.51747,2117,2881,5
1789469728.520187,1952,2879,5
1789469728.522488,2048,2879,5
1789469728.523852,2210,2881,5
1789469728.5261672,2010,2880,5
1789469728.528297,1922,2879,5
1789469728.529598,2045,2881,5
1789469728.531905,2207,2881,5
1789469728.534451,2221,2881,5
1789469728.5354948,2002,2880,5
1789469728.538528,1770,2878,5
1789469728.5398211,2258,2879,5
1789469728.542144,2403,2881,5
1789469728.543492,1841,2878,5
1789469728.5460439,1823,2877,5
1789469728.548589,2017,2879,5
1789469728.5496361,2245,2879,5
1789469728.552011,2231,2880,5
1789469728.553484,2007,2879,5
1789469728.555805,1887,2879,5
1789469728.558354,2126,2879,5
1789469728.559647,1891,2878,5
1789469728.562143,1754,2879,5
1789469728.563479,2125,2880,5
1789469728.565801,2408,2879,5
1789469728.568347,2336,2881,5
1789469728.56948,2193,2880,5
1789469728.5715652,1986,2878,5
1789469728.5741172,2132,2879,5
1789469728.5767329,2101,2880,5
1789469728.5817559,1890,2879,5
1789469728.582203,1899,2879,5
1789469728.582709,2046,2880,5
1789469728.584474,2243,2880,5
1789469728.586504,2135,2880,5
1789469728.5885382,2061,2878,5
1789469728.590057,2036,2880,5
1789469728.593035,1943,2881,5
1789469728.5950232,2056,2878,5
1789469728.5963242,2135,2879,5
1789469728.5976179,2132,2880,5
1789469728.60017,2187,2879,5
1789469728.601501,2002,2878,5
1789469728.605736,1944,2880,5
1789469728.607231,2081,2879,5
1789469728.6099641,2025,2880,5
1789469728.610728,1874,2878,5
1789469728.6123562,1855,2879,5
1789469728.613718,2231,2879,5
1789469728.616579,2257,2880,5
1789469728.618578,2188,2881,5
1789469728.6196322,2105,2879,5
1789469728.621944,1892,2879,5
1789469728.624094,2331,2880,5
1789469728.625441,2059,2879,5
1789469728.6277592,1723,2879,5
1789469728.630068,2025,2881,5
1789469728.632333,2258,2878,5
1789469728.633436,1936,2878,5
1789469728.635607,1994,2880,5
1789469728.6380942,2119,2878,5
1789469728.640543,2031,2879,5
1789469728.641595,2267,2879,5
1789469728.643938,2265,2881,5
1789469728.64625,1915,2879,5
1789469728.648386,1954,2880,5
1789469728.6496792,2142,2878,5
1789469728.651742,1957,2877,5
1789469728.654159,2133,2879,5
1789469728.6562161,1970,2878,5
1789469728.658366,1844,2878,5
1789469728.659416,1648,2877,5
1789469728.661524,1747,2878,5
1789469728.663836,2265,2879,5
1789469728.666139,2266,2878,5
1789469728.668448,2134,2880,5
1789469728.66975,2126,2881,5
1789469728.6723042,1945,2879,5
1789469728.6733599,2255,2880,5
1789469728.679424,1982,2880,5
1789469728.679927,1787,2878,5
1789469728.680416,1606,2878,5
1789469728.682011,2198,2879,5
1789469728.683842,2300,2881,5
1789469728.6870039,2032,2881,5
1789469728.690044,1928,2878,5
1789469728.690197,2129,2879,5
1789469728.6922581,2099,2880,5
1789469728.693564,1972,2878,5
1789469728.696028,2199,2879,5
1789469728.69841,2106,2881,5
1789469728.702915,2048,2879,5
1789469728.703344,2018,2879,5
1789469728.703722,1843,2878,5
1789469728.7054179,1921,2879,5
1789469728.7082229,2122,2880,5
1789469728.710508,1587,2877,5
1789469728.713375,1818,2878,5
1789469728.713557,2443,2879,5
1789469728.716398,2163,2879,5
1789469728.717515,1908,2878,5
1789469728.720066,2169,2879,5
1789469728.721359,2356,2879,5
1789469728.723961,2165,2879,5
1789469728.726285,2029,2878,5
1789469728.727577,1955,2877,5
1789469728.729938,1985,2880,5
1789469728.732497,2237,2881,5
1789469728.7337952,2224,2878,5
1789469728.736099,2017,2880,5
1789469728.737395,2003,2879,5
1789469728.7399418,2164,2879,5
1789469728.74217,2214,2879,5
1789469728.7444859,1926,2877,5
1789469728.745707,1598,2878,5
1789469728.748016,2006,2880,5
1789469728.7503722,2811,2883,5
1789469728.751432,1985,2880,5
1789469728.754221,1840,2879,5
1789469728.7555149,1963,2879,5
1789469728.757822,2245,2880,5
1789469728.7600691,2096,2881,5
1789469728.762372,1829,2879,5
1789469728.763665,1857,2879,5
1789469728.766111,2015,2879,5
1789469728.767404,2433,2881,5
1789469728.769952,2276,2880,5
1789469728.7758348,1903,2878,5
1789469728.7759402,2061,2879,5
1789469728.777537,2099,2879,5
1789469728.778839,1949,2878,5
1789469728.780768,1952,2879,5
1789469728.782603,2125,2880,5
1789469728.7867992,2127,2878,5
1789469728.7871768,2028,2880,5
1789469728.7892559,1829,2879,5
1789469728.789292,2145,2879,5
1789469728.7918441,2188,2880,5
1789469728.794393,1841,2878,5
1789469728.799529,2013,2880,5
1789469728.799972,2376,2880,5
1789469728.800448,2466,2882,5
1789469728.8023958,2207,2881,5
1789469728.803949,1932,2880,5
1789469728.807334,2038,2879,5
1789469728.807502,2194,2880,5
1789469728.810445,1848,2878,5
1789469728.812368,1819,2879,5
1789469728.8136792,2047,2880,5
1789469728.815993,2248,2880,5
1789469728.817287,2071,2880,5
1789469728.819602,2132,2879,5
1789469728.821923,2246,2880,5
1789469728.824231,2132,2880,5
1789469728.8255239,1962,2880,5
1789469728.827978,1698,2878,5
1789469728.8293178,2113,2879,5
1789469728.831637,2261,2880,5
1789469728.8341818,2097,2878,5
1789469728.835476,2173,2878,5
1789469728.837705,2040,2878,5
1789469728.840252,2085,2879,5
1789469728.8415492,2083,2878,5
1789469728.843779,2036,2877,5
1789469728.846334,2029,2879,5
1789469728.8476238,2240,2880,5
1789469728.8499358,2253,2880,5
1789469728.851292,1982,2880,5
1789469728.8538392,1888,2879,5
1789469728.856056,1915,2878,5
1789469728.85831,2241,2879,5
1789469728.859445,1981,2877,5
1789469728.861749,1944,2879,5
1789469728.8640609,2082,2880,5
1789469728.866123,2145,2879,5
1789469728.86742,2151,2880,5
1789469728.872969,2021,2879,5
1789469728.873479,2129,2879,5
1789469728.873921,2357,2880,5
1789469728.87561,2096,2881,5
1789469728.87853,1859,2878,5
1789469728.880564,1966,2881,5
1789469728.883394,2173,2878,5
1789469728.883559,2189,2878,5
1789469728.886249,2078,2880,5
1789469728.887542,1973,2878,5
1789469728.889608,2103,2879,5
1789469728.8954391,2162,2879,5
1789469728.8961039,1990,2877,5
1789469728.89653,1953,2880,5
1789469728.897739,2203,2880,5
1789469728.901147,2331,2878,5
1789469728.902442,2196,2879,5
1789469728.905237,2058,2879,5
1789469728.905388,2043,2878,5
1789469728.9080892,2215,2880,5
1789469728.910153,1987,2878,5
1789469728.911277,1827,2879,5
1789469728.9134789,2025,2879,5
1789469728.9160461,2281,2879,5
1789469728.9173381,2269,2881,5
1789469728.9198332,2073,2880,5
1789469728.922379,1979,2878,5
1789469728.92343,2219,2880,5
1789469728.9259741,2169,2881,5
1789469728.9280362,1841,2877,5
1789469728.929325,1942,2881,5
1789469728.931629,2223,2880,5
1789469728.934177,2334,2880,5
1789469728.935464,2158,2879,5
1789469728.937763,1988,2879,5
1789469728.94006,2013,2879,5
1789469728.9413528,2103,2879,5
1789469728.943897,1905,2878,5
1789469728.9452858,1990,2879,5
1789469728.9476092,2100,2879,5
1789469728.950028,2246,2879,5
1789469728.951317,2142,2880,5
1789469728.953862,2035,2879,5
1789469728.956408,2022,2879,5
1789469728.957696,2244,2881,5
1789469728.96002,2017,2877,5
1789469728.966433,1895,2880,5
1789469728.966899,2071,2879,5
1789469728.967911,2275,2878,5
1789469728.969145,2232,2881,5
1789469728.9708831,2095,2879,5
1789469728.973121,1993,2878,5
1789469728.975014,2121,2880,5
1789469728.9779599,2029,2880,5
1789469728.9781451,1763,2877,5
1789469728.97996,1940,2879,5
1789469728.981289,2251,2880,5
1789469728.9838479,2336,2881,5
1789469728.9862368,2211,2880,5
1789469728.987284,2032,2879,5
1789469728.992956,2132,2880,5
1789469728.994436,2215,2880,5
1789469728.9959118,1932,2878,5
1789469728.996205,1877,2879,5
1789469728.998007,2169,2879,5
1789469729.00112,2220,2879,5
1789469729.003998,2091,2880,5
1789469729.004147,2031,2879,5
1789469729.006339,2082,2881,5
1789469729.0073931,2237,2880,5
1789469729.010022,2097,2880,5
1789469729.0113258,1975,2879,5
1789469729.0133991,2081,2880,5
1789469729.015714,2257,2879,5
1789469729.018025,2250,2881,5
1789469729.020092,2112,2879,5
1789469729.0213828,1998,2879,5
1789469729.02369,2133,2879,5
1789469729.0257978,2061,2879,5
1789469729.027872,1926,2879,5
1789469729.0299451,1984,2880,5
1789469729.032015,2160,2878,5
1789469729.034081,2221,2878,5
1789469729.036395,2089,2881,5
1789469729.03774,2022,2879,5
1789469729.040083,2118,2879,5
1789469729.041377,2125,2878,5
1789469729.043927,1836,2877,5
1789469729.04529,1904,2879,5
1789469729.04785,2210,2880,5
1789469729.0504,2365,2879,5
1789469729.0516942,2177,2880,5
1789469729.0541608,2045,2878,5
1789469729.0554519,2045,2878,5
1789469729.058002,2218,2880,5
1789469729.060313,2078,2879,5
1789469729.061603,1976,2879,5
1789469729.063783,2259,2881,5
1789469729.070592,2326,2880,5
1789469729.071023,2291,2881,5
1789469729.0725708,2215,2880,5
1789469729.0739489,2021,2878,5
1789469729.074388,2169,2879,5
1789469729.075914,2148,2880,5
1789469729.077892,1922,2877,5
1789469729.080714,1934,2878,5
1789469729.082307,2204,2879,5
1789469729.083605,2214,2878,5
1789469729.0861518,2168,2881,5
1789469729.087353,2073,2879,5
1789469729.09,2142,2879,5
1789469729.092351,2162,2880,5
1789469729.097007,1878,2877,5
1789469729.097461,2063,2879,5
1789469729.098228,2312,2880,5
1789469729.099639,2443,2880,5
1789469729.102586,2254,2879,5
1789469729.104471,2025,2879,5
1789469729.1073248,2038,2879,5
1789469729.1073978,2306,2880,5
1789469729.109867,2124,2879,5
1789469729.112169,1980,2879,5
1789469729.1132522,2108,2880,5
1789469729.115583,2212,2879,5
1789469729.1177971,2205,2881,5
1789469729.1201081,2049,2878,5
1789469729.121403,1938,2880,5
1789469729.123467,2140,2881,5
1789469729.125772,2182,2879,5
1789469729.128264,1926,2880,5
1789469729.1295612,1999,2880,5
1789469729.132107,2142,2878,5
1789469729.133397,2311,2880,5
1789469729.135705,2170,2881,5
1789469729.138248,2129,2880,5
1789469729.139536,2166,2879,5
1789469729.1420841,2313,2880,5
1789469729.143374,2087,2878,5
1789469729.1456761,2055,2879,5
1789469729.1481159,2273,2879,5
1789469729.149278,2385,2881,5
1789469729.1513422,2249,2880,5
1789469729.153889,2158,2880,5
1789469729.1561978,2070,2879,5
1789469729.157488,2350,2880,5
1789469729.16003,2063,2880,5
1789469729.162099,1899,2878,5
1789469729.1633458,2176,2880,5
1789469729.165704,2362,2880,5
1789469729.170603,2346,2881,5
1789469729.1707258,2167,2879,5
1789469729.172512,2025,2877,5
1789469729.174029,2215,2880,5
1789469729.1755211,2202,2879,5
1789469729.177564,2001,2879,5
1789469729.180299,2051,2879,5
1789469729.182175,2272,2879,5
1789469729.1834712,2361,2880,5
1789469729.185781,2218,2879,5
1789469729.188328,2109,2880,5
1789469729.189617,2168,2879,5
1789469729.19212,2370,2879,5
1789469729.1981351,2111,2878,5
1789469729.198554,1995,2879,5
1789469729.199025,2231,2880,5
1789469729.2004852,2319,2878,5
1789469729.202323,2209,2879,5
1789469729.2084951,2074,2878,5
1789469729.2086248,2090,2879,5
1789469729.208749,2204,2880,5
1789469729.210708,1999,2877,5
1789469729.2117639,1912,2879,5
1789469729.214315,2088,2880,5
1789469729.215369,2354,2879,5
1789469729.2177532,2216,2880,5
1789469729.220116,1998,2879,5
1789469729.22143,1951,2878,5
1789469729.223737,2200,2880,5
1789469729.226049,2125,2880,5
1789469729.2272341,1980,2878,5
1789469729.229781,2029,2879,5
1789469729.2319202,2171,2880,5
1789469729.233254,2229,2878,5
1789469729.235799,2226,2880,5
1789469729.238183,2065,2880,5
1789469729.239274,2260,2879,5
1789469729.241576,2287,2880,5
1789469729.243693,1895,2878,5
1789469729.246241,1901,2879,5
1789469729.247531,2144,2880,5
1789469729.24984,2263,2878,5
1789469729.2519538,2196,2881,5
1789469729.2540228,2054,2879,5
1789469729.2553139,2013,2879,5
1789469729.257658,2270,2880,5
1789469729.260268,2103,2880,5
1789469729.261559,1954,2879,5
1789469729.2641048,2112,2879,5
1789469729.2652469,2208,2879,5
1789469729.2673259,2165,2878,5
1789469729.273133,2030,2879,5
1789469729.273262,1927,2878,5
1789469729.274106,2152,2878,5
1789469729.275753,2195,2879,5
1789469729.278599,1970,2878,5
1789469729.2808619,1963,2879,5
1789469729.283684,2168,2880,5
1789469729.283911,2329,2879,5
1789469729.285855,2143,2880,5
1789469729.287217,2020,2879,5
1789469729.289278,2027,2878,5
1789469729.291428,2081,2879,5
1789469729.2972429,1872,2877,5
1789469729.298393,1881,2879,5
1789469729.2996202,2133,2879,5
1789469729.299847,2288,2878,5
1789469729.301611,2172,2880,5
1789469729.304655,2009,2879,5
1789469729.307349,2023,2879,5
1789469729.307436,2178,2880,5
1789469729.310216,1948,2877,5
1789469729.311268,1854,2878,5
1789469729.313817,2094,2880,5
1789469729.3158872,2291,2880,5
1789469729.318209,2250,2881,5
1789469729.319509,2082,2879,5
1789469729.322009,2010,2879,5
1789469729.3243148,2161,2879,5
1789469729.3256042,2110,2880,5
1789469729.328151,1923,2877,5
1789469729.329441,1968,2879,5
1789469729.331987,2167,2878,5
1789469729.3332758,2230,2879,5
1789469729.335822,2090,2879,5
1789469729.3381288,1983,2879,5
1789469729.339422,2061,2879,5
1789469729.341562,2151,2879,5
1789469729.343866,1975,2878,5
1789469729.346185,1939,2878,5
1789469729.3472362,2165,2879,5
1789469729.349795,2256,2879,5
1789469729.35234,2162,2879,5
1789469729.353385,2068,2879,5
1789469729.355801,2049,2878,5
1789469729.357942,2177,2879,5
1789469729.359252,2007,2879,5
1789469729.361577,1877,2879,5
1789469729.3639839,2044,2880,5
1789469729.369057,2184,2879,5
1789469729.369896,2203,2881,5
1789469729.370414,2062,2878,5
1789469729.372322,2026,2880,5
1789469729.373887,2186,2879,5
1789469729.375713,2159,2880,5
1789469729.37726,1925,2878,5
1789469729.379852,1968,2879,5
1789469729.38174,2157,2878,5
1789469729.384295,2203,2880,5
1789469729.385587,2108,2880,5
1789469729.391496,2015,2879,5
1789469729.391894,2091,2880,5
1789469729.392527,2174,2880,5
1789469729.3936992,1947,2878,5
1789469729.396866,1902,2878,5
1789469729.3984692,2132,2880,5
1789469729.400984,2234,2878,5
1789469729.4025018,2156,2880,5
1789469729.403797,2038,2878,5
1789469729.406098,2009,2878,5
1789469729.407219,2132,2879,5
1789469729.409537,2011,2879,5
1789469729.4120939,1876,2878,5
1789469729.413384,1998,2880,5
1789469729.41593,2186,2879,5
1789469729.418006,2172,2880,5
1789469729.419295,2052,2880,5
1789469729.4215949,2016,2878,5
1789469729.4240232,2118,2879,5
1789469729.4263291,2087,2879,5
1789469729.42737,1948,2879,5
1789469729.4295611,1972,2879,5
1789469729.4318569,2162,2879,5
1789469729.4339771,2232,2878,5
1789469729.43628,2114,2881,5
1789469729.437335,2001,2879,5
1789469729.439639,2087,2879,5
1789469729.4417012,2188,2879,5
1789469729.4440079,1972,2878,5
1789469729.4462981,1928,2879,5
1789469729.44734,2143,2879,5
1789469729.449655,2235,2879,5
1789469729.452197,2170,2879,5
1789469729.453253,2010,2879,5
1789469729.4598,1957,2878,5
1789469729.4605708,2174,2880,5
1789469729.4609869,2012,2879,5
1789469729.462353,1888,2879,5
1789469729.464504,2022,2880,5
1789469729.466188,2170,2879,5
1789469729.467463,2193,2880,5
1789469729.469971,2085,2879,5
1789469729.471802,2068,2880,5
1789469729.474108,2159,2880,5
1789469729.4753978,2069,2879,5
1789469729.4774542,1899,2878,5
1789469729.483485,1985,2879,5
1789469729.483561,2219,2880,5
1789469729.483927,2317,2882,5
1789469729.486599,2200,2879,5
1789469729.488012,1989,2879,5
1789469729.489583,2064,2879,5
1789469729.491898,2195,2879,5
1789469729.4938161,1976,2877,5
1789469729.49519,1929,2879,5
1789469729.497508,2073,2879,5
1789469729.49982,2196,2879,5
1789469729.5019178,2132,2878,5
1789469729.5032141,1995,2878,5
1789469729.505762,2039,2880,5
1789469729.5080168,2124,2880,5
1789469729.5093088,1987,2879,5
1789469729.5118248,1915,2878,5
1789469729.513244,2105,2880,5
1789469729.515799,2309,2878,5
1789469729.5181062,2224,2881,5
1789469729.519205,2026,2879,5
1789469729.521749,1972,2879,5
1789469729.5243058,2113,2879,5
1789469729.5255969,2158,2880,5
1789469729.528147,1950,2878,5
1789469729.52944,2025,2879,5
1789469729.531989,2233,2880,5
1789469729.533277,2172,2878,5
1789469729.5355752,2073,2879,5
1789469729.537763,1936,2879,5
1789469729.540072,2025,2878,5
1789469729.5413592,2197,2879,5
1789469729.543416,2109,2880,5
1789469729.545465,1961,2879,5
1789469729.5518022,1754,2880,5
1789469729.551904,2171,2880,5
1789469729.5525749,2276,2880,5
1789469729.554316,2072,2880,5
1789469729.5561228,1987,2878,5
1789469729.5580459,2337,2880,5
1789469729.561735,1986,2880,5
1789469729.561874,1922,2878,5
1789469729.5637279,2007,2879,5
1789469729.566048,2218,2880,5
1789469729.567198,2270,2881,5
1789469729.569315,2149,2880,5
1789469729.573534,2003,2879,5
1789469729.5739589,2160,2880,5
1789469729.575937,2062,2880,5
1789469729.577337,1895,2877,5
1789469729.58065,1975,2879,5
1789469729.583044,2352,2879,5
1789469729.584898,2034,2877,5
1789469729.586198,2060,2878,5
1789469729.5874891,2209,2880,5
1789469729.590007,2036,2879,5
1789469729.591297,2110,2878,5
1789469729.593398,1772,2877,5
1789469729.5954711,1779,2879,5
1789469729.59804,1974,2879,5
1789469729.5993412,2407,2881,5
1789469729.6018891,2361,2880,5
1789469729.603188,2163,2879,5
1789469729.605695,1949,2879,5
1789469729.608011,2091,2879,5
1789469729.6092339,2033,2879,5
1789469729.6115499,1914,2879,5
1789469729.61412,2011,2878,5
1789469729.615417,2159,2879,5
1789469729.617968,2117,2880,5
1789469729.6201642,1912,2879,5
1789469729.621238,1858,2879,5
1789469729.623793,1949,2879,5
1789469729.626177,2219,2879,5
1789469729.6272252,2077,2879,5
1789469729.62978,1947,2880,5
1789469729.6323042,2039,2878,5
1789469729.633593,2145,2878,5
1789469729.635902,2288,2880,5
1789469729.6382039,2274,2880,5
1789469729.639256,2084,2879,5
1789469729.6453362,2179,2879,5
1789469729.6457868,1989,2879,5
1789469729.647605,1928,2880,5
1789469729.647736,1973,2879,5
1789469729.649919,2103,2878,5
1789469729.6526458,2094,2880,5
1789469729.655147,1904,2878,5
1789469729.655366,1845,2880,5
1789469729.6577868,2046,2880,5
1789469729.6603389,2166,2879,5
1789469729.661629,1981,2878,5
1789469729.6666582,2015,2880,5
1789469729.667074,2010,2879,5
