timestamp,ch1,ch2,label
1789469802.879864,2154,2879,7_S
1789469802.882716,2022,2878,7_S
1789469802.8831239,1980,2878,7_S
1789469802.885213,2108,2880,7_S
1789469802.886934,2174,2879,7_S
1789469802.888653,2135,2879,7_S
1789469802.8905752,2023,2879,7_S
1789469802.8933,2053,2878,7_S
1789469802.894604,2176,2879,7_S
1789469802.896968,2057,2880,7_S
1789469802.899549,1973,2878,7_S
1789469802.900852,2051,2879,7_S
1789469802.903154,2145,2879,7_S
1789469802.904444,2173,2879,7_S
1789469802.9069881,2080,2878,7_S
1789469802.909399,2038,2879,7_S
1789469802.910688,2125,2878,7_S
1789469802.9129589,2100,2880,7_S
1789469802.9152582,1967,2879,7_S
1789469802.916545,1976,2878,7_S
1789469802.919086,2131,2879,7_S
1789469802.9203908,2217,2879,7_S
1789469802.922934,2143,2879,7_S
1789469802.925028,2055,2879,7_S
1789469802.927247,2087,2879,7_S
1789469802.928396,2130,2878,7_S
1789469802.9309518,1974,2877,7_S
1789469802.933249,1919,2880,7_S
1789469802.934537,2109,2879,7_S
1789469802.9368389,2160,2879,7_S
1789469802.9389062,2110,2880,7_S
1789469802.9414558,2037,2880,7_S
1789469802.942744,2074,2879,7_S
1789469802.9477608,2163,2879,7_S
1789469802.948245,2054,2880,7_S
1789469802.9486861,1960,2878,7_S
1789469802.951909,1999,2879,7_S
1789469802.953072,2168,2879,7_S
1789469802.9549592,2174,2880,7_S
1789469802.95762,2100,2880,7_S
1789469802.959011,2037,2879,7_S
1789469802.9613261,2137,2879,7_S
1789469802.9624078,2084,2879,7_S
1789469802.964715,1978,2877,7_S
1789469802.96702,2003,2879,7_S
1789469802.9695702,2173,2879,7_S
1789469802.97086,2191,2878,7_S
1789469802.9731562,2108,2879,7_S
1789469802.9744442,2041,2878,7_S
1789469802.976741,2108,2879,7_S
1789469802.978796,2143,2879,7_S
1789469802.9808588,1973,2878,7_S
1789469802.9831622,1947,2879,7_S
1789469802.984447,2109,2878,7_S
1789469802.986754,2179,2879,7_S
1789469802.989304,2122,2880,7_S
1789469802.990391,2020,2880,7_S
1789469802.992936,2019,2879,7_S
1789469802.99548,2127,2880,7_S
1789469802.996765,2033,2879,7_S
1789469802.999305,1967,2878,7_S
1789469803.000373,2040,2881,7_S
1789469803.002681,2162,2880,7_S
1789469803.005225,2204,2881,7_S
1789469803.0065129,2066,2879,7_S
1789469803.009057,2025,2879,7_S
1789469803.011252,2107,2880,7_S
1789469803.0125608,2061,2879,7_S
1789469803.014876,1990,2878,7_S
1789469803.0171862,2006,2878,7_S
1789469803.018382,2124,2879,7_S
1789469803.0209322,2187,2879,7_S
1789469803.023319,2150,2880,7_S
1789469803.024395,2042,2878,7_S
1789469803.02696,2108,2879,7_S
1789469803.029045,2202,2881,7_S
1789469803.0303931,2032,2878,7_S
1789469803.0327082,1905,2878,7_S
1789469803.034782,2062,2879,7_S
1789469803.0370839,2245,2879,7_S
1789469803.0394728,2082,2879,7_S
1789469803.0439732,2015,2878,7_S
1789469803.044063,2028,2879,7_S
1789469803.0460942,2207,2879,7_S
1789469803.047576,2038,2879,7_S
1789469803.0490901,1626,2879,7_S
1789469803.0508301,2048,2878,7_S
1789469803.053525,2289,2879,7_S
1789469803.0546298,2175,2880,7_S
1789469803.0570722,2005,2879,7_S
1789469803.059131,2244,2880,7_S
1789469803.061194,2316,2880,7_S
1789469803.06267,1956,2879,7_S
1789469803.065234,2004,2879,7_S
1789469803.0665238,2071,2879,7_S
1789469803.069068,2110,2879,7_S
1789469803.071368,2086,2880,7_S
1789469803.072583,2006,2878,7_S
1789469803.075129,1957,2878,7_S
1789469803.077431,2023,2879,7_S
1789469803.078484,2316,2880,7_S
1789469803.0807848,2375,2879,7_S
1789469803.083193,1756,2880,7_S
1789469803.084481,1997,2878,7_S
1789469803.087242,2691,2881,7_S
1789469803.088358,2074,2878,7_S
1789469803.09093,1695,2877,7_S
1789469803.092999,2068,2879,7_S
1789469803.094392,2232,2880,7_S
1789469803.096708,1959,2879,7_S
1789469803.098782,1869,2878,7_S
1789469803.100992,1906,2878,7_S
1789469803.103293,2471,2880,7_S
1789469803.104581,2406,2882,7_S
1789469803.106653,1880,2878,7_S
1789469803.108955,2482,2880,7_S
1789469803.1110022,2203,2879,7_S
1789469803.1168032,1759,2878,7_S
1789469803.1176162,1953,2879,7_S
1789469803.118003,1873,2879,7_S
1789469803.119311,2365,2879,7_S
1789469803.1210759,2218,2880,7_S
1789469803.1225688,2139,2879,7_S
1789469803.126585,2338,2880,7_S
1789469803.1269429,2272,2880,7_S
1789469803.129266,1870,2878,7_S
1789469803.13039,1820,2878,7_S
1789469803.132482,2155,2879,7_S
1789469803.134785,2280,2879,7_S
1789469803.137345,2122,2878,7_S
1789469803.1386108,1961,2879,7_S
1789469803.1411562,2062,2880,7_S
1789469803.1424499,2147,2880,7_S
1789469803.1449971,2274,2879,7_S
1789469803.146369,1567,2878,7_S
1789469803.148428,1699,2878,7_S
1789469803.150975,2197,2879,7_S
1789469803.1533928,2156,2880,7_S
1789469803.1546812,1965,2878,7_S
1789469803.156977,1788,2878,7_S
1789469803.1591392,1987,2879,7_S
1789469803.16138,2156,2879,7_S
1789469803.162428,2193,2879,7_S
1789469803.164493,2151,2879,7_S
1789469803.1665542,2128,2878,7_S
1789469803.1686232,2126,2879,7_S
1789469803.170924,2146,2879,7_S
1789469803.1732259,2058,2880,7_S
1789469803.1745112,2085,2878,7_S
1789469803.17681,2045,2878,7_S
1789469803.1794188,2036,2879,7_S
1789469803.183119,2082,2878,7_S
1789469803.183539,1933,2880,7_S
1789469803.185802,1987,2879,7_S
1789469803.187584,2143,2879,7_S
1789469803.189138,2190,2881,7_S
1789469803.1906712,2083,2879,7_S
1789469803.1935291,2177,2879,7_S
1789469803.194828,2491,2881,7_S
1789469803.197212,2092,2879,7_S
1789469803.198354,2010,2878,7_S
1789469803.204073,2015,2879,7_S
1789469803.204801,2162,2880,7_S
1789469803.204902,1973,2878,7_S
1789469803.208072,2029,2881,7_S
1789469803.2095969,1824,2879,7_S
1789469803.212008,1877,2878,7_S
1789469803.213542,2033,2880,7_S
1789469803.214588,2096,2878,7_S
1789469803.216898,2221,2880,7_S
1789469803.21945,2472,2882,7_S
1789469803.220748,1978,2878,7_S
1789469803.223073,1830,2876,7_S
1789469803.224374,2113,2880,7_S
1789469803.226922,2371,2880,7_S
1789469803.2290392,2195,2878,7_S
1789469803.230398,1835,2877,7_S
1789469803.232712,1863,2879,7_S
1789469803.235258,1960,2878,7_S
1789469803.2363698,2021,2879,7_S
1789469803.2389162,2039,2879,7_S
1789469803.2411652,2082,2879,7_S
1789469803.242451,1998,2879,7_S
1789469803.245003,2074,2879,7_S
1789469803.247434,2042,2879,7_S
1789469803.2487261,1920,2878,7_S
1789469803.2512681,2170,2879,7_S
1789469803.252554,2192,2879,7_S
1789469803.255074,2027,2877,7_S
1789469803.256376,2163,2880,7_S
1789469803.258924,2099,2878,7_S
1789469803.261445,2130,2879,7_S
1789469803.262733,2072,2879,7_S
1789469803.2652779,1766,2877,7_S
1789469803.266656,2036,2879,7_S
1789469803.270686,2096,2879,7_S
1789469803.271413,2243,2879,7_S
1789469803.273237,2219,2880,7_S
1789469803.274622,1978,2879,7_S
1789469803.277706,1997,2880,7_S
1789469803.2790542,1949,2879,7_S
1789469803.2808928,1892,2878,7_S
1789469803.283196,1959,2880,7_S
1789469803.285561,2069,2879,7_S
1789469803.286848,2251,2879,7_S
1789469803.2924118,2136,2881,7_S
1789469803.292904,1937,2878,7_S
1789469803.2936,2070,2879,7_S
1789469803.294736,2162,2879,7_S
1789469803.29732,2020,2880,7_S
1789469803.2994292,1859,2877,7_S
1789469803.30077,1944,2879,7_S
1789469803.3034618,2151,2879,7_S
1789469803.304513,2087,2879,7_S
1789469803.306815,2110,2880,7_S
1789469803.309124,2083,2880,7_S
1789469803.31159,2148,2879,7_S
1789469803.3128839,2043,2880,7_S
1789469803.315188,2051,2878,7_S
1789469803.316479,2065,2880,7_S
1789469803.31877,2513,2881,7_S
1789469803.32108,1931,2878,7_S
1789469803.3223739,2171,2880,7_S
1789469803.324916,2145,2880,7_S
1789469803.326997,2015,2879,7_S
1789469803.329312,2064,2879,7_S
1789469803.330604,1778,2879,7_S
1789469803.3329139,1975,2879,7_S
1789469803.335219,2081,2879,7_S
1789469803.337565,2113,2879,7_S
1789469803.338859,2190,2880,7_S
1789469803.3411689,1982,2879,7_S
1789469803.34246,1991,2879,7_S
1789469803.345012,2138,2879,7_S
1789469803.3463821,1950,2876,7_S
1789469803.3486788,1897,2880,7_S
1789469803.3507788,2181,2878,7_S
1789469803.353323,1912,2878,7_S
1789469803.357454,2191,2881,7_S
1789469803.357826,2230,2879,7_S
1789469803.359971,1911,2878,7_S
1789469803.3617039,2080,2879,7_S
1789469803.363179,2201,2880,7_S
1789469803.3660102,1947,2877,7_S
1789469803.367893,1859,2879,7_S
1789469803.369191,2165,2879,7_S
1789469803.371518,2233,2880,7_S
1789469803.37282,2173,2880,7_S
1789469803.37728,2147,2879,7_S
1789469803.3776681,2106,2879,7_S
1789469803.37971,1977,2879,7_S
1789469803.381494,1963,2878,7_S
1789469803.383351,1936,2879,7_S
1789469803.3845341,2255,2878,7_S
1789469803.3874161,2016,2878,7_S
1789469803.3885272,1894,2877,7_S
1789469803.3908339,2188,2879,7_S
1789469803.393392,2188,2879,7_S
1789469803.394582,2026,2879,7_S
1789469803.396908,2044,2880,7_S
1789469803.3992178,1958,2878,7_S
1789469803.4004428,1982,2879,7_S
1789469803.402735,2127,2880,7_S
1789469803.4050329,2158,2881,7_S
1789469803.406364,2022,2880,7_S
1789469803.4086678,2067,2879,7_S
1789469803.4107819,2232,2880,7_S
1789469803.413342,2046,2881,7_S
1789469803.414635,1869,2878,7_S
1789469803.416748,1922,2878,7_S
1789469803.419292,2087,2879,7_S
1789469803.4205801,2383,2881,7_S
1789469803.422657,2158,2879,7_S
1789469803.424953,2183,2879,7_S
1789469803.427496,2124,2879,7_S
1789469803.428641,2086,2878,7_S
1789469803.430948,2033,2877,7_S
1789469803.433228,2119,2878,7_S
1789469803.4355872,2111,2879,7_S
1789469803.436873,2170,2878,7_S
1789469803.438984,2015,2879,7_S
1789469803.440493,1880,2878,7_S
1789469803.444601,1994,2879,7_S
1789469803.445034,2160,2878,7_S
1789469803.4470751,2245,2881,7_S
1789469803.448737,2028,2878,7_S
1789469803.451712,1983,2879,7_S
1789469803.453266,2291,2878,7_S
1789469803.455199,2232,2880,7_S
1789469803.456497,2214,2879,7_S
1789469803.459046,2029,2878,7_S
1789469803.4603982,2010,2879,7_S
1789469803.465006,2219,2880,7_S
1789469803.465108,1398,2876,7_S
1789469803.467058,2189,2880,7_S
1789469803.468965,2259,2879,7_S
1789469803.471464,2160,2879,7_S
1789469803.473151,1669,2876,7_S
1789469803.474997,1931,2879,7_S
1789469803.477385,2053,2879,7_S
1789469803.478674,2205,2880,7_S
1789469803.481219,2004,2877,7_S
1789469803.482526,2032,2878,7_S
1789469803.484836,2324,2880,7_S
1789469803.48738,2179,2880,7_S
1789469803.4886668,1523,2878,7_S
1789469803.490936,2253,2879,7_S
1789469803.493237,2060,2878,7_S
1789469803.494532,2229,2880,7_S
1789469803.497078,1812,2876,7_S
1789469803.499393,1957,2879,7_S
1789469803.50049,1731,2879,7_S
1789469803.503032,1975,2879,7_S
1789469803.504401,1763,2877,7_S
1789469803.506944,1512,2878,7_S
1789469803.5090141,2553,2881,7_S
1789469803.511317,2956,2882,7_S
1789469803.5126069,1739,2880,7_S
1789469803.5149179,1922,2879,7_S
1789469803.517219,2070,2880,7_S
1789469803.5185091,2281,2880,7_S
1789469803.521051,2180,2879,7_S
1789469803.5233521,1938,2878,7_S
1789469803.5244071,1877,2878,7_S
1789469803.53003,1710,2878,7_S
1789469803.530775,1603,2875,7_S
1789469803.5315351,1489,2877,7_S
1789469803.532927,1738,2879,7_S
1789469803.535608,1784,2879,7_S
1789469803.537287,2006,2880,7_S
1789469803.539096,2181,2880,7_S
1789469803.540618,1915,2880,7_S
1789469803.5426922,1871,2879,7_S
1789469803.545093,1947,2880,7_S
1789469803.550526,1610,2876,7_S
1789469803.5505931,1807,2878,7_S
1789469803.550993,1775,2878,7_S
1789469803.552802,2049,2880,7_S
1789469803.555504,2413,2881,7_S
1789469803.557293,2494,2878,7_S
1789469803.559156,2202,2879,7_S
1789469803.560937,1789,2879,7_S
1789469803.562997,1597,2877,7_S
1789469803.5653,1947,2878,7_S
1789469803.5664132,1906,2879,7_S
1789469803.568991,1928,2879,7_S
1789469803.570401,1746,2878,7_S
1789469803.5729501,1513,2876,7_S
1789469803.575008,1670,2877,7_S
1789469803.57636,1960,2880,7_S
1789469803.578423,1916,2878,7_S
1789469803.5804899,1113,2877,7_S
1789469803.582551,1826,2880,7_S
1789469803.584853,1735,2878,7_S
1789469803.587148,1863,2878,7_S
1789469803.5884001,1902,2879,7_S
1789469803.590705,1886,2879,7_S
1789469803.592769,1927,2879,7_S
1789469803.594831,1632,2877,7_S
1789469803.597127,1696,2877,7_S
1789469803.598419,1654,2878,7_S
1789469803.600969,1350,2879,7_S
1789469803.603512,1679,2879,7_S
1789469803.6047978,1787,2876,7_S
1789469803.607342,1234,2876,7_S
1789469803.608511,1343,2876,7_S
1789469803.610816,1456,2877,7_S
1789469803.616173,1434,2876,7_S
1789469803.616626,1596,2878,7_S
1789469803.61702,1800,2878,7_S
1789469803.6186821,1969,2877,7_S
1789469803.6217868,2089,2878,7_S
1789469803.623289,1925,2880,7_S
1789469803.6252081,1825,2879,7_S
1789469803.626734,1848,2878,7_S
1789469803.629041,2140,2880,7_S
1789469803.630379,2059,2877,7_S
1789469803.636627,1777,2878,7_S
1789469803.636999,1869,2878,7_S
1789469803.637651,1911,2877,7_S
1789469803.640249,1883,2877,7_S
1789469803.641983,1788,2879,7_S
1789469803.645059,1871,2879,7_S
1789469803.645324,2080,2878,7_S
1789469803.6471,2026,2879,7_S
1789469803.648403,2126,2878,7_S
1789469803.6504729,2385,2879,7_S
1789469803.653017,2072,2880,7_S
1789469803.655227,2055,2878,7_S
1789469803.65729,1945,2880,7_S
1789469803.658407,1982,2879,7_S
1789469803.66051,2295,2880,7_S
1789469803.66272,2349,2880,7_S
1789469803.665138,1932,2878,7_S
1789469803.66643,1993,2879,7_S
1789469803.668725,1912,2879,7_S
1789469803.671276,2155,2879,7_S
1789469803.6724339,2169,2880,7_S
1789469803.674986,2000,2879,7_S
1789469803.677539,2037,2879,7_S
1789469803.678706,2145,2879,7_S
1789469803.681008,1968,2880,7_S
1789469803.683309,1952,2880,7_S
1789469803.684594,2255,2879,7_S
1789469803.687135,2360,2879,7_S
1789469803.688423,2238,2881,7_S
1789469803.6907258,2042,2880,7_S
1789469803.693024,2235,2880,7_S
1789469803.695084,2246,2880,7_S
1789469803.69738,2130,2880,7_S
1789469803.702253,2090,2879,7_S
1789469803.7033348,2086,2880,7_S
1789469803.704853,2410,2879,7_S
1789469803.705066,2296,2879,7_S
1789469803.7064729,2446,2880,7_S
1789469803.7095838,2333,2880,7_S
1789469803.711669,1968,2879,7_S
1789469803.713197,2072,2879,7_S
1789469803.715435,1934,2877,7_S
1789469803.716728,2099,2880,7_S
1789469803.722615,1961,2878,7_S
1789469803.7230232,2312,2882,7_S
1789469803.723414,2062,2880,7_S
1789469803.7249331,2100,2879,7_S
1789469803.7276459,2222,2879,7_S
1789469803.73134,2230,2880,7_S
1789469803.7316108,2212,2881,7_S
1789469803.733343,1854,2878,7_S
1789469803.734637,2262,2878,7_S
1789469803.736952,2613,2883,7_S
1789469803.7392719,1513,2877,7_S
1789469803.740575,1554,2878,7_S
1789469803.742904,2198,2880,7_S
1789469803.7454531,2984,2882,7_S
1789469803.746507,2117,2881,7_S
1789469803.7490602,1574,2877,7_S
1789469803.751359,1627,2878,7_S
1789469803.7526479,2562,2881,7_S
1789469803.754942,2456,2882,7_S
1789469803.757248,2574,2881,7_S
1789469803.7584078,1705,2878,7_S
1789469803.7604852,1822,2878,7_S
1789469803.762548,1969,2879,7_S
1789469803.7648482,1973,2876,7_S
1789469803.766901,2016,2878,7_S
1789469803.769442,1997,2878,7_S
1789469803.770491,2490,2881,7_S
1789469803.7725508,2366,2878,7_S
1789469803.7745972,2353,2880,7_S
1789469803.777142,1883,2879,7_S
1789469803.779205,2560,2881,7_S
1789469803.781555,1911,2879,7_S
1789469803.782607,1870,2879,7_S
1789469803.7886772,1962,2879,7_S
1789469803.7890801,2112,2878,7_S
1789469803.789199,2175,2880,7_S
1789469803.791075,2036,2879,7_S
1789469803.792479,2127,2878,7_S
1789469803.795618,2093,2879,7_S
1789469803.79777,2060,2880,7_S
1789469803.799308,1781,2879,7_S
1789469803.8005068,2193,2880,7_S
1789469803.802922,2324,2880,7_S
1789469803.8088572,2254,2880,7_S
1789469803.809213,2020,2881,7_S
1789469803.80931,1981,2880,7_S
1789469803.81114,2169,2879,7_S
1789469803.81283,2120,2880,7_S
1789469803.814525,1928,2878,7_S
1789469803.8179069,2010,2879,7_S
1789469803.8197062,2158,2880,7_S
1789469803.820757,2275,2880,7_S
1789469803.8233018,2097,2880,7_S
1789469803.82436,2033,2879,7_S
1789469803.826779,2129,2879,7_S
1789469803.829335,2192,2880,7_S
1789469803.830624,2007,2878,7_S
1789469803.83317,1952,2878,7_S
1789469803.8344588,2121,2878,7_S
1789469803.836761,2195,2878,7_S
1789469803.8393059,2165,2878,7_S
1789469803.840398,2105,2878,7_S
1789469803.8429508,2142,2879,7_S
1789469803.845456,2207,2878,7_S
1789469803.846741,2065,2879,7_S
1789469803.8492858,1998,2879,7_S
1789469803.850395,2171,2879,7_S
1789469803.852766,2278,2878,7_S
1789469803.8553112,2265,2880,7_S
1789469803.856473,2040,2879,7_S
1789469803.859023,1987,2879,7_S
1789469803.860393,2180,2880,7_S
1789469803.862453,2083,2880,7_S
1789469803.864521,1908,2877,7_S
1789469803.8665972,2012,2879,7_S
1789469803.869055,2133,2879,7_S
1789469803.87039,2234,2879,7_S
1789469803.876399,2098,2880,7_S
1789469803.8768268,2040,2880,7_S
1789469803.876906,2134,2878,7_S
1789469803.8798988,2140,2879,7_S
1789469803.881354,1922,2878,7_S
1789469803.882913,1880,2879,7_S
1789469803.885385,2048,2880,7_S
1789469803.8868868,2205,2879,7_S
1789469803.8892002,2062,2879,7_S
1789469803.891457,2051,2879,7_S
1789469803.89262,2093,2878,7_S
1789469803.896877,2186,2879,7_S
1789469803.897239,2062,2880,7_S
1789469803.899225,1960,2879,7_S
1789469803.900901,2091,2878,7_S
1789469803.903724,2207,2879,7_S
1789469803.9061399,2102,2877,7_S
1789469803.907924,2084,2880,7_S
1789469803.9092228,1967,2879,7_S
1789469803.910513,2127,2878,7_S
1789469803.912815,2022,2879,7_S
1789469803.915156,1870,2879,7_S
1789469803.916457,1977,2879,7_S
1789469803.918761,2159,2880,7_S
1789469803.921311,2333,2882,7_S
1789469803.922604,2122,2880,7_S
1789469803.9251468,2023,2879,7_S
1789469803.927595,2113,2879,7_S
1789469803.9288871,2147,2880,7_S
1789469803.931196,1910,2878,7_S
1789469803.933256,2000,2879,7_S
1789469803.9345438,2128,2879,7_S
1789469803.937088,2203,2879,7_S
1789469803.938462,2161,2880,7_S
1789469803.940758,2084,2879,7_S
1789469803.9430652,2071,2879,7_S
1789469803.945141,2146,2879,7_S
1789469803.947438,1939,2877,7_S
1789469803.948489,2021,2878,7_S
1789469803.950549,2138,2879,7_S
1789469803.9530911,2216,2879,7_S
1789469803.955391,2233,2880,7_S
1789469803.956437,2104,2879,7_S
1789469803.958993,2031,2879,7_S
1789469803.962822,2221,2879,7_S
1789469803.96317,2005,2880,7_S
1789469803.965442,1923,2877,7_S
1789469803.9671848,2023,2879,7_S
1789469803.969952,2133,2878,7_S
1789469803.972484,2254,2881,7_S
1789469803.972607,2064,2880,7_S
1789469803.975322,1942,2878,7_S
1789469803.97661,2088,2879,7_S
1789469803.9791548,2225,2880,7_S
1789469803.983872,2061,2879,7_S
1789469803.983954,2025,2878,7_S
1789469803.98611,2144,2879,7_S
1789469803.988311,2215,2879,7_S
1789469803.988686,2160,2879,7_S
1789469803.990779,2116,2879,7_S
1789469803.9931579,2145,2880,7_S
1789469803.994932,2171,2879,7_S
1789469803.9974642,2114,2880,7_S
1789469803.998513,1958,2879,7_S
1789469804.0010638,2129,2880,7_S
1789469804.00243,2293,2880,7_S
1789469804.0049841,2275,2881,7_S
1789469804.0074592,2096,2880,7_S
1789469804.008746,2038,2879,7_S
1789469804.011054,2120,2879,7_S
1789469804.012457,2079,2880,7_S
1789469804.014762,2003,2879,7_S
1789469804.017062,2051,2880,7_S
1789469804.0193658,2258,2880,7_S
1789469804.020421,2377,2881,7_S
1789469804.022963,2264,2881,7_S
1789469804.0252721,2124,2879,7_S
1789469804.0265632,2264,2880,7_S
1789469804.028867,2228,2881,7_S
1789469804.0312681,2018,2878,7_S
1789469804.032554,1997,2879,7_S
1789469804.0350971,2163,2878,7_S
1789469804.0372128,2259,2880,7_S
1789469804.038402,2241,2881,7_S
1789469804.040464,2062,2879,7_S
1789469804.042777,2203,2879,7_S
1789469804.045184,2309,2879,7_S
1789469804.046475,2078,2881,7_S
1789469804.048948,1947,2879,7_S
1789469804.052775,2089,2880,7_S
1789469804.053542,2256,2880,7_S
1789469804.055232,2180,2881,7_S
1789469804.056619,1976,2879,7_S
1789469804.0598779,1913,2879,7_S
1789469804.062249,2010,2880,7_S
1789469804.062461,2138,2880,7_S
1789469804.065181,1965,2878,7_S
1789469804.067482,2107,2880,7_S
1789469804.068534,2247,2879,7_S
1789469804.0741398,2242,2880,7_S
1789469804.0745769,2145,2879,7_S
1789469804.0746582,2089,2880,7_S
1789469804.0775502,2324,2880,7_S
1789469804.079539,2363,2880,7_S
1789469804.0830138,1965,2878,7_S
1789469804.0831192,1898,2878,7_S
1789469804.0848918,2279,2880,7_S
1789469804.087208,2402,2881,7_S
1789469804.0884979,2310,2879,7_S
1789469804.090805,2072,2880,7_S
1789469804.0933728,1980,2879,7_S
1789469804.094665,2303,2880,7_S
1789469804.0970938,2126,2880,7_S
1789469804.099395,1969,2878,7_S
1789469804.100517,2063,2879,7_S
1789469804.102818,2301,2879,7_S
1789469804.104875,2284,2881,7_S
1789469804.1071758,2142,2879,7_S
1789469804.108463,2025,2878,7_S
1789469804.110763,2170,2880,7_S
1789469804.112811,2159,2880,7_S
1789469804.115106,2033,2878,7_S
1789469804.116398,2003,2881,7_S
1789469804.118798,2113,2879,7_S
1789469804.121341,2181,2878,7_S
1789469804.1226308,2164,2880,7_S
1789469804.125182,2125,2878,7_S
1789469804.126475,2210,2879,7_S
1789469804.128597,2262,2879,7_S
1789469804.130667,2025,2877,7_S
1789469804.1327329,2080,2879,7_S
1789469804.135027,2224,2880,7_S
1789469804.1363819,2236,2878,7_S
1789469804.138935,2160,2879,7_S
1789469804.1450932,2112,2880,7_S
1789469804.1457899,2149,2878,7_S
1789469804.1464262,2300,2879,7_S
1789469804.1465259,1909,2877,7_S
1789469804.1491652,2003,2878,7_S
1789469804.1508942,2268,2879,7_S
1789469804.1543438,2267,2880,7_S
1789469804.154552,2062,2878,7_S
1789469804.157415,1975,2878,7_S
1789469804.158706,1939,2878,7_S
1789469804.161126,2141,2879,7_S
1789469804.1658502,2046,2879,7_S
1789469804.166251,1997,2878,7_S
1789469804.1666582,1979,2880,7_S
1789469804.169815,2064,2879,7_S
1789469804.171603,2295,2880,7_S
1789469804.172766,2215,2880,7_S
1789469804.175117,2085,2879,7_S
1789469804.176929,2171,2880,7_S
1789469804.1794949,2213,2880,7_S
1789469804.180792,1957,2878,7_S
1789469804.183116,1953,2879,7_S
1789469804.184427,2157,2880,7_S
1789469804.186977,2193,2879,7_S
1789469804.189281,2086,2880,7_S
1789469804.190567,2005,2878,7_S
1789469804.1931221,2046,2879,7_S
1789469804.194499,2155,2879,7_S
1789469804.1970098,1987,2880,7_S
1789469804.199083,1948,2878,7_S
1789469804.200402,2069,2878,7_S
1789469804.202699,2150,2879,7_S
1789469804.2052429,2179,2880,7_S
1789469804.2064052,2152,2879,7_S
1789469804.20895,2077,2878,7_S
1789469804.211252,2179,2880,7_S
1789469804.212427,2132,2879,7_S
1789469804.214497,1947,2877,7_S
1789469804.216921,2079,2879,7_S
1789469804.219466,2237,2880,7_S
1789469804.2205079,2273,2881,7_S
1789469804.22281,2150,2880,7_S
1789469804.22536,2041,2879,7_S
1789469804.22665,2118,2879,7_S
1789469804.228717,2130,2880,7_S
1789469804.233531,1979,2877,7_S
1789469804.234316,1920,2879,7_S
1789469804.235723,2113,2878,7_S
1789469804.2371268,2246,2878,7_S
1789469804.238482,2185,2880,7_S
1789469804.240653,2050,2878,7_S
1789469804.243095,2052,2879,7_S
1789469804.2450418,2148,2878,7_S
1789469804.2464168,1986,2878,7_S
1789469804.2489758,1964,2878,7_S
1789469804.2545228,2074,2879,7_S
1789469804.2552261,2258,2879,7_S
1789469804.255286,2205,2879,7_S
1789469804.2570739,2127,2877,7_S
1789469804.2584598,2098,2879,7_S
1789469804.261535,2216,2879,7_S
1789469804.263977,2146,2880,7_S
1789469804.265735,2043,2877,7_S
1789469804.267026,2053,2877,7_S
1789469804.269579,2136,2878,7_S
1789469804.270868,2190,2879,7_S
1789469804.2734358,2137,2879,7_S
1789469804.274734,2047,2878,7_S
1789469804.277281,2114,2879,7_S
1789469804.2785761,2149,2879,7_S
1789469804.281024,1994,2877,7_S
1789469804.282398,1981,2880,7_S
1789469804.284714,2148,2879,7_S
1789469804.286829,2244,2879,7_S
1789469804.289147,2149,2879,7_S
1789469804.290439,2026,2879,7_S
1789469804.2928078,2010,2878,7_S
1789469804.295115,2156,2880,7_S
1789469804.296405,1997,2880,7_S
1789469804.298649,1921,2878,7_S
1789469804.301194,2027,2879,7_S
1789469804.302482,2156,2879,7_S
1789469804.305027,2155,2880,7_S
1789469804.307578,2058,2880,7_S
1789469804.308623,2035,2879,7_S
1789469804.310737,2139,2878,7_S
1789469804.313046,2046,2880,7_S
1789469804.3151119,1928,2877,7_S
1789469804.316394,2005,2879,7_S
1789469804.3226979,2158,2879,7_S
1789469804.323072,2200,2878,7_S
1789469804.32345,2062,2879,7_S
1789469804.325078,1997,2879,7_S
1789469804.3267462,2069,2878,7_S
1789469804.328631,2144,2880,7_S
1789469804.33218,1934,2877,7_S
1789469804.333915,1947,2879,7_S
1789469804.3349602,2119,2879,7_S
1789469804.337062,2203,2879,7_S
1789469804.3383958,2096,2879,7_S
1789469804.343651,2002,2879,7_S
1789469804.344042,2060,2879,7_S
1789469804.345876,2167,2879,7_S
1789469804.3471859,1981,2879,7_S
1789469804.3502898,1947,2879,7_S
1789469804.352501,2096,2880,7_S
1789469804.352628,2189,2879,7_S
1789469804.3551161,2189,2880,7_S
1789469804.357425,2103,2880,7_S
1789469804.358479,2009,2878,7_S
1789469804.360545,2181,2879,7_S
1789469804.363111,2097,2880,7_S
1789469804.365553,1976,2878,7_S
1789469804.366614,2004,2878,7_S
1789469804.3691578,2079,2879,7_S
1789469804.371396,2152,2878,7_S
1789469804.372448,2064,2879,7_S
1789469804.374746,2012,2880,7_S
1789469804.376808,2028,2879,7_S
1789469804.3791208,2125,2879,7_S
1789469804.3814259,2006,2878,7_S
1789469804.3824708,1981,2879,7_S
1789469804.3846242,2140,2880,7_S
1789469804.387176,2240,2880,7_S
1789469804.388465,2143,2880,7_S
1789469804.390763,2104,2878,7_S
1789469804.3933141,2114,2879,7_S
1789469804.3946009,2137,2880,7_S
1789469804.3969011,2011,2879,7_S
1789469804.399445,1919,2878,7_S
1789469804.400738,2043,2880,7_S
1789469804.403284,2095,2880,7_S
1789469804.404587,2141,2878,7_S
1789469804.409373,2126,2881,7_S
1789469804.4100962,2014,2879,7_S
1789469804.411791,2132,2879,7_S
1789469804.413225,2071,2880,7_S
1789469804.415091,2044,2878,7_S
1789469804.416607,2091,2879,7_S
1789469804.418998,2089,2879,7_S
1789469804.421927,2128,2878,7_S
1789469804.4232252,2174,2880,7_S
1789469804.42452,2050,2879,7_S
1789469804.4303901,2135,2879,7_S
1789469804.4307709,2212,2879,7_S
1789469804.431461,2180,2880,7_S
1789469804.432974,1790,2879,7_S
1789469804.434787,1994,2878,7_S
1789469804.439479,2464,2882,7_S
1789469804.439589,2019,2878,7_S
1789469804.44107,1977,2879,7_S
1789469804.443389,1957,2879,7_S
1789469804.444594,2127,2879,7_S
1789469804.446804,2159,2880,7_S
1789469804.449366,1987,2878,7_S
1789469804.45058,1948,2879,7_S
1789469804.4531252,2265,2878,7_S
1789469804.455683,2279,2879,7_S
1789469804.456734,1943,2879,7_S
1789469804.459278,1880,2879,7_S
1789469804.460567,2146,2879,7_S
1789469804.4631171,1990,2879,7_S
1789469804.4644082,1752,2879,7_S
1789469804.46695,1967,2879,7_S
1789469804.469258,2110,2879,7_S
1789469804.4705448,2242,2882,7_S
1789469804.473088,2338,2881,7_S
1789469804.47546,1911,2879,7_S
1789469804.476746,1970,2879,7_S
1789469804.479043,2371,2881,7_S
1789469804.481407,1807,2878,7_S
1789469804.4826949,2107,2880,7_S
1789469804.4849951,2300,2879,7_S
1789469804.487465,2197,2879,7_S
1789469804.488513,2309,2882,7_S
1789469804.490599,1678,2876,7_S
1789469804.496904,1971,2879,7_S
1789469804.497347,2208,2879,7_S
1789469804.497479,1748,2877,7_S
1789469804.499276,1811,2878,7_S
1789469804.5010939,1959,2879,7_S
1789469804.504384,2134,2879,7_S
1789469804.5069041,2067,2878,7_S
1789469804.507293,2323,2880,7_S
1789469804.509161,1958,2880,7_S
1789469804.511499,2296,2880,7_S
1789469804.512628,2209,2880,7_S
1789469804.515077,1820,2877,7_S
1789469804.523398,1955,2879,7_S
1789469804.5259898,1922,2878,7_S
1789469804.526483,2241,2880,7_S
1789469804.527654,2066,2880,7_S
1789469804.529793,1968,2879,7_S
1789469804.5324612,2163,2880,7_S
1789469804.5328362,2045,2878,7_S
1789469804.53305,1880,2878,7_S
1789469804.53518,2209,2878,7_S
1789469804.535302,1979,2879,7_S
1789469804.536614,2112,2879,7_S
1789469804.538785,2078,2879,7_S
1789469804.540985,2032,2879,7_S
1789469804.5431921,1811,2877,7_S
1789469804.5456052,2015,2878,7_S
1789469804.547062,2033,2879,7_S
1789469804.549284,2095,2879,7_S
1789469804.550587,1945,2879,7_S
1789469804.552707,1849,2880,7_S
1789469804.5549068,2066,2879,7_S
1789469804.557385,2053,2879,7_S
1789469804.558767,2067,2879,7_S
1789469804.561367,2102,2878,7_S
1789469804.5628748,2023,2880,7_S
1789469804.565471,1874,2879,7_S
1789469804.566741,2012,2879,7_S
1789469804.569103,2181,2879,7_S
1789469804.5718248,2283,2880,7_S
1789469804.573096,1917,2878,7_S
1789469804.575666,2372,2879,7_S
1789469804.577132,1669,2877,7_S
1789469804.5785,2147,2880,7_S
1789469804.581006,2028,2878,7_S
1789469804.583322,1949,2879,7_S
1789469804.58471,2094,2879,7_S
1789469804.587271,2181,2878,7_S
1789469804.589427,2071,2880,7_S
1789469804.596732,2116,2879,7_S
1789469804.598273,2242,2880,7_S
1789469804.599922,1977,2879,7_S
1789469804.600867,2158,2879,7_S
1789469804.601771,1839,2877,7_S
1789469804.6026812,2031,2878,7_S
1789469804.6027892,2160,2879,7_S
1789469804.604522,2086,2877,7_S
1789469804.607053,2036,2879,7_S
1789469804.609061,2042,2880,7_S
1789469804.611392,2055,2879,7_S
1789469804.612694,2013,2879,7_S
1789469804.6148212,1927,2878,7_S
1789469804.620023,2013,2878,7_S
1789469804.6216938,2165,2879,7_S
1789469804.621811,2234,2880,7_S
1789469804.624917,2109,2880,7_S
1789469804.625383,2118,2880,7_S
1789469804.626979,1944,2878,7_S
1789469804.63081,2257,2880,7_S
1789469804.631011,2241,2881,7_S
1789469804.632889,1914,2880,7_S
1789469804.6354508,2231,2879,7_S
1789469804.6365068,2166,2880,7_S
1789469804.638871,2022,2879,7_S
1789469804.641428,2129,2880,7_S
1789469804.642473,2266,2880,7_S
1789469804.6447868,2241,2879,7_S
1789469804.6473322,2081,2880,7_S
1789469804.649398,1711,2877,7_S
1789469804.650518,1720,2878,7_S
1789469804.652582,2304,2879,7_S
1789469804.6551208,2315,2881,7_S
1789469804.657187,2288,2880,7_S
1789469804.6594849,2007,2879,7_S
1789469804.660532,2076,2879,7_S
1789469804.662716,2158,2879,7_S
1789469804.6650329,2075,2878,7_S
1789469804.6670861,2073,2878,7_S
1789469804.669418,2148,2879,7_S
1789469804.670468,2010,2878,7_S
1789469804.672802,2310,2881,7_S
1789469804.674911,2107,2879,7_S
1789469804.677247,1895,2878,7_S
1789469804.679351,1961,2878,7_S
1789469804.68065,1857,2877,7_S
1789469804.682979,2239,2879,7_S
1789469804.685289,2066,2880,7_S
1789469804.686583,2122,2879,7_S
1789469804.6925461,2018,2879,7_S
1789469804.693054,2013,2880,7_S
1789469804.693923,2156,2879,7_S
1789469804.6953979,2481,2881,7_S
1789469804.697112,1950,2878,7_S
1789469804.699471,1710,2879,7_S
1789469804.703601,1831,2880,7_S
1789469804.703813,2330,2878,7_S
1789469804.70608,2140,2880,7_S
1789469804.707138,2333,2880,7_S
1789469804.7096121,1999,2877,7_S
1789469804.710907,2072,2879,7_S
1789469804.716195,1651,2877,7_S
1789469804.717115,2242,2878,7_S
1789469804.717612,1875,2879,7_S
1789469804.719585,2111,2878,7_S
1789469804.721646,2358,2881,7_S
1789469804.7236521,1833,2879,7_S
1789469804.727545,1577,2876,7_S
1789469804.7277281,1771,2878,7_S
1789469804.730004,2156,2880,7_S
1789469804.7311842,1932,2877,7_S
1789469804.733397,2256,2880,7_S
1789469804.734703,1919,2879,7_S
1789469804.7370539,2499,2880,7_S
1789469804.739129,1537,2877,7_S
1789469804.741195,1520,2877,7_S
1789469804.7432709,2405,2880,7_S
1789469804.745337,2383,2881,7_S
1789469804.746631,2184,2880,7_S
1789469804.748939,1952,2877,7_S
1789469804.751423,1923,2878,7_S
1789469804.752718,2198,2879,7_S
1789469804.7550561,2247,2878,7_S
1789469804.757437,2151,2880,7_S
1789469804.758749,1899,2878,7_S
1789469804.760821,1569,2877,7_S
1789469804.76292,1657,2877,7_S
1789469804.764998,2054,2878,7_S
1789469804.767317,1554,2879,7_S
1789469804.768609,1900,2878,7_S
1789469804.770787,2038,2878,7_S
1789469804.773153,2160,2879,7_S
1789469804.775379,2062,2880,7_S
1789469804.7765498,1848,2878,7_S
1789469804.778688,2100,2879,7_S
1789469804.780789,1944,2879,7_S
1789469804.782971,2067,2878,7_S
1789469804.785439,2175,2879,7_S
1789469804.7867289,2177,2879,7_S
1789469804.7935412,1971,2878,7_S
1789469804.794063,1897,2878,7_S
1789469804.794635,1927,2878,7_S
1789469804.7956312,2229,2879,7_S
1789469804.797385,1949,2880,7_S
1789469804.800027,1725,2878,7_S
1789469804.8018188,1942,2878,7_S
1789469804.803353,2019,2879,7_S
1789469804.8062131,2039,2877,7_S
1789469804.808413,1968,2879,7_S
1789469804.808649,2064,2879,7_S
1789469804.811208,2218,2880,7_S
1789469804.8135412,2027,2879,7_S
1789469804.814841,1758,2878,7_S
1789469804.8197901,1783,2879,7_S
1789469804.8206668,2000,2879,7_S
1789469804.821145,2143,2879,7_S
1789469804.822706,2124,2881,7_S
1789469804.8260858,1879,2878,7_S
1789469804.8281338,1825,2880,7_S
1789469804.830847,1811,2876,7_S
1789469804.831012,1733,2879,7_S
1789469804.83277,1684,2879,7_S
1789469804.834847,1845,2879,7_S
1789469804.8369439,2024,2880,7_S
1789469804.839013,1961,2878,7_S
1789469804.841262,1865,2879,7_S
1789469804.842556,1831,2879,7_S
1789469804.844812,1981,2878,7_S
1789469804.8469179,1859,2877,7_S
1789469804.848991,1695,2878,7_S
1789469804.8514812,1778,2879,7_S
1789469804.852533,1925,2879,7_S
1789469804.8548439,1935,2878,7_S
1789469804.857158,1760,2876,7_S
1789469804.8592799,1755,2879,7_S
1789469804.861598,1887,2878,7_S
1789469804.862905,2024,2879,7_S
1789469804.865224,1890,2877,7_S
1789469804.866515,2013,2877,7_S
1789469804.8690639,2135,2879,7_S
1789469804.871614,2214,2880,7_S
1789469804.8729029,1988,2879,7_S
1789469804.875454,1963,2879,7_S
1789469804.876749,2165,2879,7_S
1789469804.8793,2276,2879,7_S
1789469804.880642,1872,2878,7_S
1789469804.8829482,1648,2879,7_S
1789469804.8854961,1905,2879,7_S
1789469804.886786,2172,2878,7_S
1789469804.893246,2173,2882,7_S
1789469804.893984,2053,2879,7_S
1789469804.8954298,2053,2879,7_S
1789469804.895603,2375,2880,7_S
1789469804.897346,2124,2879,7_S
1789469804.898591,1929,2877,7_S
1789469804.900749,1994,2879,7_S
1789469804.90325,2232,2878,7_S
1789469804.9052632,2298,2880,7_S
1789469804.90737,2036,2878,7_S
1789469804.9086652,2002,2879,7_S
1789469804.911131,2215,2880,7_S
1789469804.9152782,2167,2880,7_S
1789469804.9153988,2003,2878,7_S
1789469804.917757,1990,2878,7_S
1789469804.919447,2136,2880,7_S
1789469804.9210298,2313,2881,7_S
1789469804.923153,2092,2880,7_S
1789469804.925656,2192,2880,7_S
1789469804.927681,2408,2880,7_S
1789469804.928986,1672,2876,7_S
1789469804.930423,1994,2878,7_S
1789469804.932978,2148,2879,7_S
1789469804.935314,2004,2879,7_S
1789469804.936615,2020,2877,7_S
1789469804.9386811,2024,2877,7_S
1789469804.941228,1877,2879,7_S
1789469804.9436128,2268,2878,7_S
1789469804.944912,2399,2881,7_S
1789469804.9474719,2269,2879,7_S
1789469804.9487638,1588,2878,7_S
1789469804.951307,1829,2879,7_S
1789469804.952406,2473,2879,7_S
1789469804.9545898,2517,2881,7_S
1789469804.956894,2258,2878,7_S
1789469804.959195,2068,2878,7_S
1789469804.961514,2226,2880,7_S
1789469804.962562,2280,2880,7_S
1789469804.964832,2118,2878,7_S
1789469804.9673789,2018,2879,7_S
1789469804.968427,2237,2880,7_S
1789469804.970728,2401,2880,7_S
1789469804.973197,2271,2880,7_S
1789469804.975497,1910,2879,7_S
1789469804.976541,1836,2878,7_S
1789469804.978615,2218,2880,7_S
1789469804.98097,1792,2879,7_S
1789469804.982368,1996,2879,7_S
1789469804.987545,2205,2879,7_S
1789469804.9877,2244,2878,7_S
1789469804.990133,2106,2881,7_S
1789469804.992065,2201,2879,7_S
1789469804.9940212,1980,2878,7_S
1789469804.9954,1901,2879,7_S
1789469804.998034,2036,2879,7_S
1789469805.000045,1900,2879,7_S
1789469805.001347,2089,2880,7_S
1789469805.002408,2306,2878,7_S
1789469805.0049548,2130,2880,7_S
1789469805.009923,1976,2880,7_S
1789469805.01032,1890,2878,7_S
1789469805.010823,2034,2880,7_S
1789469805.012915,2056,2880,7_S
1789469805.014739,1955,2878,7_S
1789469805.0178518,2037,2880,7_S
1789469805.0204532,2156,2881,7_S
1789469805.020597,2239,2879,7_S
1789469805.0231638,2043,2880,7_S
1789469805.025259,2021,2879,7_S
1789469805.026556,2091,2880,7_S
1789469805.028857,2122,2878,7_S
1789469805.031436,1802,2879,7_S
1789469805.032733,1861,2878,7_S
1789469805.035061,2203,2880,7_S
1789469805.037309,2204,2879,7_S
1789469805.038599,2178,2880,7_S
1789469805.041149,2131,2879,7_S
1789469805.042443,2217,2879,7_S
1789469805.044509,2296,2880,7_S
1789469805.046808,2121,2880,7_S
1789469805.049108,2045,2880,7_S
1789469805.051409,2144,2880,7_S
1789469805.0526981,2180,2879,7_S
1789469805.0550048,2252,2881,7_S
1789469805.057062,2029,2879,7_S
1789469805.0593688,2035,2879,7_S
1789469805.060425,2191,2879,7_S
1789469805.0627232,2150,2880,7_S
1789469805.065063,1876,2879,7_S
1789469805.0663948,1901,2879,7_S
1789469805.068697,2167,2880,7_S
1789469805.071002,2304,2880,7_S
1789469805.073311,2126,2880,7_S
1789469805.074402,2034,2879,7_S
1789469805.0767128,2012,2879,7_S
1789469805.0824819,2178,2880,7_S
1789469805.0826151,1987,2879,7_S
1789469805.083016,1942,2880,7_S
1789469805.084834,2083,2879,7_S
1789469805.087601,2349,2881,7_S
1789469805.089824,2146,2880,7_S
1789469805.092543,2013,2880,7_S
1789469805.092746,2028,2879,7_S
1789469805.094708,2132,2881,7_S
1789469805.097271,1903,2878,7_S
1789469805.0984042,1989,2879,7_S
1789469805.104744,2137,2879,7_S
1789469805.105948,2187,2879,7_S
1789469805.106051,2101,2880,7_S
1789469805.1075861,2044,2878,7_S
1789469805.109347,2051,2879,7_S
1789469805.111207,2278,2880,7_S
1789469805.112523,2171,2879,7_S
1789469805.115127,2041,2878,7_S
1789469805.11719,1953,2878,7_S
1789469805.118486,2153,2879,7_S
1789469805.120799,2226,2878,7_S
1789469805.123123,2078,2880,7_S
1789469805.125219,1974,2878,7_S
1789469805.126515,2099,2879,7_S
1789469805.128638,2092,2880,7_S
1789469805.130943,1957,2878,7_S
1789469805.133247,1966,2878,7_S
1789469805.134419,2146,2879,7_S
1789469805.136968,2356,2880,7_S
1789469805.139275,2090,2880,7_S
1789469805.140413,2033,2879,7_S
1789469805.1429608,2041,2880,7_S
1789469805.145341,2177,2880,7_S
1789469805.146631,1924,2878,7_S
1789469805.1490078,1882,2879,7_S
1789469805.151227,2129,2880,7_S
1789469805.1525161,2112,2879,7_S
1789469805.154826,2069,2878,7_S
1789469805.157139,2078,2880,7_S
1789469805.158428,2151,2879,7_S
1789469805.1607392,2328,2879,7_S
1789469805.163284,2278,2879,7_S
1789469805.164405,2019,2879,7_S
1789469805.16671,2072,2879,7_S
1789469805.16926,2170,2879,7_S
1789469805.170552,2293,2878,7_S
1789469805.177046,2220,2881,7_S
1789469805.1775339,2189,2879,7_S
1789469805.1783528,2177,2879,7_S
1789469805.178756,2176,2880,7_S
1789469805.181643,2163,2880,7_S
1789469805.183168,1995,2878,7_S
1789469805.184876,2206,2879,7_S
1789469805.1874108,2285,2879,7_S
1789469805.189437,2283,2879,7_S
1789469805.1907358,2142,2879,7_S
1789469805.193287,2072,2878,7_S
1789469805.194586,2166,2879,7_S
1789469805.199784,2086,2880,7_S
1789469805.2005708,1942,2880,7_S
1789469805.201365,2111,2880,7_S
1789469805.204093,2293,2879,7_S
1789469805.20577,2325,2881,7_S
1789469805.207387,2084,2879,7_S
1789469805.2099268,2107,2879,7_S
1789469805.211602,2179,2879,7_S
1789469805.212654,2080,2880,7_S
1789469805.21497,1961,2878,7_S
1789469805.217279,2164,2880,7_S
1789469805.218432,2274,2880,7_S
1789469805.2210062,2263,2881,7_S
1789469805.223326,2150,2878,7_S
1789469805.224627,2141,2879,7_S
1789469805.227176,2148,2880,7_S
1789469805.228468,2226,2879,7_S
1789469805.2305222,2082,2878,7_S
1789469805.2325928,1984,2879,7_S
1789469805.2349,2207,2879,7_S
1789469805.237205,2294,2878,7_S
1789469805.238493,2226,2880,7_S
1789469805.240797,2065,2878,7_S
1789469805.243198,2029,2879,7_S
1789469805.245501,2162,2879,7_S
1789469805.2467892,2098,2879,7_S
1789469805.249095,1991,2878,7_S
1789469805.251169,2058,2878,7_S
1789469805.253462,2164,2878,7_S
1789469805.254518,2127,2878,7_S
1789469805.257068,2059,2880,7_S
1789469805.2593799,2018,2879,7_S
1789469805.260673,2172,2880,7_S
1789469805.262975,2179,2879,7_S
1789469805.265541,1921,2878,7_S
1789469805.269978,2132,2879,7_S
1789469805.270453,2191,2879,7_S
1789469805.2709188,2194,2878,7_S
1789469805.274081,2168,2879,7_S
1789469805.2756412,2068,2878,7_S
1789469805.277198,2122,2878,7_S
1789469805.279536,2269,2880,7_S
1789469805.281522,1971,2877,7_S
1789469805.282571,1935,2878,7_S
1789469805.285104,2168,2880,7_S
1789469805.291276,2283,2879,7_S
1789469805.2919538,2186,2881,7_S
1789469805.292337,2066,2879,7_S
1789469805.293427,2095,2878,7_S
1789469805.295427,2216,2881,7_S
1789469805.2981381,2104,2879,7_S
1789469805.300555,1957,2879,7_S
1789469805.300739,2104,2880,7_S
1789469805.303595,2286,2879,7_S
1789469805.3046558,2229,2880,7_S
1789469805.307162,2079,2880,7_S
1789469805.3092248,2128,2879,7_S
1789469805.310542,2243,2880,7_S
1789469805.313096,2161,2879,7_S
1789469805.3152251,1968,2879,7_S
1789469805.316513,2022,2878,7_S
1789469805.31906,2223,2880,7_S
1789469805.321114,2301,2882,7_S
1789469805.323429,2141,2880,7_S
1789469805.324718,2037,2879,7_S
1789469805.3270268,2120,2879,7_S
1789469805.328385,2153,2879,7_S
1789469805.330935,2002,2878,7_S
1789469805.333282,1978,2880,7_S
1789469805.334574,2099,2878,7_S
1789469805.33712,2161,2878,7_S
1789469805.338419,2131,2880,7_S
1789469805.340731,2064,2879,7_S
1789469805.343029,2018,2879,7_S
1789469805.344401,2132,2880,7_S
1789469805.3469608,1997,2880,7_S
1789469805.349278,1926,2878,7_S
1789469805.350515,2019,2879,7_S
1789469805.35283,2203,2880,7_S
1789469805.355129,2243,2881,7_S
1789469805.35745,2092,2878,7_S
1789469805.361902,2050,2878,7_S
1789469805.3623219,2189,2879,7_S
1789469805.363109,2096,2880,7_S
1789469805.365831,1818,2877,7_S
1789469805.367351,1954,2879,7_S
1789469805.368885,2115,2880,7_S
1789469805.371263,2146,2877,7_S
1789469805.373185,2109,2879,7_S
1789469805.374488,2059,2879,7_S
1789469805.377036,2061,2878,7_S
1789469805.379116,2069,2879,7_S
1789469805.383407,1961,2879,7_S
1789469805.3837702,2012,2878,7_S
1789469805.3856142,2193,2879,7_S
1789469805.388153,2189,2879,7_S
1789469805.3893938,2037,2878,7_S
1789469805.39312,2044,2879,7_S
1789469805.3932319,2186,2880,7_S
1789469805.395118,2130,2879,7_S
1789469805.396414,2024,2880,7_S
1789469805.398936,1960,2877,7_S
1789469805.401464,2088,2878,7_S
1789469805.402522,2224,2879,7_S
1789469805.404643,2175,2878,7_S
1789469805.4071932,2152,2880,7_S
1789469805.4084811,2039,2879,7_S
1789469805.41059,2069,2879,7_S
1789469805.412888,2042,2878,7_S
1789469805.414999,2009,2878,7_S
1789469805.416391,2043,2880,7_S
1789469805.418946,2150,2879,7_S
1789469805.421244,2223,2878,7_S
1789469805.423551,2137,2880,7_S
1789469805.42484,2069,2879,7_S
1789469805.4271529,2119,2879,7_S
1789469805.42946,2118,2879,7_S
1789469805.430762,1996,2877,7_S
1789469805.433312,1952,2879,7_S
1789469805.4345999,2126,2878,7_S
1789469805.437145,2085,2879,7_S
1789469805.4384341,2260,2880,7_S
1789469805.4409778,2200,2879,7_S
1789469805.4435258,1983,2879,7_S
1789469805.444578,2097,2879,7_S
1789469805.447123,2045,2880,7_S
1789469805.453174,1933,2879,7_S
1789469805.453254,2001,2878,7_S
1789469805.453652,2124,2878,7_S
1789469805.4553359,2160,2881,7_S
1789469805.457482,2048,2879,7_S
1789469805.460146,2017,2880,7_S
1789469805.462603,2138,2877,7_S
1789469805.462699,2115,2880,7_S
1789469805.464768,1960,2878,7_S
1789469805.467256,1957,2878,7_S
1789469805.468549,2211,2879,7_S
1789469805.474338,2245,2878,7_S
1789469805.4747882,2178,2879,7_S
1789469805.475554,2024,2879,7_S
1789469805.4769511,2037,2878,7_S
1789469805.4787211,2145,2879,7_S
1789469805.48156,2021,2877,7_S
1789469805.484019,1919,2880,7_S
1789469805.4855459,2043,2879,7_S
1789469805.486839,2140,2879,7_S
1789469805.488939,2145,2881,7_S
1789469805.491016,2101,2880,7_S
1789469805.4933188,2041,2880,7_S
1789469805.494473,2344,2880,7_S
1789469805.496543,2058,2879,7_S
1789469805.499103,1906,2879,7_S
1789469805.50142,2027,2879,7_S
1789469805.50271,2160,2879,7_S
1789469805.5050979,2209,2880,7_S
1789469805.50645,2131,2880,7_S
1789469805.509004,2038,2879,7_S
1789469805.5103621,2141,2880,7_S
1789469805.512908,2127,2880,7_S
1789469805.51521,1963,2878,7_S
1789469805.516499,2092,2879,7_S
1789469805.518882,2140,2879,7_S
1789469805.521186,2235,2878,7_S
1789469805.5223732,2176,2879,7_S
1789469805.524673,1997,2878,7_S
1789469805.526779,2028,2879,7_S
1789469805.528903,2104,2879,7_S
1789469805.531212,1931,2877,7_S
1789469805.5323572,1967,2879,7_S
1789469805.534435,2190,2879,7_S
1789469805.536672,2223,2880,7_S
1789469805.539101,2152,2880,7_S
1789469805.541483,2048,2878,7_S
1789469805.5425348,2021,2878,7_S
1789469805.544629,2229,2879,7_S
1789469805.5496871,2080,2879,7_S
1789469805.550221,1949,2878,7_S
1789469805.551889,2069,2879,7_S
1789469805.5539699,2264,2879,7_S
1789469805.555655,2178,2880,7_S
1789469805.5572832,2083,2880,7_S
1789469805.559767,1962,2880,7_S
1789469805.561588,2125,2879,7_S
1789469805.5626612,2107,2881,7_S
1789469805.5650072,1922,2879,7_S
1789469805.5671098,1929,2879,7_S
1789469805.568408,2124,2880,7_S
1789469805.573753,2214,2879,7_S
1789469805.575088,2084,2880,7_S
1789469805.576791,2034,2879,7_S
1789469805.576961,2092,2879,7_S
1789469805.579777,2161,2879,7_S
1789469805.582565,1998,2877,7_S
1789469805.582697,1998,2879,7_S
1789469805.5866601,2145,2879,7_S
1789469805.586694,2221,2878,7_S
1789469805.5892549,2142,2880,7_S
1789469805.591941,1995,2878,7_S
1789469805.593249,1980,2879,7_S
1789469805.5943549,2142,2879,7_S
1789469805.596433,2025,2880,7_S
1789469805.598735,1962,2878,7_S
1789469805.601027,2065,2879,7_S
1789469805.602365,2229,2878,7_S
1789469805.604518,2206,2881,7_S
1789469805.607069,2094,2879,7_S
1789469805.608366,1977,2880,7_S
1789469805.610692,2081,2879,7_S
1789469805.613019,2136,2880,7_S
1789469805.6151009,2000,2878,7_S
1789469805.616396,1985,2879,7_S
1789469805.6187258,2119,2879,7_S
1789469805.621516,2202,2878,7_S
1789469805.622623,2095,2880,7_S
1789469805.624716,2026,2880,7_S
1789469805.627029,2086,2878,7_S
1789469805.6291242,2156,2879,7_S
1789469805.6304178,1964,2879,7_S
1789469805.632666,1906,2879,7_S
1789469805.634895,2064,2879,7_S
1789469805.637265,2130,2879,7_S
1789469805.638596,2112,2881,7_S
1789469805.640918,2072,2879,7_S
1789469805.643232,2075,2878,7_S
1789469805.6444118,2181,2879,7_S
1789469805.6467268,2037,2879,7_S
1789469805.648799,1953,2878,7_S
1789469805.651253,2035,2879,7_S
1789469805.652423,2175,2879,7_S
1789469805.654986,2234,2880,7_S
1789469805.6563652,2071,2878,7_S
1789469805.658679,2028,2879,7_S
1789469805.664861,2153,2879,7_S
1789469805.665803,2142,2880,7_S
1789469805.666362,1954,2878,7_S
1789469805.6682281,2037,2878,7_S
1789469805.670173,2173,2880,7_S
1789469805.671586,2226,2879,7_S
1789469805.673609,2119,2879,7_S
1789469805.676215,2060,2879,7_S
1789469805.678452,2067,2879,7_S
1789469805.678507,2157,2879,7_S
1789469805.680825,1983,2878,7_S
1789469805.6831412,1935,2878,7_S
1789469805.689725,2091,2878,7_S
1789469805.69018,2175,2879,7_S
1789469805.6917021,2175,2878,7_S
1789469805.691911,2088,2878,7_S
1789469805.693824,2065,2878,7_S
1789469805.697372,2208,2878,7_S
1789469805.6975338,2033,2878,7_S
1789469805.6999109,1904,2878,7_S
1789469805.702146,1991,2878,7_S
1789469805.703582,2168,2879,7_S
1789469805.704909,2157,2877,7_S
1789469805.707416,2095,2879,7_S
1789469805.7088451,2046,2878,7_S
1789469805.711224,2120,2879,7_S
1789469805.7125251,2125,2879,7_S
1789469805.7151191,1964,2876,7_S
1789469805.717451,2007,2879,7_S
1789469805.718764,2156,2879,7_S
1789469805.7210722,2218,2877,7_S
1789469805.722369,2137,2879,7_S
1789469805.72469,2080,2878,7_S
1789469805.727129,2056,2879,7_S
1789469805.7294452,2114,2878,7_S
1789469805.730743,1980,2877,7_S
1789469805.733063,1990,2878,7_S
1789469805.734368,2112,2879,7_S
1789469805.736927,2200,2878,7_S
1789469805.7390132,2085,2879,7_S
1789469805.741461,1995,2878,7_S
1789469805.7425091,2067,2879,7_S
1789469805.7445672,2186,2879,7_S
1789469805.746649,2049,2878,7_S
1789469805.7491999,1925,2879,7_S
1789469805.751323,2094,2877,7_S
1789469805.752615,2244,2879,7_S
1789469805.754677,2249,2880,7_S
1789469805.7569752,2143,2879,7_S
1789469805.763154,2030,2878,7_S
1789469805.763639,2123,2879,7_S
1789469805.7658932,2145,2879,7_S
1789469805.7662039,1960,2877,7_S
1789469805.767982,1941,2878,7_S
1789469805.76954,2117,2878,7_S
1789469805.771342,2209,2878,7_S
1789469805.773629,2102,2880,7_S
1789469805.775879,2021,2879,7_S
1789469805.777184,2130,2878,7_S
1789469805.778477,2158,2879,7_S
1789469805.7810261,2005,2877,7_S
1789469805.785774,2057,2879,7_S
1789469805.78627,2049,2879,7_S
1789469805.788428,2160,2878,7_S
1789469805.788579,2142,2879,7_S
1789469805.79188,1994,2879,7_S
1789469805.793448,2048,2878,7_S
1789469805.795691,2064,2878,7_S
1789469805.7977002,2072,2880,7_S
1789469805.798926,1985,2878,7_S
1789469805.801245,1864,2878,7_S
1789469805.802542,2240,2879,7_S
1789469805.804661,2093,2878,7_S
1789469805.8070028,2095,2878,7_S
1789469805.809323,1953,2879,7_S
1789469805.8104022,2304,2879,7_S
1789469805.812726,2366,2881,7_S
1789469805.8148851,1676,2878,7_S
1789469805.8172002,1827,2880,7_S
1789469805.819511,2184,2878,7_S
1789469805.820682,2242,2878,7_S
1789469805.823234,2139,2880,7_S
1789469805.824439,1862,2879,7_S
1789469805.8266392,1955,2878,7_S
1789469805.829086,2074,2879,7_S
1789469805.831381,2125,2879,7_S
1789469805.832503,1912,2878,7_S
1789469805.834757,2044,2879,7_S
1789469805.837309,2345,2879,7_S
1789469805.838377,2418,2882,7_S
1789469805.8404632,1745,2877,7_S
1789469805.842849,2104,2879,7_S
1789469805.84516,2345,2879,7_S
1789469805.8474739,1990,2880,7_S
1789469805.848768,1710,2878,7_S
1789469805.851077,1819,2878,7_S
1789469805.852381,2239,2879,7_S
1789469805.8549051,2230,2881,7_S
1789469805.8604748,1984,2880,7_S
1789469805.861017,2017,2880,7_S
1789469805.861797,2111,2879,7_S
1789469805.863607,2180,2880,7_S
1789469805.8654988,2012,2878,7_S
1789469805.866841,1958,2879,7_S
1789469805.868883,2120,2879,7_S
1789469805.871453,2149,2879,7_S
1789469805.873588,1998,2877,7_S
1789469805.874659,1937,2879,7_S
1789469805.876977,2014,2878,7_S
1789469805.8783581,2161,2878,7_S
1789469805.884604,1986,2877,7_S
1789469805.884713,1909,2879,7_S
1789469805.88553,2081,2879,7_S
1789469805.887455,2254,2879,7_S
1789469805.889364,2129,2880,7_S
1789469805.891308,1985,2878,7_S
1789469805.894872,1789,2879,7_S
1789469805.895017,2145,2879,7_S
1789469805.896953,1995,2880,7_S
1789469805.8995242,1773,2877,7_S
1789469805.9005692,2102,2879,7_S
1789469805.9031181,2241,2880,7_S
1789469805.904426,2154,2879,7_S
1789469805.906743,2028,2880,7_S
1789469805.9090502,2025,2879,7_S
1789469805.911278,1953,2878,7_S
1789469805.912568,2062,2879,7_S
1789469805.914885,1826,2878,7_S
1789469805.91726,2020,2879,7_S
1789469805.918553,2144,2879,7_S
1789469805.9211001,2398,2881,7_S
1789469805.922394,1881,2876,7_S
1789469805.924837,2114,2880,7_S
1789469805.927383,1827,2878,7_S
1789469805.928672,2247,2880,7_S
1789469805.9308019,2064,2880,7_S
1789469805.933347,1917,2878,7_S
1789469805.934636,1882,2880,7_S
1789469805.937184,2315,2881,7_S
1789469805.939497,2058,2877,7_S
1789469805.940789,1948,2880,7_S
1789469805.943106,2104,2880,7_S
1789469805.944397,2219,2878,7_S
1789469805.9469519,2001,2879,7_S
1789469805.949014,1841,2878,7_S
1789469805.951327,1920,2879,7_S
1789469805.956701,2226,2879,7_S
1789469805.957081,2305,2880,7_S
1789469805.9572392,2028,2879,7_S
1789469805.959469,2006,2878,7_S
1789469805.9613628,2154,2880,7_S
1789469805.963032,2230,2879,7_S
1789469805.964732,1879,2878,7_S
1789469805.967116,1983,2880,7_S
1789469805.9691389,2185,2880,7_S
1789469805.970439,2285,2881,7_S
1789469805.97276,2229,2880,7_S
1789469805.9752162,2109,2878,7_S
1789469805.979303,2356,2880,7_S
1789469805.9800901,2112,2879,7_S
1789469805.9818811,2001,2878,7_S
1789469805.983739,2099,2879,7_S
1789469805.98574,2270,2879,7_S
1789469805.9893088,2197,2877,7_S
1789469805.989493,2050,2879,7_S
1789469805.991086,2095,2879,7_S
1789469805.992395,2018,2879,7_S
1789469805.9949481,2253,2879,7_S
1789469805.997011,2103,2878,7_S
1789469805.998357,1996,2877,7_S
1789469806.0009332,2120,2879,7_S
1789469806.003245,2157,2878,7_S
1789469806.0045419,2417,2880,7_S
1789469806.006845,2123,2878,7_S
1789469806.009393,1974,2878,7_S
1789469806.010446,2250,2879,7_S
1789469806.012744,2287,2881,7_S
1789469806.014814,2026,2877,7_S
1789469806.017117,1985,2879,7_S
1789469806.018382,2006,2879,7_S
1789469806.020684,2202,2879,7_S
1789469806.022798,2068,2880,7_S
1789469806.025344,2066,2879,7_S
1789469806.026635,2245,2880,7_S
1789469806.0287051,2111,2878,7_S
1789469806.031005,1926,2878,7_S
1789469806.033317,2464,2881,7_S
1789469806.0343838,1767,2878,7_S
1789469806.0366888,2229,2880,7_S
1789469806.039236,2187,2879,7_S
1789469806.040527,1888,2878,7_S
1789469806.042826,2088,2878,7_S
1789469806.045138,2173,2878,7_S
1789469806.0474508,2139,2879,7_S
1789469806.0519638,1852,2877,7_S
1789469806.052758,1991,2879,7_S
1789469806.053569,1969,2879,7_S
1789469806.056792,2219,2878,7_S
1789469806.057153,2023,2880,7_S
1789469806.0596108,1926,2879,7_S
1789469806.062115,1639,2876,7_S
1789469806.063773,1749,2877,7_S
1789469806.0648232,2207,2881,7_S
1789469806.067178,1846,2878,7_S
1789469806.068469,1893,2879,7_S
1789469806.074539,2425,2880,7_S
1789469806.074643,1951,2878,7_S
1789469806.075441,2194,2879,7_S
1789469806.077014,1986,2879,7_S
1789469806.078815,2489,2880,7_S
1789469806.082059,1739,2877,7_S
1789469806.0845041,1627,2879,7_S
1789469806.0846279,2341,2879,7_S
1789469806.08749,2070,2877,7_S
1789469806.088693,2372,2881,7_S
1789469806.0912452,1665,2876,7_S
1789469806.092545,2410,2880,7_S
1789469806.094707,1874,2878,7_S
1789469806.097066,2089,2879,7_S
1789469806.0983832,2234,2880,7_S
1789469806.100508,2110,2878,7_S
1789469806.102814,1658,2879,7_S
1789469806.1051211,2186,2878,7_S
1789469806.107436,1588,2877,7_S
1789469806.1087282,1901,2879,7_S
1789469806.11101,1750,2880,7_S
1789469806.113085,1837,2876,7_S
1789469806.114379,1773,2878,7_S
1789469806.1165671,1937,2879,7_S
1789469806.118885,2046,2879,7_S
1789469806.12144,2160,2878,7_S
1789469806.122732,2208,2880,7_S
1789469806.125293,1968,2879,7_S
1789469806.126592,1835,2878,7_S
1789469806.12914,2065,2879,7_S
1789469806.130431,1957,2877,7_S
1789469806.132926,2273,2881,7_S
1789469806.135472,2006,2879,7_S
1789469806.1367621,1842,2877,7_S
1789469806.1393101,1865,2878,7_S
1789469806.1406,1961,2877,7_S
1789469806.1466398,2047,2879,7_S
1789469806.1467671,2170,2879,7_S
1789469806.147192,2075,2879,7_S
1789469806.1492789,1973,2878,7_S
1789469806.151864,1730,2878,7_S
1789469806.156729,1894,2878,7_S
1789469806.1569989,2105,2879,7_S
1789469806.157156,2039,2877,7_S
1789469806.15906,1812,2876,7_S
1789469806.161367,1972,2878,7_S
1789469806.1626601,1866,2877,7_S
1789469806.169356,1480,2877,7_S
1789469806.169488,1510,2877,7_S
1789469806.170246,1799,2878,7_S
1789469806.173119,1996,2878,7_S
1789469806.173545,1971,2877,7_S
1789469806.1752388,1854,2880,7_S
1789469806.176916,1848,2879,7_S
1789469806.1793878,1861,2878,7_S
1789469806.181491,1500,2876,7_S
1789469806.1827872,1250,2877,7_S
1789469806.185091,1522,2878,7_S
1789469806.186393,1796,2878,7_S
1789469806.1887171,1728,2877,7_S
1789469806.191285,1718,2876,7_S
1789469806.192356,1613,2879,7_S
1789469806.19467,1658,2877,7_S
1789469806.197221,1553,2876,7_S
1789469806.1985128,1481,2878,7_S
1789469806.20082,1727,2878,7_S
1789469806.2031271,1932,2879,7_S
1789469806.2044249,1610,2878,7_S
1789469806.2069929,1501,2877,7_S
1789469806.209312,1729,2879,7_S
1789469806.210602,2094,2880,7_S
1789469806.213152,2006,2877,7_S
1789469806.214394,1722,2878,7_S
1789469806.216946,1693,2879,7_S
1789469806.2194922,1882,2879,7_S
1789469806.22068,2176,2879,7_S
1789469806.223229,2219,2880,7_S
1789469806.2253592,2069,2879,7_S
1789469806.226418,2140,2880,7_S
1789469806.2284858,2235,2880,7_S
1789469806.230795,1914,2878,7_S
1789469806.233104,1926,2879,7_S
1789469806.234401,2185,2879,7_S
1789469806.236971,2416,2883,7_S
1789469806.2422662,2378,2880,7_S
1789469806.243084,2167,2879,7_S
1789469806.2432241,2104,2880,7_S
1789469806.245099,2263,2879,7_S
1789469806.248427,2203,2880,7_S
1789469806.248848,2052,2879,7_S
1789469806.252714,2136,2879,7_S
1789469806.252952,2252,2880,7_S
1789469806.25454,2269,2881,7_S
1789469806.257121,2049,2879,7_S
1789469806.259379,2041,2880,7_S
1789469806.26043,2216,2880,7_S
1789469806.2652218,2305,2880,7_S
1789469806.265318,2006,2878,7_S
1789469806.267675,2064,2879,7_S
1789469806.269173,2083,2878,7_S
1789469806.2705212,2173,2879,7_S
1789469806.272759,2139,2880,7_S
1789469806.275276,1921,2879,7_S
1789469806.277313,1902,2879,7_S
1789469806.2786171,1893,2879,7_S
1789469806.281172,1870,2878,7_S
1789469806.283487,2083,2879,7_S
1789469806.2845461,2310,2878,7_S
1789469806.2871082,2262,2879,7_S
1789469806.288407,2142,2880,7_S
1789469806.290964,1949,2878,7_S
1789469806.293277,2293,2880,7_S
1789469806.2944472,2313,2880,7_S
1789469806.2969952,2347,2880,7_S
1789469806.298401,1829,2879,7_S
1789469806.3005068,1718,2879,7_S
1789469806.302805,2259,2880,7_S
1789469806.305353,2496,2880,7_S
1789469806.306407,1924,2880,7_S
1789469806.308961,2171,2880,7_S
1789469806.3110259,2203,2879,7_S
1789469806.313086,2599,2881,7_S
1789469806.3153868,2037,2879,7_S
1789469806.316577,1829,2880,7_S
1789469806.319106,2377,2880,7_S
1789469806.3203971,2203,2879,7_S
1789469806.322943,2183,2880,7_S
1789469806.3254862,2324,2881,7_S
1789469806.326777,2545,2880,7_S
1789469806.329324,1872,2880,7_S
1789469806.330616,1973,2878,7_S
1789469806.336674,1467,2880,7_S
1789469806.337089,3071,2884,7_S
1789469806.337824,1468,2879,7_S
1789469806.339089,2202,2881,7_S
1789469806.340887,2351,2880,7_S
1789469806.343929,1613,2878,7_S
1789469806.346624,2190,2880,7_S
1789469806.346844,2199,2881,7_S
1789469806.349312,1904,2878,7_S
1789469806.350392,1955,2879,7_S
1789469806.352694,2236,2880,7_S
1789469806.358166,2372,2881,7_S
1789469806.358654,2231,2880,7_S
1789469806.35967,1926,2880,7_S
1789469806.362699,2342,2881,7_S
1789469806.36313,2134,2879,7_S
1789469806.365536,1732,2878,7_S
1789469806.367984,1624,2879,7_S
1789469806.369982,2431,2879,7_S
1789469806.371289,2406,2881,7_S
1789469806.372407,1982,2880,7_S
1789469806.374717,1897,2879,7_S
1789469806.3773031,2029,2880,7_S
1789469806.378401,2147,2880,7_S
1789469806.38096,1914,2877,7_S
1789469806.38323,2003,2879,7_S
1789469806.384393,2286,2879,7_S
1789469806.386942,2286,2879,7_S
1789469806.389256,2273,2881,7_S
1789469806.390369,2023,2879,7_S
1789469806.3929129,2015,2879,7_S
1789469806.395267,2154,2879,7_S
1789469806.396555,2065,2880,7_S
1789469806.408586,1909,2880,7_S
1789469806.4086232,2037,2879,7_S
1789469806.4086552,2229,2880,7_S
1789469806.408685,2196,2880,7_S
1789469806.408714,2087,2880,7_S
1789469806.4087439,2008,2879,7_S
1789469806.411414,2167,2881,7_S
1789469806.41277,2140,2881,7_S
1789469806.415371,1863,2877,7_S
1789469806.4167051,2032,2880,7_S
1789469806.419641,2170,2879,7_S
1789469806.4210198,2145,2879,7_S
1789469806.4224,2158,2879,7_S
1789469806.4304,2104,2879,7_S
1789469806.4318552,2164,2880,7_S
1789469806.4342458,2223,2881,7_S
1789469806.434842,2122,2880,7_S
1789469806.4381099,1992,2880,7_S
1789469806.4413261,2165,2880,7_S
1789469806.441961,2324,2880,7_S
1789469806.444127,2280,2881,7_S
1789469806.444329,2107,2879,7_S
1789469806.444402,1994,2879,7_S
1789469806.4444668,2183,2880,7_S
1789469806.447065,2221,2880,7_S
1789469806.448396,1795,2877,7_S
1789469806.458694,1953,2879,7_S
1789469806.4614651,2262,2880,7_S
1789469806.46348,2239,2880,7_S
1789469806.465019,2129,2879,7_S
1789469806.465232,1957,2879,7_S
1789469806.465399,2054,2879,7_S
1789469806.465556,2077,2880,7_S
1789469806.469214,1908,2879,7_S
1789469806.471647,1981,2879,7_S
1789469806.471746,2217,2878,7_S
1789469806.471851,2254,2879,7_S
1789469806.4732502,2194,2879,7_S
1789469806.474802,2038,2879,7_S
1789469806.477431,1987,2879,7_S
1789469806.478795,2125,2879,7_S
1789469806.4814541,1966,2877,7_S
1789469806.4828238,2009,2879,7_S
1789469806.484452,2193,2879,7_S
1789469806.4872189,2131,2879,7_S
1789469806.4889119,2162,2880,7_S
1789469806.491555,2014,2879,7_S
1789469806.492907,1963,2878,7_S
1789469806.496077,2233,2880,7_S
1789469806.497421,2098,2880,7_S
1789469806.498778,1801,2879,7_S
1789469806.5016031,2000,2879,7_S
1789469806.50284,2226,2879,7_S
1789469806.5055768,2204,2880,7_S
1789469806.506827,2162,2880,7_S
1789469806.509491,2170,2880,7_S
1789469806.510761,2231,2879,7_S
1789469806.51338,2130,2880,7_S
1789469806.514724,1961,2878,7_S
1789469806.517418,2047,2878,7_S
1789469806.51879,2158,2879,7_S
1789469806.521877,2238,2879,7_S
1789469806.523263,2124,2880,7_S
1789469806.524607,1885,2878,7_S
1789469806.527297,1968,2879,7_S
1789469806.528682,2205,2880,7_S
1789469806.5314639,2001,2877,7_S
1789469806.532865,1950,2879,7_S
1789469806.5406048,2126,2879,7_S
1789469806.5449421,2261,2879,7_S
1789469806.545186,2239,2881,7_S
1789469806.5462599,2028,2879,7_S
1789469806.5474198,2039,2879,7_S
1789469806.5498931,2230,2880,7_S
1789469806.553579,2134,2880,7_S
1789469806.5537002,1894,2878,7_S
1789469806.55664,2014,2881,7_S
1789469806.556774,2254,2879,7_S
1789469806.556844,2278,2881,7_S
1789469806.5569081,2061,2880,7_S
1789469806.559649,2005,2879,7_S
1789469806.561075,2242,2880,7_S
1789469806.5624452,2059,2879,7_S
1789469806.57247,1905,2878,7_S
1789469806.574552,1968,2879,7_S
1789469806.575217,2166,2879,7_S
1789469806.5758889,2300,2881,7_S
1789469806.577055,2135,2880,7_S
1789469806.580239,1963,2878,7_S
1789469806.580578,1996,2879,7_S
1789469806.584495,2175,2881,7_S
1789469806.584904,2074,2877,7_S
1789469806.585144,2060,2878,7_S
1789469806.5874848,2199,2878,7_S
1789469806.587615,2305,2879,7_S
1789469806.589053,2248,2880,7_S
1789469806.590394,2139,2879,7_S
1789469806.593067,2072,2878,7_S
1789469806.594412,2267,2879,7_S
1789469806.596986,2195,2881,7_S
1789469806.598399,2100,2878,7_S
1789469806.601187,2062,2879,7_S
1789469806.6025548,2320,2878,7_S
1789469806.605261,2373,2880,7_S
1789469806.606614,2239,2878,7_S
1789469806.609225,2235,2879,7_S
1789469806.610563,2361,2879,7_S
1789469806.613176,2281,2880,7_S
1789469806.614513,2046,2878,7_S
1789469806.6172621,2040,2879,7_S
1789469806.618648,2174,2880,7_S
1789469806.621456,2238,2879,7_S
1789469806.622875,2131,2879,7_S
1789469806.625344,2001,2879,7_S
1789469806.626683,2141,2879,7_S
1789469806.629281,2220,2879,7_S
1789469806.630667,2001,2879,7_S
1789469806.633312,2032,2880,7_S
1789469806.634681,2185,2880,7_S
1789469806.637308,2244,2880,7_S
1789469806.638716,2272,2881,7_S
1789469806.640898,2177,2879,7_S
1789469806.643117,2139,2879,7_S
1789469806.644465,2222,2880,7_S
1789469806.647131,2107,2879,7_S
1789469806.6484811,1940,2878,7_S
1789469806.651434,2040,2880,7_S
1789469806.653424,2246,2879,7_S
1789469806.6548128,2253,2880,7_S
1789469806.656427,2089,2880,7_S
1789469806.6887748,2098,2879,7_S
1789469806.688843,2235,2879,7_S
1789469806.6888902,2210,2880,7_S
1789469806.6889348,2003,2878,7_S
1789469806.688978,2076,2879,7_S
1789469806.689019,2204,2878,7_S
1789469806.689625,2251,2879,7_S
1789469806.690141,2183,2880,7_S
1789469806.690186,2122,2879,7_S
1789469806.690229,2165,2879,7_S
1789469806.690271,2173,2877,7_S
1789469806.6903129,1930,2878,7_S
1789469806.690361,1908,2879,7_S
1789469806.690402,2130,2879,7_S
1789469806.6906,2231,2879,7_S
1789469806.6906722,2263,2879,7_S
1789469806.6924841,2040,2879,7_S
1789469806.6925309,2026,2879,7_S
1789469806.703119,2197,2880,7_S
1789469806.70637,2076,2880,7_S
1789469806.7171042,1972,2879,7_S
1789469806.718912,2210,2879,7_S
1789469806.718982,2365,2879,7_S
1789469806.719029,2274,2881,7_S
1789469806.719075,2112,2879,7_S
1789469806.719122,2037,2878,7_S
1789469806.719168,2196,2880,7_S
1789469806.719214,2159,2880,7_S
1789469806.719258,1986,2877,7_S
1789469806.719302,1994,2878,7_S
1789469806.719347,2063,2879,7_S
1789469806.7206862,2173,2878,7_S
1789469806.7235131,2120,2880,7_S
1789469806.725106,1982,2879,7_S
1789469806.72646,2291,2879,7_S
1789469806.729072,2326,2880,7_S
1789469806.730412,1923,2877,7_S
1789469806.733026,1961,2879,7_S
1789469806.7344482,2156,2880,7_S
1789469806.736695,2270,2878,7_S
1789469806.7394528,2252,2880,7_S
1789469806.740982,2117,2879,7_S
1789469806.742383,1931,2877,7_S
1789469806.7450829,2121,2879,7_S
1789469806.746432,2072,2880,7_S
1789469806.7488708,1899,2879,7_S
1789469806.7515478,2103,2879,7_S
1789469806.75306,2224,2881,7_S
1789469806.754465,2249,2881,7_S
1789469806.7571452,2039,2879,7_S
1789469806.758501,2022,2879,7_S
1789469806.761111,2195,2880,7_S
1789469806.7624671,2135,2880,7_S
1789469806.7650812,1779,2878,7_S
1789469806.766437,1905,2880,7_S
1789469806.7691689,2251,2880,7_S
1789469806.770587,2303,2881,7_S
1789469806.773225,2173,2881,7_S
1789469806.77466,2023,2879,7_S
1789469806.777316,2111,2880,7_S
1789469806.778721,2265,2880,7_S
1789469806.781125,2034,2878,7_S
1789469806.78254,2056,2879,7_S
1789469806.7852669,2157,2879,7_S
1789469806.786751,2281,2878,7_S
1789469806.790254,2148,2880,7_S
1789469806.790412,1970,2878,7_S
1789469806.8015518,2052,2879,7_S
1789469806.8047261,2259,2879,7_S
1789469806.805046,1997,2880,7_S
1789469806.8079202,1863,2878,7_S
1789469806.813365,2102,2879,7_S
1789469806.817418,2095,2880,7_S
1789469806.817699,2068,2878,7_S
1789469806.8179781,2142,2881,7_S
1789469806.8181288,2045,2880,7_S
1789469806.818332,2246,2881,7_S
1789469806.8185961,2160,2880,7_S
1789469806.820781,1846,2877,7_S
1789469806.8216262,2051,2879,7_S
1789469806.821704,2307,2879,7_S
1789469806.821753,2305,2880,7_S
1789469806.823066,2186,2879,7_S
1789469806.825666,1968,2879,7_S
1789469806.82675,2040,2878,7_S
1789469806.8294232,2162,2879,7_S
1789469806.831002,1981,2878,7_S
1789469806.832385,2027,2879,7_S
1789469806.835029,2156,2881,7_S
1789469806.836438,2176,2879,7_S
1789469806.845206,2156,2881,7_S
1789469806.8461828,2130,2878,7_S
1789469806.84846,2171,2881,7_S
1789469806.8489869,2239,2880,7_S
1789469806.8524292,2060,2879,7_S
1789469806.853497,1870,2880,7_S
1789469806.854723,2091,2880,7_S
1789469806.856904,2188,2878,7_S
1789469806.860929,2185,2878,7_S
1789469806.861214,2048,2879,7_S
1789469806.86149,2008,2879,7_S
1789469806.861782,2098,2878,7_S
1789469806.864445,2144,2878,7_S
1789469806.8645551,1914,2878,7_S
1789469806.867024,1978,2879,7_S
1789469806.868395,2206,2880,7_S
1789469806.8704891,2276,2879,7_S
1789469806.872592,2174,2879,7_S
1789469806.87495,2117,2879,7_S
1789469806.877301,2126,2879,7_S
1789469806.878434,2179,2879,7_S
1789469806.880907,2018,2877,7_S
1789469806.8835032,1925,2878,7_S
1789469806.884563,2158,2880,7_S
1789469806.8866508,2241,2879,7_S
1789469806.8887959,2095,2880,7_S
1789469806.891146,2052,2879,7_S
1789469806.893229,1984,2879,7_S
1789469806.894567,2143,2878,7_S
1789469806.896984,2033,2880,7_S
1789469806.898407,1954,2877,7_S
1789469806.9009778,2046,2878,7_S
1789469806.903305,2206,2879,7_S
1789469806.9044118,2217,2880,7_S
1789469806.906759,2119,2879,7_S
1789469806.9089851,2076,2880,7_S
1789469806.911305,2220,2879,7_S
1789469806.912541,2171,2881,7_S
1789469806.914869,1955,2878,7_S
1789469806.916994,1980,2879,7_S
1789469806.918427,2139,2879,7_S
1789469806.9209971,2161,2880,7_S
1789469806.9230762,2080,2879,7_S
1789469806.9253929,1972,2879,7_S
1789469806.9264598,2052,2879,7_S
1789469806.928543,2134,2878,7_S
1789469806.930717,1964,2877,7_S
1789469806.9328058,1934,2879,7_S
1789469806.935371,2142,2878,7_S
1789469806.936678,2218,2879,7_S
1789469806.939015,2160,2880,7_S
1789469806.945936,2023,2878,7_S
1789469806.94766,2006,2879,7_S
1789469806.949829,2134,2880,7_S
1789469806.9500601,2066,2879,7_S
1789469806.950355,1924,2879,7_S
1789469806.9505012,2020,2878,7_S
1789469806.954845,2202,2878,7_S
1789469806.9554298,2204,2880,7_S
1789469806.95791,2088,2880,7_S
1789469806.963053,1996,2878,7_S
1789469806.9665658,2118,2879,7_S
1789469806.96667,2165,2880,7_S
1789469806.966839,1961,2877,7_S
1789469806.967019,1962,2879,7_S
1789469806.9692538,2090,2880,7_S
1789469806.9707189,2207,2879,7_S
1789469806.973032,2202,2880,7_S
1789469806.974452,2042,2879,7_S
1789469806.987892,2082,2878,7_S
1789469806.989755,2125,2879,7_S
1789469806.990054,1952,2878,7_S
1789469806.991254,2011,2879,7_S
1789469806.994071,2124,2880,7_S
1789469806.9978309,2217,2880,7_S
1789469806.998369,2177,2879,7_S
1789469806.998594,2047,2879,7_S
1789469806.99888,2038,2879,7_S
1789469806.999114,2196,2879,7_S
1789469806.999386,2096,2881,7_S
1789469807.0022411,1930,2879,7_S
1789469807.002325,2012,2879,7_S
1789469807.002437,2165,2878,7_S
1789469807.004853,2204,2881,7_S
1789469807.0071669,2069,2880,7_S
1789469807.0093088,1983,2879,7_S
1789469807.0106099,2115,2880,7_S
1789469807.0128078,2128,2881,7_S
1789469807.0153532,1950,2878,7_S
1789469807.016597,1985,2879,7_S
1789469807.0190039,2145,2880,7_S
1789469807.0214279,2217,2878,7_S
1789469807.022569,2107,2880,7_S
1789469807.024981,2015,2879,7_S
1789469807.0263932,1978,2878,7_S
1789469807.028793,2164,2879,7_S
1789469807.03147,2032,2879,7_S
1789469807.0328572,1950,2879,7_S
1789469807.0359612,2085,2880,7_S
1789469807.037486,2190,2878,7_S
1789469807.038861,2230,2881,7_S
1789469807.0415099,2084,2879,7_S
1789469807.042752,2034,2879,7_S
1789469807.0452359,2127,2879,7_S
1789469807.0465128,2087,2880,7_S
1789469807.048703,1949,2877,7_S
1789469807.051378,2043,2880,7_S
1789469807.052851,2217,2879,7_S
1789469807.05535,2245,2880,7_S
1789469807.0566962,2129,2880,7_S
1789469807.059232,2063,2879,7_S
1789469807.060585,2196,2880,7_S
1789469807.0628538,2239,2880,7_S
1789469807.0650911,1974,2878,7_S
1789469807.0664692,2001,2879,7_S
1789469807.069071,2152,2878,7_S
1789469807.070613,2250,2880,7_S
1789469807.07311,2128,2880,7_S
1789469807.074479,2038,2879,7_S
1789469807.077117,2101,2878,7_S
1789469807.078502,2203,2879,7_S
1789469807.085632,2039,2880,7_S
1789469807.086379,2013,2878,7_S
1789469807.087604,2114,2878,7_S
1789469807.089983,2222,2879,7_S
1789469807.092932,2169,2880,7_S
1789469807.0936131,2069,2878,7_S
1789469807.095434,2098,2879,7_S
1789469807.0956979,2234,2879,7_S
1789469807.0987232,2092,2880,7_S
1789469807.102467,1929,2878,7_S
1789469807.102762,2044,2879,7_S
1789469807.102993,2203,2879,7_S
1789469807.1057541,2226,2880,7_S
1789469807.10708,2130,2879,7_S
1789469807.109206,2047,2879,7_S
1789469807.1105568,2122,2879,7_S
1789469807.1129332,2156,2880,7_S
1789469807.121183,1974,2878,7_S
1789469807.121848,1940,2878,7_S
1789469807.124017,2131,2879,7_S
1789469807.124257,2176,2879,7_S
1789469807.124508,2122,2880,7_S
1789469807.1263402,2041,2878,7_S
1789469807.127823,2063,2880,7_S
1789469807.13016,2163,2878,7_S
1789469807.132187,2009,2877,7_S
1789469807.135762,1951,2879,7_S
1789469807.135987,2074,2879,7_S
1789469807.1389692,2204,2879,7_S
1789469807.139019,2159,2880,7_S
1789469807.140505,2052,2878,7_S
1789469807.1428769,2034,2879,7_S
1789469807.144973,2149,2879,7_S
1789469807.147063,2030,2879,7_S
1789469807.149164,1923,2879,7_S
1789469807.151252,2026,2879,7_S
1789469807.152698,2160,2878,7_S
1789469807.155308,2208,2881,7_S
1789469807.156416,2109,2879,7_S
1789469807.159005,1982,2878,7_S
1789469807.161108,2123,2879,7_S
1789469807.163444,2147,2880,7_S
1789469807.16451,1928,2879,7_S
1789469807.166906,1941,2879,7_S
1789469807.1693928,2116,2879,7_S
1789469807.1705768,2301,2881,7_S
1789469807.173038,2208,2880,7_S
1789469807.174387,1642,2877,7_S
1789469807.176759,1929,2879,7_S
1789469807.179123,2203,2880,7_S
1789469807.181565,2118,2881,7_S
1789469807.182644,2040,2878,7_S
1789469807.1852238,1989,2878,7_S
1789469807.186545,2061,2878,7_S
1789469807.188873,2293,2880,7_S
1789469807.191042,2118,2879,7_S
1789469807.19313,2120,2880,7_S
1789469807.194444,2113,2879,7_S
1789469807.1971142,1853,2876,7_S
1789469807.1984,1747,2879,7_S
1789469807.201068,1947,2879,7_S
1789469807.203242,2163,2879,7_S
1789469807.204415,2196,2880,7_S
1789469807.207017,2086,2879,7_S
1789469807.208448,2241,2881,7_S
1789469807.21056,2326,2879,7_S
1789469807.212663,1947,2879,7_S
1789469807.215256,1903,2879,7_S
1789469807.217469,1864,2878,7_S
1789469807.2239082,2062,2878,7_S
1789469807.224545,2385,2882,7_S
1789469807.225902,1778,2877,7_S
1789469807.226513,1701,2875,7_S
1789469807.228408,1991,2878,7_S
1789469807.228808,2292,2881,7_S
1789469807.23153,2060,2880,7_S
1789469807.236522,1910,2877,7_S
1789469807.2401721,1979,2878,7_S
1789469807.2404742,2010,2879,7_S
1789469807.240866,2097,2878,7_S
1789469807.241357,1972,2879,7_S
1789469807.244122,1924,2879,7_S
1789469807.245912,2081,2879,7_S
1789469807.247062,1986,2880,7_S
1789469807.248414,1952,2879,7_S
1789469807.251025,1897,2879,7_S
1789469807.252658,2393,2879,7_S
1789469807.26246,2199,2878,7_S
1789469807.264738,1838,2879,7_S
1789469807.264954,1968,2879,7_S
1789469807.267617,2094,2879,7_S
1789469807.268786,2133,2879,7_S
1789469807.268938,1898,2878,7_S
1789469807.2704551,1763,2878,7_S
1789469807.273122,1932,2878,7_S
1789469807.2734258,2112,2878,7_S
1789469807.276971,2141,2880,7_S
1789469807.27719,1983,2879,7_S
1789469807.2779,2042,2878,7_S
1789469807.280606,2129,2880,7_S
1789469807.2806568,1979,2876,7_S
1789469807.283006,2031,2880,7_S
1789469807.284566,2018,2880,7_S
1789469807.287245,2021,2879,7_S
1789469807.288681,2184,2881,7_S
1789469807.290776,2103,2880,7_S
1789469807.2928839,2066,2880,7_S
1789469807.2949781,2127,2879,7_S
1789469807.297313,2018,2879,7_S
1789469807.298382,1992,2878,7_S
1789469807.300471,1904,2878,7_S
1789469807.302582,2223,2879,7_S
1789469807.304966,2154,2878,7_S
1789469807.307314,2165,2881,7_S
1789469807.30863,1995,2879,7_S
1789469807.3109708,2064,2879,7_S
1789469807.313153,2135,2880,7_S
1789469807.3144808,1917,2877,7_S
1789469807.316679,2010,2879,7_S
1789469807.318757,2242,2880,7_S
1789469807.321077,2076,2879,7_S
1789469807.323167,2059,2877,7_S
1789469807.3244958,2024,2878,7_S
1789469807.326833,2163,2880,7_S
1789469807.3290071,1997,2880,7_S
1789469807.331092,1898,2877,7_S
1789469807.3324008,1826,2878,7_S
1789469807.334974,2138,2878,7_S
1789469807.337356,2313,2879,7_S
1789469807.33868,2262,2882,7_S
1789469807.3410099,2276,2879,7_S
1789469807.343107,2031,2879,7_S
1789469807.345272,2095,2879,7_S
1789469807.346397,2193,2880,7_S
1789469807.348741,1976,2878,7_S
1789469807.3508239,1972,2880,7_S
1789469807.353157,2049,2880,7_S
1789469807.3554828,2014,2879,7_S
1789469807.357002,2178,2881,7_S
1789469807.362838,2109,2878,7_S
1789469807.364558,2394,2879,7_S
1789469807.366921,2226,2879,7_S
1789469807.3672,2187,2881,7_S
1789469807.367394,1960,2879,7_S
1789469807.370027,2078,2880,7_S
1789469807.371994,2322,2879,7_S
1789469807.378022,2150,2880,7_S
1789469807.378338,2000,2879,7_S
1789469807.37861,2092,2878,7_S
1789469807.3791978,2343,2880,7_S
1789469807.381859,1891,2876,7_S
1789469807.383036,1963,2879,7_S
1789469807.3854022,2079,2880,7_S
1789469807.38648,2012,2879,7_S
1789469807.388819,2371,2880,7_S
1789469807.3961952,1766,2877,7_S
1789469807.39697,2117,2880,7_S
1789469807.39804,1984,2879,7_S
1789469807.400413,2045,2880,7_S
1789469807.403405,2150,2877,7_S
1789469807.404522,1959,2879,7_S
1789469807.4051352,2398,2878,7_S
1789469807.40575,2459,2880,7_S
1789469807.408159,2002,2880,7_S
1789469807.413996,2121,2879,7_S
1789469807.4142878,2141,2880,7_S
1789469807.414444,2052,2879,7_S
1789469807.414492,1896,2877,7_S
1789469807.4168131,1857,2878,7_S
1789469807.419144,1957,2881,7_S
1789469807.420574,2226,2879,7_S
1789469807.4226649,1824,2877,7_S
1789469807.424774,2013,2879,7_S
1789469807.427358,1909,2879,7_S
1789469807.4284391,1955,2878,7_S
1789469807.43077,1793,2877,7_S
1789469807.433116,2191,2878,7_S
1789469807.43544,1639,2879,7_S
1789469807.436503,2188,2878,7_S
1789469807.438865,2255,2880,7_S
1789469807.441001,1898,2878,7_S
1789469807.443095,2039,2878,7_S
1789469807.445191,2258,2880,7_S
1789469807.446501,1910,2880,7_S
1789469807.4485838,2147,2878,7_S
1789469807.450675,1572,2879,7_S
1789469807.4527628,2604,2881,7_S
1789469807.457072,2166,2878,7_S
1789469807.45716,1671,2878,7_S
1789469807.458536,1901,2879,7_S
1789469807.460913,2443,2881,7_S
1789469807.463597,2371,2879,7_S
1789469807.464931,1706,2877,7_S
1789469807.467354,1621,2878,7_S
1789469807.4686668,2216,2880,7_S
1789469807.4714692,2595,2882,7_S
1789469807.472814,1986,2876,7_S
1789469807.475167,1817,2878,7_S
1789469807.4765399,2126,2879,7_S
1789469807.4788759,1926,2878,7_S
1789469807.480984,1771,2877,7_S
1789469807.4824,1687,2878,7_S
1789469807.484818,1792,2878,7_S
1789469807.4865339,2123,2878,7_S
1789469807.4891148,2262,2881,7_S
1789469807.4904041,2051,2879,7_S
1789469807.4970272,1811,2878,7_S
1789469807.4976692,2243,2880,7_S
1789469807.4982998,1974,2880,7_S
1789469807.499639,1665,2878,7_S
1789469807.5012832,2183,2878,7_S
1789469807.50569,2151,2879,7_S
1789469807.506909,2095,2877,7_S
1789469807.508804,1937,2880,7_S
1789469807.5090518,2037,2878,7_S
1789469807.514851,2045,2879,7_S
1789469807.515556,2346,2879,7_S
1789469807.5156438,2024,2878,7_S
1789469807.516958,1862,2878,7_S
1789469807.519988,1903,2879,7_S
1789469807.521334,2169,2878,7_S
1789469807.522648,1837,2878,7_S
1789469807.5250099,1802,2879,7_S
1789469807.532159,1933,2878,7_S
1789469807.5322828,1970,2879,7_S
1789469807.532984,1616,2877,7_S
1789469807.533748,1565,2879,7_S
1789469807.5387268,1702,2879,7_S
1789469807.5399349,1791,2879,7_S
1789469807.5401049,1715,2877,7_S
1789469807.5420742,1475,2877,7_S
1789469807.54451,1459,2876,7_S
1789469807.548065,1600,2877,7_S
1789469807.548542,1322,2876,7_S
1789469807.548778,1148,2877,7_S
1789469807.55168,1531,2878,7_S
1789469807.553152,2074,2878,7_S
1789469807.554471,2103,2878,7_S
1789469807.557048,1526,2878,7_S
1789469807.55993,1449,2876,7_S
1789469807.561252,1658,2876,7_S
1789469807.5628932,1860,2877,7_S
1789469807.565055,1532,2877,7_S
1789469807.5680509,1530,2877,7_S
1789469807.569387,1795,2877,7_S
1789469807.571015,1961,2878,7_S
1789469807.573347,2043,2880,7_S
1789469807.574751,1959,2879,7_S
1789469807.5769112,2003,2880,7_S
1789469807.579485,1941,2880,7_S
1789469807.580811,1882,2878,7_S
1789469807.583384,1913,2879,7_S
1789469807.584807,2214,2879,7_S
1789469807.587389,2322,2880,7_S
1789469807.588794,2115,2880,7_S
1789469807.5913038,2254,2879,7_S
1789469807.592643,2391,2880,7_S
1789469807.595007,2373,2880,7_S
1789469807.5971131,2137,2881,7_S
1789469807.5984519,2000,2878,7_S
1789469807.6011379,2102,2879,7_S
1789469807.603615,2283,2879,7_S
1789469807.604966,2343,2880,7_S
1789469807.607268,2174,2880,7_S
1789469807.6083698,2055,2879,7_S
1789469807.6107168,2186,2880,7_S
1789469807.612979,2324,2880,7_S
1789469807.6150641,2111,2877,7_S
1789469807.616439,2140,2879,7_S
1789469807.61878,2210,2879,7_S
1789469807.6208692,2200,2877,7_S
1789469807.62296,2126,2879,7_S
1789469807.625043,2042,2879,7_S
1789469807.6264021,2042,2878,7_S
1789469807.628726,2130,2879,7_S
1789469807.635895,1985,2878,7_S
1789469807.636767,1920,2878,7_S
1789469807.637983,1927,2880,7_S
1789469807.640546,2307,2880,7_S
1789469807.640699,1792,2877,7_S
1789469807.643426,1915,2880,7_S
1789469807.644135,2142,2878,7_S
1789469807.646018,2754,2881,7_S
1789469807.651961,2196,2880,7_S
1789469807.652361,1346,2878,7_S
1789469807.652822,2190,2880,7_S
1789469807.653127,2376,2881,7_S
1789469807.655798,2344,2882,7_S
1789469807.6568809,2310,2879,7_S
1789469807.659463,2067,2879,7_S
1789469807.660882,2284,2881,7_S
1789469807.6630569,2376,2880,7_S
1789469807.6647549,1856,2878,7_S
1789469807.672925,2368,2880,7_S
1789469807.673583,1957,2880,7_S
1789469807.6759229,2144,2878,7_S
1789469807.676341,2741,2881,7_S
1789469807.6799831,1986,2879,7_S
1789469807.680208,1740,2878,7_S
1789469807.680784,1891,2879,7_S
1789469807.682327,2022,2878,7_S
1789469807.687849,2211,2878,7_S
1789469807.6882648,2520,2882,7_S
1789469807.688629,2374,2881,7_S
1789469807.689034,2111,2880,7_S
1789469807.691436,1708,2875,7_S
1789469807.692857,2336,2880,7_S
1789469807.695222,2709,2881,7_S
1789469807.6965718,2800,2881,7_S
1789469807.699163,1343,2877,7_S
1789469807.701532,1902,2879,7_S
1789469807.702861,2235,2879,7_S
1789469807.704963,2485,2881,7_S
1789469807.70731,2139,2880,7_S
1789469807.7083871,1887,2879,7_S
1789469807.710711,1885,2879,7_S
1789469807.7127948,1919,2880,7_S
1789469807.715128,1952,2878,7_S
1789469807.717252,2038,2878,7_S
1789469807.718366,2181,2878,7_S
1789469807.720706,2221,2879,7_S
1789469807.723038,1977,2876,7_S
1789469807.7244601,1958,2878,7_S
1789469807.7265449,2047,2879,7_S
1789469807.728637,2189,2879,7_S
1789469807.730973,2015,2880,7_S
1789469807.733063,1871,2877,7_S
1789469807.735151,2037,2879,7_S
1789469807.736542,2138,2879,7_S
1789469807.7388842,2156,2881,7_S
1789469807.7411368,2110,2880,7_S
1789469807.7424068,2036,2877,7_S
1789469807.744968,2249,2879,7_S
1789469807.7475882,2021,2879,7_S
1789469807.7486598,1864,2878,7_S
1789469807.7509818,2114,2879,7_S
1789469807.7530692,2298,2880,7_S
1789469807.7544022,2280,2881,7_S
1789469807.756973,2224,2879,7_S
1789469807.759294,2171,2879,7_S
1789469807.760601,2218,2880,7_S
1789469807.762928,2233,2880,7_S
1789469807.7652469,2072,2879,7_S
1789469807.7665532,2121,2878,7_S
1789469807.772776,2271,2879,7_S
1789469807.7740722,2345,2880,7_S
1789469807.7747462,2180,2879,7_S
1789469807.775794,2096,2879,7_S
1789469807.777627,2125,2878,7_S
1789469807.779804,2191,2879,7_S
1789469807.781824,2034,2879,7_S
1789469807.785152,2036,2880,7_S
1789469807.7888,2148,2879,7_S
1789469807.788921,2228,2879,7_S
1789469807.789143,2207,2881,7_S
1789469807.792275,2097,2879,7_S
1789469807.792398,1983,2877,7_S
1789469807.794977,2146,2879,7_S
1789469807.7973099,2034,2879,7_S
1789469807.798431,1905,2878,7_S
1789469807.8007731,2003,2880,7_S
1789469807.806824,2232,2879,7_S
1789469807.807016,2283,2881,7_S
1789469807.807991,2120,2879,7_S
1789469807.8105311,2070,2878,7_S
1789469807.81073,2175,2879,7_S
1789469807.812799,2113,2879,7_S
1789469807.814941,1980,2877,7_S
1789469807.8177521,2030,2878,7_S
1789469807.821462,2228,2880,7_S
1789469807.821624,2224,2878,7_S
1789469807.824328,2159,2880,7_S
1789469807.82446,2093,2879,7_S
1789469807.826817,2119,2879,7_S
1789469807.8291662,2219,2879,7_S
1789469807.830453,2032,2879,7_S
1789469807.83303,1930,2878,7_S
1789469807.8344479,1972,2879,7_S
1789469807.837025,2144,2879,7_S
1789469807.8384042,2083,2877,7_S
1789469807.84059,2079,2878,7_S
1789469807.8429298,1893,2879,7_S
1789469807.8454988,2099,2879,7_S
1789469807.846806,2136,2879,7_S
1789469807.849364,1845,2877,7_S
1789469807.850414,1968,2879,7_S
1789469807.85264,2328,2879,7_S
1789469807.8551948,2316,2880,7_S
1789469807.856498,2078,2879,7_S
1789469807.858809,2081,2879,7_S
1789469807.861366,2120,2880,7_S
1789469807.862679,2183,2880,7_S
1789469807.8651578,2087,2877,7_S
1789469807.866457,2166,2879,7_S
1789469807.868767,2392,2879,7_S
1789469807.8713229,2322,2880,7_S
1789469807.872397,2174,2879,7_S
1789469807.874723,2137,2879,7_S
1789469807.8770418,2099,2879,7_S
1789469807.879137,2152,2880,7_S
1789469807.880446,2007,2877,7_S
1789469807.88305,2003,2878,7_S
1789469807.8844101,2055,2879,7_S
1789469807.886728,2300,2879,7_S
1789469807.888811,2258,2879,7_S
1789469807.891123,2139,2879,7_S
1789469807.892423,2272,2879,7_S
1789469807.894969,2075,2877,7_S
1789469807.900912,1903,2877,7_S
1789469807.901013,2124,2878,7_S
1789469807.9015958,2260,2878,7_S
1789469807.904199,2262,2879,7_S
1789469807.9066381,2242,2879,7_S
1789469807.907222,2137,2878,7_S
1789469807.909303,2143,2877,7_S
1789469807.910975,2264,2879,7_S
1789469807.9142752,2290,2879,7_S
1789469807.9145422,2075,2878,7_S
1789469807.916974,1987,2878,7_S
1789469807.919302,2087,2879,7_S
1789469807.920414,2082,2877,7_S
1789469807.922976,2168,2879,7_S
1789469807.9305081,2232,2879,7_S
1789469807.9320629,2175,2879,7_S
1789469807.932236,2263,2879,7_S
1789469807.9325492,2134,2879,7_S
1789469807.934307,2063,2879,7_S
1789469807.9347699,2210,2878,7_S
1789469807.9387589,2231,2878,7_S
1789469807.9389272,2213,2880,7_S
1789469807.9421241,2061,2879,7_S
1789469807.944795,2064,2878,7_S
1789469807.9448378,2245,2880,7_S
1789469807.9473972,2183,2879,7_S
1789469807.948704,1931,2878,7_S
1789469807.9507682,1949,2879,7_S
1789469807.9530811,2156,2879,7_S
1789469807.954401,2298,2880,7_S
1789469807.956736,2189,2881,7_S
1789469807.9590569,2061,2879,7_S
1789469807.9613812,2144,2879,7_S
1789469807.962681,2205,2880,7_S
1789469807.965137,2075,2879,7_S
1789469807.967216,2064,2879,7_S
1789469807.968516,2246,2879,7_S
1789469807.9708438,2363,2880,7_S
1789469807.9734201,2236,2879,7_S
1789469807.974726,2108,2878,7_S
1789469807.9770439,2115,2878,7_S
1789469807.979122,2258,2880,7_S
1789469807.9804218,1994,2877,7_S
1789469807.98275,1959,2879,7_S
1789469807.9848168,2146,2879,7_S
1789469807.987173,2252,2880,7_S
1789469807.988471,2159,2878,7_S
1789469807.990796,2067,2878,7_S
1789469807.99311,2010,2879,7_S
1789469807.995188,2132,2878,7_S
1789469807.997531,2107,2880,7_S
1789469807.998591,1978,2878,7_S
1789469808.001132,1988,2879,7_S
1789469808.0024362,2208,2879,7_S
1789469808.004749,2186,2878,7_S
1789469808.007306,2021,2879,7_S
1789469808.008393,2077,2879,7_S
1789469808.010953,2113,2880,7_S
1789469808.0182788,2232,2878,7_S
1789469808.019087,2008,2878,7_S
1789469808.02083,1994,2878,7_S
1789469808.021051,2113,2879,7_S
1789469808.0213299,2209,2878,7_S
1789469808.023344,2166,2879,7_S
1789469808.0252118,2016,2878,7_S
1789469808.027016,1954,2878,7_S
1789469808.029952,2032,2879,7_S
1789469808.0322418,2084,2880,7_S
1789469808.032446,1900,2878,7_S
1789469808.034772,2118,2879,7_S
1789469808.0370939,2157,2879,7_S
1789469808.038396,2292,2881,7_S
1789469808.044649,2162,2879,7_S
1789469808.045526,2076,2878,7_S
1789469808.046767,2233,2880,7_S
1789469808.046907,2202,2879,7_S
1789469808.049962,2018,2878,7_S
1789469808.052516,1999,2879,7_S
1789469808.055459,2196,2879,7_S
1789469808.055639,2242,2880,7_S
1789469808.057833,2117,2879,7_S
1789469808.0591428,2082,2879,7_S
1789469808.06145,2119,2878,7_S
1789469808.062753,2176,2879,7_S
1789469808.065072,1921,2878,7_S
1789469808.067404,1998,2878,7_S
1789469808.068705,2183,2879,7_S
1789469808.07101,2209,2877,7_S
1789469808.0723982,2122,2879,7_S
1789469808.0748,2010,2879,7_S
1789469808.077111,2018,2879,7_S
1789469808.078382,2214,2879,7_S
1789469808.08069,2011,2879,7_S
1789469808.083013,1963,2879,7_S
1789469808.08557,2110,2878,7_S
1789469808.0868638,2228,2879,7_S
1789469808.089298,2244,2881,7_S
1789469808.0905988,2140,2878,7_S
1789469808.092918,2072,2877,7_S
1789469808.095136,2088,2879,7_S
1789469808.0964391,2105,2880,7_S
1789469808.098746,1945,2877,7_S
1789469808.101053,1988,2878,7_S
1789469808.1023989,2164,2880,7_S
1789469808.104959,2179,2878,7_S
1789469808.107021,2025,2879,7_S
1789469808.109243,1996,2879,7_S
1789469808.110543,2122,2879,7_S
1789469808.113101,2181,2879,7_S
1789469808.1144,1977,2878,7_S
1789469808.1167161,1918,2879,7_S
1789469808.1192691,2106,2879,7_S
1789469808.125047,2233,2878,7_S
1789469808.125487,2137,2880,7_S
1789469808.125963,1931,2878,7_S
1789469808.127897,2115,2879,7_S
1789469808.1301792,2178,2879,7_S
1789469808.1320808,2088,2880,7_S
1789469808.133858,1940,2878,7_S
1789469808.136791,2038,2879,7_S
1789469808.137033,2185,2879,7_S
1789469808.139252,2247,2881,7_S
1789469808.140388,2192,2880,7_S
1789469808.142705,1926,2880,7_S
1789469808.145016,2136,2879,7_S
1789469808.151097,2107,2880,7_S
1789469808.151525,1881,2879,7_S
1789469808.152396,1963,2879,7_S
1789469808.153669,2185,2880,7_S
1789469808.1557682,2276,2880,7_S
1789469808.1576278,2075,2881,7_S
1789469808.159612,1989,2879,7_S
1789469808.162483,2119,2880,7_S
1789469808.1626391,2181,2880,7_S
1789469808.164798,2005,2879,7_S
1789469808.167121,2000,2878,7_S
1789469808.168418,2129,2879,7_S
1789469808.170969,2261,2879,7_S
1789469808.172371,2168,2879,7_S
1789469808.174871,2034,2878,7_S
1789469808.1771898,2032,2879,7_S
1789469808.179295,2118,2879,7_S
1789469808.18046,1992,2877,7_S
1789469808.183008,1889,2880,7_S
1789469808.185066,2044,2879,7_S
1789469808.187377,2201,2878,7_S
1789469808.188426,2208,2880,7_S
1789469808.1907358,2085,2880,7_S
1789469808.193173,2011,2879,7_S
1789469808.195307,2132,2879,7_S
1789469808.196605,2109,2878,7_S
1789469808.19919,1905,2877,7_S
1789469808.200503,1957,2878,7_S
1789469808.202831,2129,2879,7_S
1789469808.2053819,2167,2877,7_S
1789469808.206431,2083,2879,7_S
1789469808.208981,2043,2878,7_S
1789469808.2104042,2115,2879,7_S
1789469808.212672,2187,2878,7_S
1789469808.2149801,2008,2878,7_S
1789469808.217518,1985,2879,7_S
1789469808.2188108,2083,2878,7_S
1789469808.221358,2195,2879,7_S
1789469808.222649,2149,2879,7_S
1789469808.228377,1971,2878,7_S
1789469808.228833,1916,2879,7_S
1789469808.229246,2131,2879,7_S
1789469808.2316601,2078,2879,7_S
1789469808.233589,1921,2879,7_S
1789469808.235428,1970,2879,7_S
1789469808.2372448,2176,2878,7_S
1789469808.240093,2184,2880,7_S
1789469808.2423098,2065,2880,7_S
1789469808.242432,2001,2879,7_S
1789469808.2449942,2130,2880,7_S
1789469808.247515,2085,2880,7_S
1789469808.253141,1945,2877,7_S
1789469808.253641,1970,2879,7_S
1789469808.254173,2144,2878,7_S
1789469808.25566,2344,2880,7_S
1789469808.257592,2205,2879,7_S
1789469808.259351,2041,2880,7_S
1789469808.261048,2061,2876,7_S
1789469808.2638001,2202,2878,7_S
1789469808.265953,1988,2878,7_S
1789469808.267004,1959,2879,7_S
1789469808.269331,2142,2879,7_S
1789469808.270626,2152,2879,7_S
1789469808.2731378,2033,2878,7_S
1789469808.2744582,2009,2879,7_S
1789469808.277022,2021,2878,7_S
1789469808.2793422,2164,2879,7_S
1789469808.2806349,2029,2879,7_S
1789469808.2831218,1918,2878,7_S
1789469808.2844129,2063,2879,7_S
1789469808.286721,2179,2879,7_S
1789469808.28927,2232,2881,7_S
1789469808.290383,2114,2880,7_S
1789469808.292948,2032,2878,7_S
1789469808.2955,2191,2880,7_S
1789469808.2965472,2078,2879,7_S
1789469808.299096,1919,2878,7_S
1789469808.3003619,1980,2879,7_S
1789469808.302667,2183,2879,7_S
1789469808.304972,2222,2880,7_S
1789469808.307285,2068,2878,7_S
1789469808.308576,1995,2878,7_S
1789469808.310882,2115,2879,7_S
1789469808.3129332,2244,2880,7_S
1789469808.3151119,2071,2877,7_S
1789469808.317427,2004,2878,7_S
1789469808.318478,2045,2878,7_S
1789469808.320792,2190,2879,7_S
1789469808.323349,2089,2878,7_S
1789469808.324641,2093,2879,7_S
1789469808.329484,2022,2878,7_S
1789469808.3296351,2125,2879,7_S
1789469808.330956,2013,2880,7_S
1789469808.334029,1938,2877,7_S
1789469808.335638,2093,2878,7_S
1789469808.337441,2205,2879,7_S
1789469808.340367,2228,2881,7_S
1789469808.340471,2099,2878,7_S
1789469808.343369,1984,2880,7_S
1789469808.344666,2149,2880,7_S
1789469808.3470469,2108,2880,7_S
1789469808.348373,1939,2878,7_S
1789469808.3533921,1972,2879,7_S
1789469808.3538141,2134,2879,7_S
1789469808.355892,2310,2881,7_S
1789469808.3575969,2132,2880,7_S
1789469808.359354,2045,2879,7_S
1789469808.361606,2105,2879,7_S
1789469808.364309,2185,2880,7_S
1789469808.364464,1999,2877,7_S
1789469808.367362,1940,2879,7_S
1789469808.3684149,2153,2878,7_S
1789469808.3707168,2202,2880,7_S
1789469808.373269,2134,2880,7_S
1789469808.37457,2039,2878,7_S
1789469808.376898,2003,2878,7_S
1789469808.379215,2180,2879,7_S
1789469808.380508,2040,2880,7_S
1789469808.382952,1916,2879,7_S
1789469808.385503,2036,2878,7_S
1789469808.3865511,2171,2879,7_S
1789469808.3890991,2219,2882,7_S
1789469808.390411,2093,2879,7_S
1789469808.392481,1979,2879,7_S
1789469808.3947918,2115,2880,7_S
1789469808.397351,2087,2879,7_S
1789469808.398643,1897,2879,7_S
1789469808.400791,1978,2879,7_S
1789469808.40334,2139,2880,7_S
1789469808.4046311,2216,2877,7_S
1789469808.407181,2124,2880,7_S
1789469808.4092438,2093,2879,7_S
1789469808.4105432,2070,2880,7_S
1789469808.412666,2206,2878,7_S
1789469808.415235,1973,2877,7_S
1789469808.416527,1839,2879,7_S
1789469808.4189,2027,2879,7_S
1789469808.421209,2167,2879,7_S
1789469808.4235442,2220,2879,7_S
1789469808.424862,2148,2879,7_S
1789469808.4298198,2101,2879,7_S
1789469808.43068,2229,2879,7_S
1789469808.431212,1999,2877,7_S
1789469808.433109,1894,2879,7_S
1789469808.434696,2040,2879,7_S
1789469808.438198,2170,2878,7_S
1789469808.440919,2144,2881,7_S
1789469808.441065,1957,2879,7_S
1789469808.443234,1881,2879,7_S
1789469808.444542,2051,2879,7_S
1789469808.447094,2100,2879,7_S
1789469808.448391,1919,2879,7_S
1789469808.4542458,1973,2878,7_S
1789469808.4546828,2141,2879,7_S
1789469808.4565241,2219,2878,7_S
1789469808.4566169,2159,2880,7_S
1789469808.459698,1929,2879,7_S
1789469808.4617028,2022,2879,7_S
1789469808.4642408,2387,2880,7_S
1789469808.4663098,2072,2879,7_S
1789469808.466465,1952,2879,7_S
1789469808.4687848,2067,2879,7_S
1789469808.471336,2188,2879,7_S
1789469808.47263,2030,2877,7_S
1789469808.4749749,1979,2880,7_S
1789469808.476455,1965,2877,7_S
1789469808.4787729,2155,2879,7_S
1789469808.48109,2013,2880,7_S
1789469808.482368,1986,2877,7_S
1789469808.4849138,1776,2879,7_S
1789469808.4874601,2239,2880,7_S
1789469808.488499,2180,2879,7_S
1789469808.490686,1948,2880,7_S
1789469808.493242,2156,2881,7_S
1789469808.4945412,2064,2879,7_S
1789469808.497092,1816,2877,7_S
1789469808.498382,1880,2878,7_S
1789469808.5006049,2014,2879,7_S
1789469808.50315,2187,2879,7_S
1789469808.504439,1992,2877,7_S
1789469808.5069141,2073,2879,7_S
1789469808.509224,2206,2880,7_S
1789469808.510514,1927,2878,7_S
1789469808.512718,2009,2878,7_S
1789469808.515262,1895,2879,7_S
1789469808.516356,1971,2879,7_S
1789469808.518828,2118,2879,7_S
1789469808.521139,2141,2878,7_S
1789469808.522607,2137,2881,7_S
1789469808.5274959,2076,2878,7_S
1789469808.528238,2037,2879,7_S
1789469808.5311842,2107,2880,7_S
1789469808.531567,1888,2877,7_S
1789469808.5329542,1932,2879,7_S
1789469808.534529,2147,2879,7_S
1789469808.536948,2217,2879,7_S
1789469808.538646,1917,2878,7_S
1789469808.541205,1874,2877,7_S
1789469808.5423732,1977,2878,7_S
1789469808.544755,2085,2880,7_S
1789469808.550239,2071,2879,7_S
1789469808.5504022,1853,2878,7_S
1789469808.551123,1959,2878,7_S
1789469808.554004,2062,2879,7_S
1789469808.555924,2202,2878,7_S
1789469808.559608,2092,2881,7_S
1789469808.559704,2011,2879,7_S
1789469808.5613241,2091,2878,7_S
1789469808.5626209,2138,2879,7_S
1789469808.564935,1978,2876,7_S
1789469808.567254,1893,2878,7_S
1789469808.5685492,2075,2879,7_S
1789469808.5711172,2168,2878,7_S
1789469808.572413,2112,2880,7_S
1789469808.5749528,2153,2877,7_S
1789469808.5774999,2044,2878,7_S
1789469808.5787919,2155,2879,7_S
1789469808.581339,1996,2880,7_S
1789469808.5826292,1906,2878,7_S
1789469808.585176,2066,2880,7_S
1789469808.5874019,2307,2879,7_S
1789469808.588692,2267,2880,7_S
1789469808.591244,1984,2879,7_S
1789469808.592385,2069,2879,7_S
1789469808.594458,2076,2879,7_S
1789469808.5967538,2180,2880,7_S
1789469808.5990589,2043,2877,7_S
1789469808.6014888,1927,2879,7_S
1789469808.6025448,2054,2879,7_S
1789469808.604851,2200,2879,7_S
1789469808.6073978,2106,2881,7_S
1789469808.608703,1918,2879,7_S
1789469808.611257,2000,2878,7_S
1789469808.612553,2220,2880,7_S
1789469808.615099,2085,2880,7_S
1789469808.616391,2116,2879,7_S
1789469808.621421,2186,2879,7_S
1789469808.621889,2298,2879,7_S
1789469808.623064,2381,2881,7_S
1789469808.6257,2099,2879,7_S
1789469808.627002,2029,2879,7_S
1789469808.6293051,2245,2879,7_S
1789469808.631926,2057,2880,7_S
1789469808.6334689,1989,2878,7_S
1789469808.634772,2011,2878,7_S
1789469808.63732,2111,2879,7_S
1789469808.638612,2061,2878,7_S
1789469808.644535,2108,2880,7_S
1789469808.64497,2048,2879,7_S
1789469808.6467998,2083,2878,7_S
1789469808.64708,2194,2880,7_S
1789469808.6488168,1895,2877,7_S
1789469808.6518898,2060,2878,7_S
1789469808.654256,2128,2879,7_S
1789469808.654454,2189,2878,7_S
1789469808.657249,2195,2879,7_S
1789469808.658379,2225,2879,7_S
1789469808.660453,2248,2879,7_S
1789469808.663003,2024,2878,7_S
1789469808.6643991,1992,2878,7_S
1789469808.66673,2078,2879,7_S
1789469808.6692538,1972,2879,7_S
1789469808.670548,2420,2881,7_S
1789469808.673099,2116,2880,7_S
1789469808.6743941,1931,2877,7_S
1789469808.676946,1745,2879,7_S
1789469808.679496,2200,2879,7_S
1789469808.680786,1899,2878,7_S
1789469808.6833322,1974,2879,7_S
1789469808.684622,2144,2879,7_S
1789469808.687168,2353,2881,7_S
1789469808.688459,1873,2878,7_S
1789469808.691007,1778,2876,7_S
1789469808.692384,2306,2879,7_S
1789469808.694945,2027,2879,7_S
1789469808.6972642,2217,2881,7_S
1789469808.698556,1804,2877,7_S
1789469808.700625,2376,2882,7_S
1789469808.703171,1944,2878,7_S
1789469808.704373,2059,2879,7_S
1789469808.706678,2315,2881,7_S
1789469808.709125,2216,2879,7_S
1789469808.7157052,2105,2879,7_S
1789469808.715843,2131,2878,7_S
1789469808.716671,1813,2877,7_S
1789469808.717071,1626,2878,7_S
1789469808.719521,2129,2880,7_S
1789469808.7213829,2201,2878,7_S
1789469808.723083,1793,2878,7_S
1789469808.725389,2231,2880,7_S
1789469808.727475,2179,2880,7_S
1789469808.7285361,2186,2879,7_S
1789469808.731095,1800,2878,7_S
1789469808.732395,1463,2879,7_S
1789469808.737524,2230,2879,7_S
1789469808.738338,2254,2879,7_S
1789469808.7387362,2203,2881,7_S
1789469808.742583,1964,2878,7_S
1789469808.743,1750,2878,7_S
1789469808.7451851,2048,2878,7_S
1789469808.747552,2191,2880,7_S
1789469808.749255,1993,2878,7_S
1789469808.750377,1540,2878,7_S
1789469808.752927,2150,2879,7_S
1789469808.755243,2045,2878,7_S
1789469808.7565389,1892,2877,7_S
1789469808.758868,2021,2879,7_S
1789469808.7610009,2175,2879,7_S
1789469808.7632341,2255,2879,7_S
1789469808.764527,1959,2877,7_S
1789469808.767074,2098,2880,7_S
1789469808.769501,2042,2879,7_S
1789469808.7705421,1848,2879,7_S
1789469808.772606,1961,2879,7_S
1789469808.77471,2118,2880,7_S
1789469808.777025,2060,2880,7_S
1789469808.779124,1866,2879,7_S
1789469808.781431,1631,2877,7_S
1789469808.782484,1627,2879,7_S
1789469808.784628,1897,2879,7_S
1789469808.787174,2469,2882,7_S
1789469808.789475,2224,2881,7_S
1789469808.7905312,1840,2879,7_S
1789469808.792842,1639,2876,7_S
1789469808.795396,1694,2878,7_S
1789469808.79659,1883,2878,7_S
1789469808.798889,1707,2877,7_S
1789469808.801192,1767,2879,7_S
1789469808.8023858,2066,2879,7_S
1789469808.804936,1920,2877,7_S
1789469808.810387,1648,2876,7_S
1789469808.810853,1245,2878,7_S
1789469808.811287,1615,2878,7_S
1789469808.813186,1830,2876,7_S
1789469808.814964,1410,2878,7_S
1789469808.816892,1255,2879,7_S
1789469808.8204632,1412,2878,7_S
1789469808.820714,1627,2879,7_S
1789469808.822745,1539,2877,7_S
1789469808.8253,1435,2877,7_S
1789469808.826591,1626,2877,7_S
1789469808.829023,1994,2880,7_S
1789469808.833633,1804,2876,7_S
1789469808.833708,1115,2877,7_S
1789469808.834919,1137,2878,7_S
1789469808.837858,1689,2877,7_S
1789469808.8394089,2004,2879,7_S
1789469808.8433769,1935,2879,7_S
1789469808.843507,1675,2880,7_S
1789469808.8454862,1838,2879,7_S
1789469808.8465369,1990,2880,7_S
1789469808.84909,1900,2878,7_S
1789469808.850385,1670,2879,7_S
1789469808.853052,1956,2879,7_S
1789469808.8544042,2072,2877,7_S
1789469808.85649,2005,2879,7_S
1789469808.859044,1978,2879,7_S
1789469808.86036,1975,2879,7_S
1789469808.862433,2247,2880,7_S
1789469808.864746,2110,2880,7_S
1789469808.8668191,2062,2878,7_S
1789469808.869366,2226,2879,7_S
1789469808.870566,2339,2880,7_S
1789469808.8728871,2419,2881,7_S
1789469808.875202,2380,2881,7_S
1789469808.876498,2349,2880,7_S
1789469808.879049,2313,2880,7_S
1789469808.880376,2134,2881,7_S
1789469808.8826911,2028,2879,7_S
1789469808.88539,2213,2878,7_S
1789469808.886691,2335,2880,7_S
1789469808.889245,2444,2881,7_S
1789469808.890432,2260,2880,7_S
1789469808.892918,2041,2879,7_S
1789469808.895471,2197,2881,7_S
1789469808.896595,2269,2881,7_S
1789469808.898898,2168,2878,7_S
1789469808.9012108,1800,2879,7_S
1789469808.902449,2001,2879,7_S
1789469808.9075682,2294,2879,7_S
1789469808.908413,2441,2880,7_S
1789469808.9085271,1712,2879,7_S
1789469808.911839,2042,2878,7_S
1789469808.917652,2682,2881,7_S
1789469808.9177868,2530,2881,7_S
1789469808.918002,1186,2878,7_S
1789469808.919702,1962,2881,7_S
1789469808.921064,2581,2882,7_S
1789469808.922359,2702,2882,7_S
1789469808.924831,2103,2880,7_S
1789469808.926618,1389,2876,7_S
1789469808.93212,2241,2881,7_S
1789469808.9326668,2545,2881,7_S
1789469808.934251,1780,2877,7_S
1789469808.934488,2199,2879,7_S
1789469808.9382038,2547,2882,7_S
1789469808.942158,2156,2879,7_S
1789469808.942343,2183,2880,7_S
1789469808.942488,2261,2880,7_S
1789469808.945312,2570,2880,7_S
1789469808.94661,2324,2881,7_S
1789469808.948683,1554,2877,7_S
1789469808.9512472,2508,2878,7_S
1789469808.953342,2367,2879,7_S
1789469808.9546392,2163,2879,7_S
1789469808.956707,2333,2880,7_S
1789469808.9590201,1737,2878,7_S
1789469808.961322,1738,2880,7_S
1789469808.962612,2237,2879,7_S
1789469808.964879,1955,2878,7_S
1789469808.9674292,1921,2880,7_S
1789469808.96876,2136,2879,7_S
1789469808.970826,2158,2879,7_S
1789469808.973397,2217,2880,7_S
1789469808.974696,2115,2879,7_S
1789469808.9767628,2010,2880,7_S
1789469808.9793122,2173,2879,7_S
1789469808.980361,2112,2879,7_S
1789469808.98267,1827,2879,7_S
1789469808.984978,2058,2879,7_S
1789469808.986348,2374,2878,7_S
1789469808.988893,2264,2881,7_S
1789469808.991207,2058,2880,7_S
1789469808.9924748,2009,2879,7_S
1789469808.9947798,2152,2880,7_S
1789469808.997092,2068,2880,7_S
1789469808.9993951,1820,2877,7_S
1789469809.000576,1932,2879,7_S
1789469809.005973,2077,2879,7_S
1789469809.006825,2281,2880,7_S
1789469809.008481,2202,2880,7_S
1789469809.0086179,2064,2879,7_S
1789469809.0113869,2152,2880,7_S
1789469809.0136452,2357,2879,7_S
1789469809.0162072,2102,2881,7_S
1789469809.017914,1857,2879,7_S
1789469809.019207,2089,2879,7_S
1789469809.0204968,2300,2878,7_S
1789469809.022816,2149,2881,7_S
1789469809.028425,1977,2879,7_S
1789469809.029208,2140,2879,7_S
1789469809.0295901,2343,2880,7_S
1789469809.031018,2132,2880,7_S
1789469809.033539,2078,2879,7_S
1789469809.035717,2190,2880,7_S
1789469809.038272,2441,2879,7_S
1789469809.038416,2480,2881,7_S
1789469809.041145,2206,2880,7_S
1789469809.043457,2139,2879,7_S
1789469809.044748,2194,2878,7_S
1789469809.0473018,2163,2879,7_S
1789469809.048604,1983,2877,7_S
1789469809.051154,2062,2879,7_S
1789469809.0534542,2302,2879,7_S
1789469809.05474,2217,2879,7_S
1789469809.0568519,2037,2880,7_S
1789469809.0589929,1978,2878,7_S
1789469809.060371,2039,2879,7_S
1789469809.0628521,2150,2879,7_S
1789469809.064904,1946,2878,7_S
1789469809.067208,1966,2879,7_S
1789469809.068498,2146,2880,7_S
1789469809.070792,2334,2879,7_S
1789469809.073337,2109,2880,7_S
1789469809.074388,1954,2879,7_S
1789469809.0766878,2125,2878,7_S
1789469809.0792341,2406,2881,7_S
1789469809.080359,2127,2881,7_S
1789469809.082674,1845,2879,7_S
1789469809.085221,1936,2880,7_S
1789469809.0865102,2282,2880,7_S
1789469809.089057,2287,2880,7_S
1789469809.0903628,2004,2879,7_S
1789469809.093015,1900,2878,7_S
1789469809.097028,2171,2879,7_S
1789469809.097415,2130,2879,7_S
1789469809.099327,1881,2878,7_S
1789469809.100707,2008,2878,7_S
1789469809.1039,2186,2880,7_S
1789469809.1065059,2377,2881,7_S
1789469809.1066911,2152,2879,7_S
1789469809.1094358,2040,2879,7_S
1789469809.110729,2147,2880,7_S
1789469809.1130428,2240,2879,7_S
1789469809.1182709,1941,2878,7_S
1789469809.1190348,1851,2879,7_S
1789469809.1194618,2091,2879,7_S
1789469809.1208599,2233,2880,7_S
1789469809.124178,2156,2880,7_S
1789469809.1254468,1984,2877,7_S
1789469809.127902,2089,2879,7_S
1789469809.129812,2229,2880,7_S
1789469809.13088,2067,2879,7_S
1789469809.1334279,1830,2878,7_S
1789469809.1345448,2016,2878,7_S
1789469809.1371121,2289,2879,7_S
1789469809.138422,2287,2881,7_S
1789469809.140491,2168,2879,7_S
1789469809.142551,1901,2878,7_S
1789469809.145102,2044,2880,7_S
1789469809.146358,2255,2880,7_S
1789469809.148911,2077,2878,7_S
1789469809.151459,2095,2879,7_S
1789469809.1526122,2222,2879,7_S
1789469809.155158,2338,2880,7_S
1789469809.1564538,2178,2881,7_S
1789469809.158762,2030,2878,7_S
1789469809.161314,2052,2879,7_S
1789469809.162602,2204,2881,7_S
1789469809.1649039,2021,2877,7_S
1789469809.167447,2017,2879,7_S
1789469809.168503,2089,2880,7_S
1789469809.171047,2321,2879,7_S
1789469809.173109,2105,2879,7_S
1789469809.174402,2010,2879,7_S
1789469809.1769521,2074,2879,7_S
1789469809.179057,2181,2879,7_S
1789469809.18137,2074,2880,7_S
1789469809.182681,1852,2878,7_S
1789469809.188069,1890,2878,7_S
1789469809.18855,2182,2879,7_S
1789469809.189028,2217,2881,7_S
1789469809.190887,2103,2880,7_S
1789469809.192491,2023,2879,7_S
1789469809.19576,2188,2880,7_S
1789469809.198289,2257,2881,7_S
1789469809.19838,2014,2879,7_S
1789469809.200963,2032,2879,7_S
1789469809.2033138,2147,2879,7_S
1789469809.20437,2280,2879,7_S
1789469809.211618,2185,2881,7_S
1789469809.211699,1964,2878,7_S
1789469809.2124631,2025,2879,7_S
1789469809.2136269,2191,2880,7_S
1789469809.215543,2007,2878,7_S
1789469809.217103,1855,2879,7_S
1789469809.218774,1999,2880,7_S
1789469809.221643,2277,2879,7_S
1789469809.223625,2247,2880,7_S
1789469809.224928,2093,2879,7_S
1789469809.227242,2019,2879,7_S
1789469809.2283368,2089,2879,7_S
1789469809.230655,2105,2880,7_S
1789469809.232983,2060,2878,7_S
1789469809.235112,1979,2879,7_S
1789469809.237189,2195,2878,7_S
1789469809.239499,2309,2880,7_S
1789469809.2407942,2192,2880,7_S
1789469809.243347,2070,2879,7_S
1789469809.2445471,2239,2879,7_S
1789469809.247102,2185,2880,7_S
1789469809.2483919,1974,2878,7_S
1789469809.250881,2078,2879,7_S
1789469809.2530618,2221,2879,7_S
1789469809.255302,2191,2878,7_S
1789469809.256598,2153,2880,7_S
1789469809.258909,2020,2879,7_S
1789469809.261218,2111,2878,7_S
1789469809.2625139,2197,2880,7_S
1789469809.264757,1940,2878,7_S
1789469809.266817,1885,2878,7_S
1789469809.26937,2169,2880,7_S
1789469809.2706718,2242,2879,7_S
1789469809.2732291,2179,2880,7_S
1789469809.274366,2046,2878,7_S
1789469809.276445,2003,2878,7_S
1789469809.2789938,2116,2879,7_S
1789469809.2803378,1988,2880,7_S
1789469809.2850099,1836,2877,7_S
1789469809.285847,2171,2878,7_S
1789469809.2877178,2315,2879,7_S
1789469809.289709,2318,2881,7_S
1789469809.290967,2194,2880,7_S
1789469809.292775,2117,2878,7_S
1789469809.2952871,2174,2879,7_S
1789469809.296893,2208,2880,7_S
1789469809.2991989,2001,2878,7_S
1789469809.30049,1937,2879,7_S
1789469809.302939,2131,2880,7_S
1789469809.306954,2280,2881,7_S
1789469809.3073542,2031,2880,7_S
1789469809.30986,1875,2879,7_S
1789469809.3116748,2045,2878,7_S
1789469809.313571,2238,2881,7_S
1789469809.314773,2088,2880,7_S
1789469809.3172648,1947,2879,7_S
1789469809.319212,2147,2879,7_S
1789469809.320513,2216,2879,7_S
1789469809.323065,2164,2880,7_S
1789469809.32537,2123,2879,7_S
1789469809.326685,2104,2879,7_S
1789469809.329246,2263,2881,7_S
1789469809.330538,2077,2880,7_S
1789469809.332997,1872,2879,7_S
1789469809.3351061,1965,2879,7_S
1789469809.337406,2145,2878,7_S
1789469809.3386931,2249,2881,7_S
1789469809.3412359,2125,2879,7_S
1789469809.3424408,2086,2879,7_S
1789469809.344985,2164,2880,7_S
1789469809.346273,2162,2879,7_S
1789469809.3485901,1915,2879,7_S
1789469809.3511329,2049,2879,7_S
1789469809.352421,2165,2879,7_S
1789469809.354892,2214,2879,7_S
1789469809.357436,2158,2880,7_S
1789469809.3587232,2046,2880,7_S
1789469809.3607721,2074,2878,7_S
1789469809.362847,2135,2879,7_S
1789469809.364911,1980,2878,7_S
1789469809.366966,2017,2879,7_S
1789469809.3695118,2188,2879,7_S
1789469809.370562,2238,2879,7_S
1789469809.3772821,2161,2881,7_S
1789469809.3774028,2130,2879,7_S
1789469809.378127,2167,2879,7_S
1789469809.38061,2282,2881,7_S
1789469809.3813481,2089,2880,7_S
1789469809.384076,1845,2879,7_S
1789469809.386626,1839,2880,7_S
1789469809.3867662,2058,2880,7_S
1789469809.389568,2185,2878,7_S
1789469809.3908632,2018,2880,7_S
1789469809.3934112,2097,2879,7_S
1789469809.398245,2202,2879,7_S
1789469809.398366,2189,2879,7_S
1789469809.399693,1903,2878,7_S
1789469809.402658,1987,2879,7_S
1789469809.403091,2163,2880,7_S
1789469809.4055061,2192,2879,7_S
1789469809.407975,2094,2880,7_S
1789469809.409869,1973,2879,7_S
1789469809.4109209,2035,2879,7_S
1789469809.4134731,2126,2879,7_S
1789469809.414766,1853,2877,7_S
1789469809.4170802,2039,2879,7_S
1789469809.4183831,2221,2881,7_S
1789469809.420931,2255,2880,7_S
1789469809.4232378,2195,2879,7_S
1789469809.424531,2090,2879,7_S
1789469809.426701,1976,2879,7_S
1789469809.4292438,2098,2878,7_S
1789469809.4305332,2096,2880,7_S
1789469809.4327528,1941,2878,7_S
1789469809.435298,2040,2879,7_S
1789469809.436588,2191,2878,7_S
1789469809.438897,2273,2880,7_S
1789469809.441449,2003,2879,7_S
1789469809.442503,1957,2879,7_S
1789469809.4445639,2074,2879,7_S
1789469809.447111,2131,2880,7_S
1789469809.448406,2103,2879,7_S
1789469809.4507022,2060,2878,7_S
1789469809.452756,2054,2878,7_S
1789469809.455061,2216,2879,7_S
1789469809.457126,2169,2880,7_S
1789469809.459423,1885,2878,7_S
1789469809.460469,1851,2879,7_S
1789469809.462524,2111,2879,7_S
1789469809.467088,2045,2880,7_S
1789469809.46749,1926,2879,7_S
1789469809.469549,2129,2879,7_S
1789469809.471073,2213,2878,7_S
1789469809.473325,2252,2881,7_S
1789469809.474611,2091,2879,7_S
1789469809.477184,2060,2877,7_S
1789469809.4787772,2202,2880,7_S
1789469809.481339,2044,2878,7_S
1789469809.4826329,1878,2878,7_S
1789469809.4852679,1924,2878,7_S
1789469809.490121,2211,2879,7_S
1789469809.4909408,2224,2880,7_S
1789469809.492713,2086,2880,7_S
1789469809.4930198,1980,2879,7_S
1789469809.4946518,1994,2879,7_S
1789469809.4975889,2137,2880,7_S
1789469809.5001569,1987,2878,7_S
1789469809.502147,1815,2878,7_S
1789469809.5034502,2023,2878,7_S
1789469809.504744,2204,2879,7_S
1789469809.507297,2185,2879,7_S
1789469809.508567,2052,2879,7_S
1789469809.511136,2086,2879,7_S
1789469809.512436,2179,2879,7_S
1789469809.514812,1954,2878,7_S
1789469809.517359,2010,2878,7_S
1789469809.518416,2120,2880,7_S
1789469809.5207958,2202,2878,7_S
1789469809.523347,2218,2880,7_S
1789469809.5246358,2092,2879,7_S
1789469809.5269608,2021,2878,7_S
1789469809.52952,2135,2879,7_S
1789469809.530569,2047,2880,7_S
1789469809.5330539,1832,2878,7_S
1789469809.5343459,2005,2880,7_S
1789469809.536414,2194,2879,7_S
1789469809.5387049,2160,2879,7_S
1789469809.541022,2031,2879,7_S
1789469809.5434291,2023,2879,7_S
1789469809.544725,2186,2880,7_S
1789469809.546786,2279,2879,7_S
1789469809.5491,1946,2878,7_S
1789469809.5514,2036,2879,7_S
1789469809.55245,2201,2880,7_S
1789469809.554999,2222,2879,7_S
1789469809.5573099,2076,2879,7_S
1789469809.5584261,2068,2880,7_S
1789469809.562871,2074,2877,7_S
1789469809.5633972,2212,2879,7_S
1789469809.565501,1998,2877,7_S
1789469809.5674791,1851,2880,7_S
1789469809.570818,2157,2878,7_S
1789469809.570987,2122,2880,7_S
1789469809.573885,2067,2878,7_S
1789469809.5759401,1965,2879,7_S
1789469809.577184,2108,2880,7_S
1789469809.5782452,2165,2879,7_S
1789469809.5807989,1999,2879,7_S
1789469809.582423,2022,2878,7_S
1789469809.586823,2066,2878,7_S
1789469809.587641,2204,2879,7_S
1789469809.5898528,2318,2881,7_S
1789469809.591242,2186,2880,7_S
1789469809.593117,2120,2879,7_S
1789469809.594593,2235,2880,7_S
1789469809.597166,2179,2880,7_S
1789469809.599114,1876,2878,7_S
1789469809.6003258,1958,2878,7_S
1789469809.602726,2141,2880,7_S
1789469809.605288,2264,2879,7_S
1789469809.6065931,1941,2877,7_S
1789469809.608904,2044,2880,7_S
1789469809.611239,2046,2878,7_S
1789469809.612538,2107,2879,7_S
1789469809.614846,2055,2879,7_S
1789469809.616257,1874,2878,7_S
1789469809.6188211,2104,2880,7_S
1789469809.620926,2048,2879,7_S
1789469809.6230059,2101,2879,7_S
1789469809.625321,1968,2880,7_S
1789469809.626615,2138,2879,7_S
1789469809.628931,2107,2879,7_S
1789469809.630257,2097,2880,7_S
1789469809.63256,1914,2878,7_S
1789469809.634912,2074,2880,7_S
1789469809.637221,2283,2879,7_S
1789469809.6385212,2287,2881,7_S
1789469809.640836,2064,2879,7_S
1789469809.642263,1997,2879,7_S
1789469809.6448152,2159,2880,7_S
1789469809.647121,2211,2879,7_S
1789469809.648258,2054,2878,7_S
1789469809.6503859,2008,2879,7_S
1789469809.652686,2184,2880,7_S
1789469809.655086,2303,2880,7_S
1789469809.660405,2195,2880,7_S
1789469809.6608791,2159,2880,7_S
1789469809.661769,2037,2879,7_S
1789469809.66343,2005,2878,7_S
1789469809.665278,1891,2878,7_S
1789469809.667009,1870,2878,7_S
1789469809.668523,2146,2879,7_S
1789469809.671333,2269,2879,7_S
1789469809.672826,2214,2880,7_S
1789469809.675403,2056,2879,7_S
1789469809.67646,2135,2878,7_S
1789469809.6789901,2254,2879,7_S
1789469809.684342,2083,2880,7_S
1789469809.684798,1970,2879,7_S
1789469809.686052,2043,2880,7_S
1789469809.687528,2156,2878,7_S
1789469809.689427,2139,2878,7_S
1789469809.6910021,2138,2879,7_S
1789469809.693569,1994,2880,7_S
1789469809.695456,2065,2878,7_S
1789469809.696755,2155,2879,7_S
1789469809.698817,1964,2878,7_S
1789469809.700224,2016,2880,7_S
1789469809.70261,2172,2880,7_S
1789469809.7049322,2242,2879,7_S
1789469809.706236,2160,2881,7_S
1789469809.708555,2050,2878,7_S
1789469809.710874,2062,2878,7_S
1789469809.713184,2204,2879,7_S
1789469809.714476,2079,2880,7_S
1789469809.71662,1946,2878,7_S
1789469809.71893,2022,2878,7_S
1789469809.720303,2129,2878,7_S
1789469809.722857,2225,2880,7_S
1789469809.72427,2126,2880,7_S
1789469809.726348,1969,2879,7_S
1789469809.728665,2191,2880,7_S
1789469809.730722,2110,2880,7_S
1789469809.7329972,2021,2878,7_S
1789469809.734219,2053,2879,7_S
1789469809.736347,2153,2880,7_S
1789469809.738658,2230,2878,7_S
1789469809.7411442,2128,2880,7_S
1789469809.742296,1987,2879,7_S
1789469809.7448452,2103,2878,7_S
1789469809.746969,2181,2880,7_S
1789469809.749281,1913,2878,7_S
1789469809.754433,1878,2878,7_S
1789469809.755905,2056,2880,7_S
1789469809.7564218,2210,2880,7_S
1789469809.7569358,2173,2879,7_S
1789469809.75851,2055,2880,7_S
1789469809.761573,2044,2879,7_S
1789469809.763414,2149,2879,7_S
1789469809.765988,2034,2880,7_S
1789469809.768169,1978,2879,7_S
1789469809.768248,2080,2881,7_S
1789469809.770324,2191,2879,7_S
1789469809.7726169,2168,2881,7_S
1789469809.775075,2090,2879,7_S
1789469809.77931,2045,2878,7_S
1789469809.779716,2171,2880,7_S
1789469809.782176,2109,2880,7_S
1789469809.782335,1950,2878,7_S
1789469809.785985,1947,2879,7_S
1789469809.7875378,2144,2879,7_S
1789469809.7902238,2239,2878,7_S
1789469809.790547,2113,2880,7_S
1789469809.7933109,2062,2879,7_S
1789469809.794372,2174,2879,7_S
1789469809.7966888,2202,2879,7_S
1789469809.79891,2026,2878,7_S
1789469809.8012512,1933,2878,7_S
1789469809.80255,2044,2880,7_S
1789469809.8048599,2179,2879,7_S
1789469809.806935,2131,2880,7_S
1789469809.8092532,1987,2879,7_S
1789469809.81055,2000,2878,7_S
1789469809.812812,2093,2880,7_S
1789469809.815371,2010,2880,7_S
1789469809.816661,1919,2879,7_S
1789469809.818957,2090,2880,7_S
1789469809.8213382,2236,2879,7_S
1789469809.8223948,2182,2881,7_S
1789469809.824944,2071,2879,7_S
1789469809.827262,2007,2878,7_S
1789469809.828316,2148,2879,7_S
1789469809.830623,2040,2880,7_S
1789469809.833172,1856,2878,7_S
1789469809.834353,1874,2879,7_S
1789469809.83666,2148,2878,7_S
1789469809.838977,2241,2879,7_S
1789469809.8414028,2136,2880,7_S
1789469809.8426938,2176,2879,7_S
1789469809.844803,2111,2880,7_S
1789469809.847141,1989,2879,7_S
1789469809.8521469,1837,2878,7_S
1789469809.8530319,1935,2879,7_S
1789469809.8538811,2082,2880,7_S
1789469809.855187,2220,2879,7_S
1789469809.8574588,2187,2881,7_S
1789469809.8606951,2069,2880,7_S
1789469809.863272,2019,2878,7_S
1789469809.863508,2111,2879,7_S
1789469809.865581,2004,2878,7_S
1789469809.866896,1931,2878,7_S
1789469809.868247,2127,2881,7_S
1789469809.8706481,2168,2879,7_S
1789469809.877541,2133,2880,7_S
1789469809.8780239,2037,2880,7_S
1789469809.878159,1955,2879,7_S
1789469809.878656,2150,2879,7_S
1789469809.881352,2145,2880,7_S
1789469809.883393,1984,2878,7_S
1789469809.88513,2014,2878,7_S
1789469809.887646,2189,2880,7_S
1789469809.889625,2173,2878,7_S
1789469809.890928,1994,2880,7_S
1789469809.893247,1974,2879,7_S
1789469809.894303,2071,2878,7_S
1789469809.896777,2156,2880,7_S
1789469809.898935,1974,2879,7_S
1789469809.9002318,2007,2879,7_S
1789469809.9024708,2164,2879,7_S
1789469809.90502,2189,2879,7_S
1789469809.9070878,2027,2878,7_S
1789469809.908353,1907,2879,7_S
1789469809.910656,2013,2879,7_S
1789469809.9132092,2222,2880,7_S
1789469809.9143832,2130,2880,7_S
1789469809.916685,2046,2878,7_S
1789469809.918984,2042,2880,7_S
1789469809.9202728,2172,2879,7_S
1789469809.9225862,2143,2878,7_S
1789469809.92513,2032,2880,7_S
1789469809.926421,1941,2879,7_S
1789469809.928473,2070,2881,7_S
1789469809.930775,2041,2880,7_S
1789469809.932977,1907,2878,7_S
1789469809.9342709,1936,2879,7_S
1789469809.9368162,2130,2880,7_S
1789469809.939122,2217,2879,7_S
1789469809.940417,2174,2880,7_S
1789469809.942718,2041,2879,7_S
1789469809.945035,2082,2878,7_S
1789469809.950478,2107,2879,7_S
1789469809.950897,1948,2877,7_S
1789469809.9516978,1980,2879,7_S
1789469809.9542668,2130,2879,7_S
1789469809.954665,2263,2880,7_S
1789469809.9565408,2134,2881,7_S
1789469809.960147,2021,2879,7_S
1789469809.9603882,1997,2879,7_S
1789469809.962938,2136,2880,7_S
1789469809.964263,2023,2880,7_S
1789469809.966366,1896,2878,7_S
1789469809.972536,2014,2880,7_S
1789469809.972954,2168,2880,7_S
1789469809.973398,2242,2881,7_S
1789469809.9752178,2117,2880,7_S
1789469809.9767501,2075,2880,7_S
1789469809.978347,2185,2879,7_S
1789469809.982453,2213,2880,7_S
1789469809.982591,1961,2878,7_S
1789469809.9853592,1948,2879,7_S
1789469809.986655,2153,2879,7_S
1789469809.9892101,2189,2878,7_S
1789469809.990504,2086,2880,7_S
1789469809.992613,2050,2880,7_S
1789469809.995168,2057,2879,7_S
1789469809.996373,2171,2879,7_S
1789469809.99892,1951,2877,7_S
1789469810.001204,1899,2879,7_S
1789469810.002495,2159,2879,7_S
1789469810.0048032,2169,2879,7_S
1789469810.007114,2176,2879,7_S
1789469810.008299,2090,2880,7_S
1789469810.0108569,2051,2878,7_S
1789469810.0122418,2124,2878,7_S
1789469810.014548,2017,2880,7_S
1789469810.016853,1919,2879,7_S
1789469810.019406,2053,2878,7_S
1789469810.020458,2223,2878,7_S
1789469810.023005,2228,2880,7_S
1789469810.024299,2145,2878,7_S
1789469810.026602,2083,2879,7_S
1789469810.028912,2177,2879,7_S
1789469810.0302641,2112,2881,7_S
1789469810.032584,1882,2878,7_S
1789469810.034892,1972,2878,7_S
1789469810.036264,2134,2879,7_S
1789469810.038501,2150,2879,7_S
1789469810.0442939,2118,2880,7_S
1789469810.045405,1971,2878,7_S
1789469810.0458748,2085,2878,7_S
1789469810.047483,2161,2879,7_S
1789469810.049365,1949,2877,7_S
1789469810.050577,1953,2879,7_S
1789469810.052483,2129,2880,7_S
1789469810.054943,2264,2878,7_S
1789469810.0570822,2187,2881,7_S
1789469810.058382,2068,2879,7_S
1789469810.060936,1991,2878,7_S
1789469810.06721,2142,2880,7_S
1789469810.067585,2053,2879,7_S
1789469810.0694458,1985,2879,7_S
1789469810.069622,2066,2880,7_S
1789469810.0714712,2258,2879,7_S
1789469810.0729642,2200,2880,7_S
1789469810.0747,2074,2879,7_S
1789469810.0772521,2005,2878,7_S
1789469810.0788338,2182,2879,7_S
1789469810.08025,2084,2879,7_S
1789469810.082814,1923,2878,7_S
1789469810.08537,1920,2878,7_S
1789469810.086677,2140,2879,7_S
1789469810.0892391,2149,2878,7_S
1789469810.0905442,2067,2879,7_S
1789469810.092988,1963,2879,7_S
1789469810.094283,2114,2879,7_S
1789469810.096586,2124,2878,7_S
1789469810.0989,2028,2879,7_S
1789469810.1002471,1951,2880,7_S
1789469810.10272,2098,2879,7_S
1789469810.105271,2242,2879,7_S
