timestamp,ch1,ch2,label
1789469430.337715,2000,2879,ɔ
1789469430.3420758,2133,2879,ɔ
1789469430.342211,2173,2878,ɔ
1789469430.34372,2086,2881,ɔ
1789469430.346428,2004,2878,ɔ
1789469430.349141,2074,2880,ɔ
1789469430.349269,2106,2879,ɔ
1789469430.3522859,1974,2878,ɔ
1789469430.353481,1965,2879,ɔ
1789469430.355789,2114,2878,ɔ
1789469430.356927,2196,2878,ɔ
1789469430.359498,2168,2880,ɔ
1789469430.360907,2055,2879,ɔ
1789469430.3632178,2062,2878,ɔ
1789469430.365779,2160,2879,ɔ
1789469430.366883,1990,2879,ɔ
1789469430.3694348,1926,2878,ɔ
1789469430.371828,2081,2879,ɔ
1789469430.3729181,2196,2879,ɔ
1789469430.375241,2157,2879,ɔ
1789469430.377795,2088,2878,ɔ
1789469430.378869,2071,2879,ɔ
1789469430.381186,2160,2878,ɔ
1789469430.3873339,2088,2879,ɔ
1789469430.38816,1924,2877,ɔ
1789469430.3900821,1990,2879,ɔ
1789469430.390208,2118,2878,ɔ
1789469430.392402,2192,2878,ɔ
1789469430.3941388,2100,2879,ɔ
1789469430.395618,2038,2878,ɔ
1789469430.397992,2133,2880,ɔ
1789469430.399051,2089,2878,ɔ
1789469430.401503,1988,2878,ɔ
1789469430.4038222,1989,2878,ɔ
1789469430.40514,2113,2879,ɔ
1789469430.407528,2179,2878,ɔ
1789469430.4098449,2155,2880,ɔ
1789469430.4111621,2036,2877,ɔ
1789469430.4136121,2025,2879,ɔ
1789469430.41592,2169,2878,ɔ
1789469430.416976,2037,2880,ɔ
1789469430.419533,1956,2876,ɔ
1789469430.421846,2077,2878,ɔ
1789469430.423139,2166,2878,ɔ
1789469430.4254432,2156,2881,ɔ
1789469430.4279969,2063,2879,ɔ
1789469430.429291,2025,2879,ɔ
1789469430.434272,2127,2880,ɔ
1789469430.4354172,2105,2879,ɔ
1789469430.4368262,1984,2877,ɔ
1789469430.437005,2019,2880,ɔ
1789469430.4400709,2139,2878,ɔ
1789469430.4427679,2165,2878,ɔ
1789469430.442971,2095,2880,ɔ
1789469430.445821,2039,2879,ɔ
1789469430.447125,2112,2878,ɔ
1789469430.4492018,2135,2879,ɔ
1789469430.451274,1963,2878,ɔ
1789469430.453666,1972,2879,ɔ
1789469430.45597,2084,2881,ɔ
1789469430.457029,2153,2878,ɔ
1789469430.459415,2151,2879,ɔ
1789469430.4617229,2079,2879,ɔ
1789469430.463017,2078,2878,ɔ
1789469430.4655309,2156,2878,ɔ
1789469430.467841,2017,2879,ɔ
1789469430.468897,1925,2877,ɔ
1789469430.4714482,2058,2879,ɔ
1789469430.473761,2159,2878,ɔ
1789469430.47489,2145,2876,ɔ
1789469430.480912,2046,2879,ɔ
1789469430.481031,1998,2879,ɔ
1789469430.481788,2147,2878,ɔ
1789469430.4835122,2100,2878,ɔ
1789469430.487129,1934,2878,ɔ
1789469430.488547,2004,2879,ɔ
1789469430.491188,2160,2879,ɔ
1789469430.491689,2178,2879,ɔ
1789469430.493875,2105,2880,ɔ
1789469430.4949288,2027,2879,ɔ
1789469430.497277,2095,2878,ɔ
1789469430.4998488,2126,2878,ɔ
1789469430.500906,1958,2879,ɔ
1789469430.503468,1967,2879,ɔ
1789469430.505537,2125,2878,ɔ
1789469430.508091,2187,2879,ɔ
1789469430.509143,2126,2879,ɔ
1789469430.511461,2029,2877,ɔ
1789469430.514014,2034,2878,ɔ
1789469430.515316,2147,2879,ɔ
1789469430.517632,2018,2880,ɔ
1789469430.5189419,1939,2878,ɔ
1789469430.5212622,2043,2879,ɔ
1789469430.523808,2122,2878,ɔ
1789469430.5282428,2113,2879,ɔ
1789469430.529115,2112,2880,ɔ
1789469430.529695,2092,2879,ɔ
1789469430.5313458,2150,2880,ɔ
1789469430.533441,2073,2878,ɔ
1789469430.535659,1957,2877,ɔ
1789469430.537281,2022,2879,ɔ
1789469430.5402591,2162,2879,ɔ
1789469430.541564,2216,2879,ɔ
1789469430.543641,2105,2880,ɔ
1789469430.544951,2026,2879,ɔ
1789469430.547037,2085,2878,ɔ
1789469430.549124,2147,2879,ɔ
1789469430.5514429,1979,2878,ɔ
1789469430.553765,1959,2879,ɔ
1789469430.5548658,2115,2879,ɔ
1789469430.557193,2206,2878,ɔ
1789469430.5592608,2162,2881,ɔ
1789469430.5615659,2067,2878,ɔ
1789469430.563949,2060,2878,ɔ
1789469430.5650072,2157,2878,ɔ
1789469430.567314,2055,2878,ɔ
1789469430.569639,1991,2878,ɔ
1789469430.5719569,2066,2878,ɔ
1789469430.573048,2215,2879,ɔ
1789469430.5777652,2183,2879,ɔ
1789469430.578312,2073,2879,ɔ
1789469430.580534,2019,2878,ɔ
1789469430.5825741,2119,2878,ɔ
1789469430.583974,2051,2878,ɔ
1789469430.586285,1911,2876,ɔ
1789469430.589445,1963,2878,ɔ
1789469430.589652,2074,2877,ɔ
1789469430.5919738,2158,2878,ɔ
1789469430.593159,2087,2879,ɔ
1789469430.595525,2012,2878,ɔ
1789469430.596837,2073,2879,ɔ
1789469430.5991528,2158,2878,ɔ
1789469430.6017148,2030,2877,ɔ
1789469430.6040409,1971,2879,ɔ
1789469430.605355,2102,2879,ɔ
1789469430.607736,2196,2877,ɔ
1789469430.609032,2150,2879,ɔ
1789469430.611354,2063,2877,ɔ
1789469430.613455,2073,2879,ɔ
1789469430.6155689,2175,2879,ɔ
1789469430.617895,2035,2879,ɔ
1789469430.61917,1924,2878,ɔ
1789469430.621529,2067,2879,ɔ
1789469430.6230989,2217,2880,ɔ
1789469430.627895,2197,2880,ɔ
1789469430.6287081,2099,2880,ɔ
1789469430.629332,2026,2879,ɔ
1789469430.6332061,2117,2880,ɔ
1789469430.633677,2106,2879,ɔ
1789469430.6351511,1962,2877,ɔ
1789469430.638035,2010,2878,ɔ
1789469430.640214,2127,2878,ɔ
1789469430.641523,2173,2879,ɔ
1789469430.642826,2116,2879,ɔ
1789469430.6497788,2032,2879,ɔ
1789469430.649926,2083,2879,ɔ
1789469430.651187,2177,2879,ɔ
1789469430.65259,2000,2877,ɔ
1789469430.6545868,1978,2879,ɔ
1789469430.656385,2069,2879,ɔ
1789469430.658171,2181,2880,ɔ
1789469430.659468,2106,2880,ɔ
1789469430.661867,2002,2879,ɔ
1789469430.66292,2008,2878,ɔ
1789469430.665322,2118,2879,ɔ
1789469430.667897,2018,2879,ɔ
1789469430.668992,1980,2878,ɔ
1789469430.671575,2060,2879,ɔ
1789469430.6728802,2181,2877,ɔ
1789469430.675203,2177,2881,ɔ
1789469430.677769,2111,2878,ɔ
1789469430.678866,2035,2878,ɔ
1789469430.680974,2152,2878,ɔ
1789469430.683054,2136,2879,ɔ
1789469430.685591,1952,2877,ɔ
1789469430.6879082,1992,2878,ɔ
1789469430.688968,2128,2879,ɔ
1789469430.691298,2135,2877,ɔ
1789469430.6933918,2072,2879,ɔ
1789469430.695523,2047,2878,ɔ
1789469430.7004192,2130,2878,ɔ
1789469430.701789,2161,2880,ɔ
1789469430.701916,2000,2877,ɔ
1789469430.703508,1962,2877,ɔ
1789469430.706326,2124,2880,ɔ
1789469430.7078662,2210,2878,ɔ
1789469430.709735,2155,2879,ɔ
1789469430.711293,2052,2878,ɔ
1789469430.713515,2050,2878,ɔ
1789469430.7148302,2157,2879,ɔ
1789469430.7177658,2012,2879,ɔ
1789469430.7230232,1925,2878,ɔ
1789469430.7232041,2018,2878,ɔ
1789469430.724006,2168,2879,ɔ
1789469430.7258098,2155,2878,ɔ
1789469430.727796,2077,2879,ɔ
1789469430.72993,2013,2879,ɔ
1789469430.731498,2075,2879,ɔ
1789469430.732895,2083,2880,ɔ
1789469430.735755,1944,2878,ɔ
1789469430.7368078,1986,2880,ɔ
1789469430.739118,2126,2879,ɔ
1789469430.7414348,2187,2878,ɔ
1789469430.742752,2137,2880,ɔ
1789469430.7448199,2072,2878,ɔ
1789469430.747031,2102,2880,ɔ
1789469430.749362,2147,2878,ɔ
1789469430.751437,2021,2876,ɔ
1789469430.752873,1946,2879,ɔ
1789469430.755459,2084,2879,ɔ
1789469430.757597,2140,2879,ɔ
1789469430.758751,2123,2880,ɔ
1789469430.76107,2053,2878,ɔ
1789469430.763391,2080,2878,ɔ
1789469430.7647738,2151,2879,ɔ
1789469430.7669601,2019,2879,ɔ
1789469430.772417,1950,2878,ɔ
1789469430.7729769,2027,2878,ɔ
1789469430.773488,2179,2880,ɔ
1789469430.774833,2197,2881,ɔ
1789469430.778063,2105,2880,ɔ
1789469430.780261,2013,2878,ɔ
1789469430.781548,2116,2880,ɔ
1789469430.783745,2076,2880,ɔ
1789469430.78508,1927,2877,ɔ
1789469430.787848,1982,2878,ɔ
1789469430.789165,2073,2878,ɔ
1789469430.793776,2205,2879,ɔ
1789469430.7946932,2128,2880,ɔ
1789469430.796305,2016,2880,ɔ
1789469430.798584,2093,2879,ɔ
1789469430.8000672,2166,2878,ɔ
1789469430.8018692,1986,2878,ɔ
1789469430.8032022,1955,2878,ɔ
1789469430.805423,2028,2879,ɔ
1789469430.806755,2125,2877,ɔ
1789469430.8093219,2115,2878,ɔ
1789469430.811908,2050,2877,ɔ
1789469430.81321,2069,2878,ɔ
1789469430.815708,2177,2878,ɔ
1789469430.816771,2040,2878,ɔ
1789469430.819081,1944,2878,ɔ
1789469430.821645,2034,2877,ɔ
1789469430.822946,2101,2878,ɔ
1789469430.8252668,2289,2880,ɔ
1789469430.827826,2107,2878,ɔ
1789469430.829133,2006,2878,ɔ
1789469430.831444,2080,2880,ɔ
1789469430.832792,2091,2879,ɔ
1789469430.834862,1968,2877,ɔ
1789469430.837182,2021,2879,ɔ
1789469430.842467,2196,2879,ɔ
1789469430.8433762,2322,2881,ɔ
1789469430.843797,2278,2880,ɔ
1789469430.845428,2248,2878,ɔ
1789469430.8478022,2364,2880,ɔ
1789469430.8496919,2400,2879,ɔ
1789469430.851549,2121,2880,ɔ
1789469430.8531451,2031,2878,ɔ
1789469430.855513,2047,2880,ɔ
1789469430.856818,2133,2879,ɔ
1789469430.8591108,2165,2879,ɔ
1789469430.863353,1998,2879,ɔ
1789469430.864248,2000,2878,ɔ
1789469430.866325,2129,2879,ɔ
1789469430.8682728,1999,2879,ɔ
1789469430.871774,1949,2879,ɔ
1789469430.871912,1939,2880,ɔ
1789469430.873481,2007,2879,ɔ
1789469430.875904,2140,2877,ɔ
1789469430.877101,2108,2879,ɔ
1789469430.879272,2101,2879,ɔ
1789469430.8816059,2100,2879,ɔ
1789469430.882855,1987,2879,ɔ
1789469430.885428,1923,2878,ɔ
1789469430.886763,1957,2878,ɔ
1789469430.889088,2076,2879,ɔ
1789469430.891392,2245,2878,ɔ
1789469430.893708,2136,2880,ɔ
1789469430.894773,2005,2878,ɔ
1789469430.897333,2068,2878,ɔ
1789469430.899662,2159,2880,ɔ
1789469430.9007611,1928,2877,ɔ
1789469430.90309,1835,2877,ɔ
1789469430.905418,2039,2879,ɔ
1789469430.907742,2146,2879,ɔ
1789469430.908927,2086,2877,ɔ
1789469430.911244,1992,2879,ɔ
1789469430.914121,1999,2878,ɔ
1789469430.91937,2223,2879,ɔ
1789469430.922202,2064,2879,ɔ
1789469430.924226,1860,2878,ɔ
1789469430.9247308,1936,2880,ɔ
1789469430.926045,2140,2879,ɔ
1789469430.9273658,2309,2881,ɔ
1789469430.9291031,2171,2880,ɔ
1789469430.9293141,1936,2879,ɔ
1789469430.9310699,1980,2878,ɔ
1789469430.933155,1997,2879,ɔ
1789469430.935704,1980,2876,ɔ
1789469430.9370182,1893,2879,ɔ
1789469430.942632,2174,2879,ɔ
1789469430.9435148,2227,2879,ɔ
1789469430.944077,2104,2881,ɔ
1789469430.945906,1921,2880,ɔ
1789469430.948247,1871,2877,ɔ
1789469430.9494479,2052,2879,ɔ
1789469430.952184,1991,2878,ɔ
1789469430.9539871,1984,2879,ɔ
1789469430.956372,2104,2880,ɔ
1789469430.957469,2189,2879,ɔ
1789469430.958776,2135,2880,ɔ
1789469430.960845,1947,2879,ɔ
1789469430.96343,1945,2878,ɔ
1789469430.965776,2057,2878,ɔ
1789469430.9668381,1900,2877,ɔ
1789469430.969407,1829,2879,ɔ
1789469430.971484,1978,2879,ɔ
1789469430.9738061,2111,2878,ɔ
1789469430.974866,2126,2878,ɔ
1789469430.977437,2011,2879,ɔ
1789469430.9797602,1971,2878,ɔ
1789469430.981062,2070,2879,ɔ
1789469430.983406,2064,2879,ɔ
1789469430.985478,1924,2877,ɔ
1789469430.987805,1999,2878,ɔ
1789469430.9888608,2112,2879,ɔ
1789469430.991179,2086,2877,ɔ
1789469430.9967282,2060,2880,ɔ
1789469431.000013,1950,2878,ɔ
1789469431.0001862,2254,2879,ɔ
1789469431.0004349,2271,2880,ɔ
1789469431.00257,1793,2878,ɔ
1789469431.006329,1798,2880,ɔ
1789469431.008255,1979,2879,ɔ
1789469431.0084312,2109,2878,ɔ
1789469431.0108979,2157,2881,ɔ
1789469431.010998,2135,2879,ɔ
1789469431.013203,1840,2877,ɔ
1789469431.01966,1803,2879,ɔ
1789469431.022847,1843,2876,ɔ
1789469431.023118,1902,2878,ɔ
1789469431.0233212,2104,2878,ɔ
1789469431.023471,2320,2879,ɔ
1789469431.025613,2238,2879,ɔ
1789469431.027136,1829,2877,ɔ
1789469431.02946,1867,2879,ɔ
1789469431.031434,2173,2878,ɔ
1789469431.033848,2142,2880,ɔ
1789469431.0351539,2166,2880,ɔ
1789469431.037493,2065,2878,ɔ
1789469431.038809,2154,2878,ɔ
1789469431.041143,2302,2881,ɔ
1789469431.043465,2163,2880,ɔ
1789469431.044766,2071,2879,ɔ
1789469431.047322,1972,2878,ɔ
1789469431.048644,1981,2880,ɔ
1789469431.051213,1905,2878,ɔ
1789469431.053449,1873,2878,ɔ
1789469431.054754,2034,2879,ɔ
1789469431.057067,2066,2879,ɔ
1789469431.059392,2022,2878,ɔ
1789469431.060693,2038,2880,ɔ
1789469431.062772,1980,2879,ɔ
1789469431.065331,2105,2879,ɔ
1789469431.06764,2148,2880,ɔ
1789469431.073348,1973,2878,ɔ
1789469431.074296,1872,2879,ɔ
1789469431.075274,1843,2879,ɔ
1789469431.0768871,2101,2878,ɔ
1789469431.077193,2039,2879,ɔ
1789469431.0797582,1907,2879,ɔ
1789469431.081256,2119,2879,ɔ
1789469431.083036,2241,2878,ɔ
1789469431.084971,2012,2878,ɔ
1789469431.086758,1893,2879,ɔ
1789469431.089322,1950,2878,ɔ
1789469431.090847,2019,2878,ɔ
1789469431.095972,2128,2879,ɔ
1789469431.0969222,1969,2879,ɔ
1789469431.09841,2038,2878,ɔ
1789469431.1005912,1927,2878,ɔ
1789469431.10077,1839,2877,ɔ
1789469431.104474,1762,2879,ɔ
1789469431.106383,1865,2879,ɔ
1789469431.108788,2144,2879,ɔ
1789469431.108829,2088,2878,ɔ
1789469431.111147,1896,2878,ɔ
1789469431.113458,1869,2879,ɔ
1789469431.1147578,1961,2879,ɔ
1789469431.117008,1683,2878,ɔ
1789469431.1195688,1400,2877,ɔ
1789469431.1208682,1551,2878,ɔ
1789469431.123179,1644,2878,ɔ
1789469431.1254961,1561,2878,ɔ
1789469431.1267982,1471,2876,ɔ
1789469431.1289248,1327,2876,ɔ
1789469431.1310148,1108,2875,ɔ
1789469431.133572,1790,2877,ɔ
1789469431.134871,1892,2877,ɔ
1789469431.1374238,1782,2878,ɔ
1789469431.1387231,1792,2878,ɔ
1789469431.141114,1914,2877,ɔ
1789469431.145984,2023,2877,ɔ
1789469431.146483,1927,2879,ɔ
1789469431.146921,1788,2879,ɔ
1789469431.150271,1698,2876,ɔ
1789469431.1523368,1615,2876,ɔ
1789469431.154241,1496,2879,ɔ
1789469431.156066,1742,2878,ɔ
1789469431.157942,1878,2877,ɔ
1789469431.1589959,1815,2877,ɔ
1789469431.161383,1850,2879,ɔ
1789469431.165951,1949,2878,ɔ
1789469431.166079,1869,2878,ɔ
1789469431.168704,1760,2877,ɔ
1789469431.169004,1700,2878,ɔ
1789469431.170892,1871,2878,ɔ
1789469431.174325,1855,2878,ɔ
1789469431.176281,2005,2877,ɔ
1789469431.1781251,2119,2880,ɔ
1789469431.179426,1820,2879,ɔ
1789469431.181489,2067,2879,ɔ
1789469431.1826298,2110,2880,ɔ
1789469431.185201,1881,2879,ɔ
1789469431.1877592,1954,2879,ɔ
1789469431.188821,2063,2879,ɔ
1789469431.191375,2025,2880,ɔ
1789469431.193451,1958,2879,ɔ
1789469431.194759,1842,2879,ɔ
1789469431.197067,1980,2880,ɔ
1789469431.199581,2086,2879,ɔ
1789469431.200881,1902,2876,ɔ
1789469431.203434,1845,2878,ɔ
1789469431.205724,2048,2879,ɔ
1789469431.206778,2205,2879,ɔ
1789469431.209098,2091,2877,ɔ
1789469431.2151139,1970,2880,ɔ
1789469431.215563,2041,2878,ɔ
1789469431.216903,2134,2879,ɔ
1789469431.2186172,2049,2879,ɔ
1789469431.218795,1876,2877,ɔ
1789469431.222031,1912,2879,ɔ
1789469431.2241879,2039,2878,ɔ
1789469431.226349,2113,2878,ɔ
1789469431.228715,1974,2879,ɔ
1789469431.228788,1870,2879,ɔ
1789469431.23135,1990,2879,ɔ
1789469431.237064,2151,2879,ɔ
1789469431.23749,1964,2878,ɔ
1789469431.237608,2000,2879,ɔ
1789469431.2400699,2185,2878,ɔ
1789469431.242154,2199,2879,ɔ
1789469431.2438521,2301,2880,ɔ
1789469431.24568,2195,2878,ɔ
1789469431.247814,2168,2879,ɔ
1789469431.249674,2247,2879,ɔ
1789469431.250761,2088,2879,ɔ
1789469431.253095,1982,2878,ɔ
1789469431.2556539,2111,2879,ɔ
1789469431.25689,2257,2880,ɔ
1789469431.2593439,2188,2881,ɔ
1789469431.261634,2158,2880,ɔ
1789469431.2626848,2148,2879,ɔ
1789469431.265197,2160,2877,ɔ
1789469431.267262,1991,2879,ɔ
1789469431.269587,1850,2878,ɔ
1789469431.270889,1987,2877,ɔ
1789469431.273203,2225,2880,ɔ
1789469431.2755232,2220,2880,ɔ
1789469431.27683,2159,2877,ɔ
1789469431.278909,2097,2879,ɔ
1789469431.281465,2058,2879,ɔ
1789469431.2831511,2119,2880,ɔ
1789469431.287808,1936,2877,ɔ
1789469431.28798,2062,2878,ɔ
1789469431.290059,2161,2877,ɔ
1789469431.291664,2227,2879,ɔ
1789469431.293204,2112,2879,ɔ
1789469431.295695,2115,2878,ɔ
1789469431.297981,2173,2879,ɔ
1789469431.300299,2212,2879,ɔ
1789469431.301603,1947,2877,ɔ
1789469431.302907,1852,2879,ɔ
1789469431.308746,2096,2880,ɔ
1789469431.308897,2140,2879,ɔ
1789469431.309341,2057,2879,ɔ
1789469431.311281,1999,2878,ɔ
1789469431.312992,2097,2879,ɔ
1789469431.3166919,2269,2880,ɔ
1789469431.318771,2180,2879,ɔ
1789469431.318989,1928,2878,ɔ
1789469431.321177,1967,2879,ɔ
1789469431.3236759,2256,2880,ɔ
1789469431.3249762,2320,2880,ɔ
1789469431.3275461,2194,2880,ɔ
1789469431.328769,1899,2879,ɔ
1789469431.3313248,2082,2878,ɔ
1789469431.33358,2219,2881,ɔ
1789469431.334877,1962,2877,ɔ
1789469431.33719,2015,2878,ɔ
1789469431.3395069,2114,2880,ɔ
1789469431.3408031,2254,2878,ɔ
1789469431.3432379,2079,2880,ɔ
1789469431.345553,1972,2879,ɔ
1789469431.3466072,1909,2879,ɔ
1789469431.3491578,2049,2878,ɔ
1789469431.351713,2018,2881,ɔ
1789469431.3529658,1945,2879,ɔ
1789469431.3552792,2153,2879,ɔ
1789469431.3577359,2157,2878,ɔ
1789469431.359034,2203,2880,ɔ
1789469431.361588,2092,2878,ɔ
1789469431.3667421,1949,2879,ɔ
1789469431.367286,2209,2879,ɔ
1789469431.368151,2027,2880,ɔ
1789469431.3698518,1854,2878,ɔ
1789469431.372027,1902,2880,ɔ
1789469431.373782,2067,2878,ɔ
1789469431.378016,2256,2881,ɔ
1789469431.37814,2095,2879,ɔ
1789469431.3804429,1942,2880,ɔ
1789469431.3817532,2044,2880,ɔ
1789469431.382897,2052,2879,ɔ
1789469431.388875,1815,2877,ɔ
1789469431.3897758,1992,2878,ɔ
1789469431.390191,2125,2880,ɔ
1789469431.391785,2142,2878,ɔ
1789469431.393462,2139,2880,ɔ
1789469431.3948128,2128,2878,ɔ
1789469431.397345,2068,2878,ɔ
1789469431.399518,2111,2878,ɔ
1789469431.401328,1903,2877,ɔ
1789469431.403651,1837,2879,ɔ
1789469431.404948,2042,2879,ɔ
1789469431.407508,2105,2879,ɔ
1789469431.4088168,2051,2878,ɔ
1789469431.4113688,2090,2879,ɔ
1789469431.412571,1983,2879,ɔ
1789469431.4146402,2096,2879,ɔ
1789469431.4171898,2017,2880,ɔ
1789469431.4195042,1926,2879,ɔ
1789469431.420562,1920,2878,ɔ
1789469431.423112,2163,2879,ɔ
1789469431.425477,2213,2880,ɔ
1789469431.4265332,2222,2880,ɔ
1789469431.4290822,1954,2879,ɔ
1789469431.431394,2141,2879,ɔ
1789469431.432519,2218,2880,ɔ
1789469431.437067,1947,2878,ɔ
1789469431.4375591,1920,2879,ɔ
1789469431.439658,2129,2879,ɔ
1789469431.44155,2107,2879,ɔ
1789469431.44305,2044,2879,ɔ
1789469431.446754,1955,2879,ɔ
1789469431.44688,2060,2880,ɔ
1789469431.448611,2089,2878,ɔ
1789469431.451168,1960,2879,ɔ
1789469431.452512,1790,2879,ɔ
1789469431.454624,2014,2879,ɔ
1789469431.456949,2274,2879,ɔ
1789469431.4592562,2179,2881,ɔ
1789469431.461531,2032,2879,ɔ
1789469431.4628239,1965,2879,ɔ
1789469431.465127,2095,2878,ɔ
1789469431.4665658,2079,2880,ɔ
1789469431.468639,1909,2877,ɔ
1789469431.4711921,1986,2878,ɔ
1789469431.472517,2143,2879,ɔ
1789469431.4750772,2170,2877,ɔ
1789469431.477628,1970,2879,ɔ
1789469431.478923,1877,2879,ɔ
1789469431.483725,2000,2880,ɔ
1789469431.484159,2120,2878,ɔ
1789469431.48596,1918,2878,ɔ
1789469431.487871,1938,2879,ɔ
1789469431.489563,2067,2879,ɔ
1789469431.4913971,2037,2879,ɔ
1789469431.4935098,2025,2880,ɔ
1789469431.495338,1853,2879,ɔ
1789469431.496641,1964,2879,ɔ
1789469431.4987981,2160,2879,ɔ
1789469431.5012639,2143,2878,ɔ
1789469431.503579,1859,2879,ɔ
1789469431.504875,2086,2880,ɔ
1789469431.507427,2260,2879,ɔ
1789469431.5085042,2253,2881,ɔ
1789469431.510825,2104,2879,ɔ
1789469431.5132911,2033,2879,ɔ
1789469431.515625,2206,2880,ɔ
1789469431.516923,2050,2879,ɔ
1789469431.51923,1815,2879,ɔ
1789469431.521303,1896,2880,ɔ
1789469431.5236201,2154,2878,ɔ
1789469431.5246851,2184,2878,ɔ
1789469431.530724,2070,2879,ɔ
1789469431.531824,1898,2879,ɔ
1789469431.532309,1994,2879,ɔ
1789469431.534026,2097,2879,ɔ
1789469431.535736,1905,2879,ɔ
1789469431.537067,1919,2879,ɔ
1789469431.539522,2061,2880,ɔ
1789469431.541895,2123,2878,ɔ
1789469431.545092,2167,2881,ɔ
1789469431.545217,2178,2879,ɔ
1789469431.547263,2086,2879,ɔ
1789469431.548697,2198,2879,ɔ
1789469431.5544581,1992,2877,ɔ
1789469431.5545611,1913,2878,ɔ
1789469431.557423,2089,2879,ɔ
1789469431.558812,2157,2879,ɔ
1789469431.559829,2131,2880,ɔ
1789469431.562123,1999,2879,ɔ
1789469431.5659032,2022,2878,ɔ
1789469431.56624,2161,2880,ɔ
1789469431.5690382,2129,2880,ɔ
1789469431.5690958,1925,2877,ɔ
1789469431.571438,2041,2879,ɔ
1789469431.572622,2177,2880,ɔ
1789469431.574879,2183,2879,ɔ
1789469431.577157,2037,2880,ɔ
1789469431.579456,1888,2878,ɔ
1789469431.58056,1992,2878,ɔ
1789469431.5831418,2083,2878,ɔ
1789469431.5855029,1926,2878,ɔ
1789469431.586844,1986,2878,ɔ
1789469431.589256,2146,2879,ɔ
1789469431.590624,2277,2878,ɔ
1789469431.5930161,2203,2880,ɔ
1789469431.594532,2053,2879,ɔ
1789469431.59708,1989,2878,ɔ
1789469431.599641,2168,2880,ɔ
1789469431.601064,2050,2879,ɔ
1789469431.6088681,1954,2878,ɔ
1789469431.610261,2042,2880,ɔ
1789469431.611965,2152,2879,ɔ
1789469431.6125178,2160,2879,ɔ
1789469431.61533,2052,2878,ɔ
1789469431.6172001,2076,2878,ɔ
1789469431.620656,2146,2879,ɔ
1789469431.62354,2030,2880,ɔ
1789469431.6267571,1881,2877,ɔ
1789469431.62722,1955,2879,ɔ
1789469431.627413,2213,2880,ɔ
1789469431.627616,2248,2881,ɔ
1789469431.627819,2158,2880,ɔ
1789469431.629188,2030,2879,ɔ
1789469431.63154,2095,2879,ɔ
1789469431.63775,2153,2880,ɔ
1789469431.6398568,1936,2878,ɔ
1789469431.640073,1883,2878,ɔ
1789469431.6415029,2071,2879,ɔ
1789469431.6425111,2187,2878,ɔ
1789469431.642973,2089,2879,ɔ
1789469431.6461399,1947,2879,ɔ
1789469431.648622,2072,2879,ɔ
1789469431.648803,2232,2879,ɔ
1789469431.6509812,2000,2879,ɔ
1789469431.653366,1881,2880,ɔ
1789469431.654528,1997,2878,ɔ
1789469431.656744,2197,2878,ɔ
1789469431.659075,2228,2880,ɔ
1789469431.661396,2134,2879,ɔ
1789469431.662503,2058,2879,ɔ
1789469431.664644,2174,2879,ɔ
1789469431.6670039,2067,2879,ɔ
1789469431.669446,1908,2877,ɔ
1789469431.6707468,1994,2878,ɔ
1789469431.67303,2144,2878,ɔ
1789469431.675585,2192,2878,ɔ
1789469431.6766331,2080,2878,ɔ
1789469431.6789498,1979,2879,ɔ
1789469431.681504,2058,2878,ɔ
1789469431.682713,2176,2877,ɔ
1789469431.689019,1951,2877,ɔ
1789469431.689926,1938,2878,ɔ
1789469431.6905851,2112,2879,ɔ
1789469431.691914,2190,2879,ɔ
1789469431.693831,2142,2880,ɔ
1789469431.695224,1984,2878,ɔ
1789469431.698088,1995,2878,ɔ
1789469431.700589,2191,2879,ɔ
1789469431.7008798,2024,2879,ɔ
1789469431.703294,1882,2879,ɔ
1789469431.7053828,2067,2880,ɔ
1789469431.7064981,2245,2880,ɔ
1789469431.7128892,2162,2879,ɔ
1789469431.7144551,2071,2880,ɔ
1789469431.714603,2013,2879,ɔ
1789469431.716361,2153,2879,ɔ
1789469431.7169018,2078,2879,ɔ
1789469431.7230651,1881,2877,ɔ
1789469431.723278,1941,2879,ɔ
1789469431.723548,2153,2878,ɔ
1789469431.726062,2188,2878,ɔ
1789469431.7271402,2082,2879,ɔ
1789469431.729559,2021,2878,ɔ
1789469431.730617,2083,2879,ɔ
1789469431.732942,2151,2879,ɔ
1789469431.7352571,1917,2877,ɔ
1789469431.736576,1893,2879,ɔ
1789469431.7389429,2161,2878,ɔ
1789469431.741271,2303,2879,ɔ
1789469431.743493,2160,2879,ɔ
1789469431.74483,2003,2879,ɔ
1789469431.747385,2007,2879,ɔ
1789469431.7485068,2203,2880,ɔ
1789469431.751287,1962,2877,ɔ
1789469431.7525508,1903,2878,ɔ
1789469431.754859,2021,2879,ɔ
1789469431.75742,2294,2878,ɔ
1789469431.763299,2237,2879,ɔ
1789469431.763927,2043,2879,ɔ
1789469431.7650719,1960,2879,ɔ
1789469431.765719,2164,2878,ɔ
1789469431.767383,2094,2880,ɔ
1789469431.769286,1969,2878,ɔ
1789469431.771422,2045,2880,ɔ
1789469431.773897,2262,2879,ɔ
1789469431.776434,2198,2878,ɔ
1789469431.776693,2046,2879,ɔ
1789469431.7791722,2102,2879,ɔ
1789469431.780523,2243,2879,ɔ
1789469431.783118,2260,2879,ɔ
1789469431.787554,1981,2877,ɔ
1789469431.788071,1954,2879,ɔ
1789469431.7905889,2017,2880,ɔ
1789469431.790857,2132,2878,ɔ
1789469431.794205,2304,2881,ɔ
1789469431.796423,2131,2879,ɔ
1789469431.7988229,2130,2879,ɔ
1789469431.799217,2243,2879,ɔ
1789469431.801485,1874,2877,ɔ
1789469431.802544,1898,2878,ɔ
1789469431.8049312,2221,2880,ɔ
1789469431.807266,2284,2879,ɔ
1789469431.809574,2377,2881,ɔ
1789469431.810652,2227,2879,ɔ
1789469431.8127391,2007,2877,ɔ
1789469431.815088,2127,2880,ɔ
1789469431.81742,2245,2879,ɔ
1789469431.818536,2125,2878,ɔ
1789469431.820619,2198,2879,ɔ
1789469431.822934,2279,2879,ɔ
1789469431.825252,2123,2877,ɔ
1789469431.826473,2090,2879,ɔ
1789469431.8285592,2035,2880,ɔ
1789469431.8311129,2286,2879,ɔ
1789469431.833607,2328,2881,ɔ
1789469431.8346722,1990,2878,ɔ
1789469431.842114,2073,2879,ɔ
1789469431.842793,2324,2880,ɔ
1789469431.845342,2322,2879,ɔ
1789469431.847221,2424,2880,ɔ
1789469431.8478432,2215,2879,ɔ
1789469431.849407,2266,2878,ɔ
1789469431.850044,2380,2880,ɔ
1789469431.855906,2261,2879,ɔ
1789469431.8564842,2195,2878,ɔ
1789469431.856877,2283,2880,ɔ
1789469431.859433,2435,2879,ɔ
1789469431.859521,2434,2881,ɔ
1789469431.8608909,2342,2879,ɔ
1789469431.8632698,2222,2879,ɔ
1789469431.8693628,2368,2878,ɔ
1789469431.869482,2309,2880,ɔ
1789469431.8714209,2067,2878,ɔ
1789469431.871614,2290,2880,ɔ
1789469431.874068,2420,2879,ɔ
1789469431.8764942,2499,2881,ɔ
1789469431.878293,2372,2880,ɔ
1789469431.881037,2247,2879,ɔ
1789469431.881241,2359,2879,ɔ
1789469431.883635,2459,2880,ɔ
1789469431.884964,2181,2880,ɔ
1789469431.887197,2100,2878,ɔ
1789469431.889468,2440,2879,ɔ
1789469431.890541,2443,2882,ɔ
1789469431.8927941,2325,2880,ɔ
1789469431.895064,1977,2878,ɔ
1789469431.897344,2130,2879,ɔ
1789469431.898667,2338,2880,ɔ
1789469431.901016,2187,2879,ɔ
1789469431.903129,2020,2879,ɔ
1789469431.905249,2350,2878,ɔ
1789469431.906553,2347,2878,ɔ
1789469431.909104,2323,2880,ɔ
1789469431.911272,2120,2879,ɔ
1789469431.9136,2309,2878,ɔ
1789469431.9146612,2264,2879,ɔ
1789469431.9167922,2290,2881,ɔ
1789469431.919418,2177,2879,ɔ
1789469431.9243,2227,2879,ɔ
1789469431.9248261,2322,2880,ɔ
1789469431.925893,2428,2881,ɔ
1789469431.927835,2192,2879,ɔ
1789469431.929694,2139,2879,ɔ
1789469431.931246,2138,2879,ɔ
1789469431.934048,2152,2879,ɔ
1789469431.936791,2065,2880,ɔ
1789469431.937078,1996,2879,ɔ
1789469431.9394171,2152,2877,ɔ
1789469431.9404879,2245,2878,ɔ
1789469431.942807,2182,2879,ɔ
1789469431.948357,2051,2878,ɔ
1789469431.948842,2161,2879,ɔ
1789469431.949325,2150,2879,ɔ
1789469431.951042,2037,2878,ɔ
1789469431.953224,1921,2878,ɔ
1789469431.954582,2002,2880,ɔ
1789469431.956886,2221,2879,ɔ
1789469431.9593441,2231,2881,ɔ
1789469431.9615948,2189,2880,ɔ
1789469431.962751,2093,2879,ɔ
1789469431.9653199,2198,2879,ɔ
1789469431.966626,2158,2880,ɔ
1789469431.9689422,1965,2878,ɔ
1789469431.9710798,1935,2879,ɔ
1789469431.972403,2101,2878,ɔ
1789469431.974954,2210,2877,ɔ
1789469431.9770901,2194,2879,ɔ
1789469431.9784288,2130,2878,ɔ
1789469431.980984,2102,2879,ɔ
1789469431.983545,2181,2879,ɔ
1789469431.98461,2026,2877,ɔ
1789469431.9871628,2076,2878,ɔ
1789469431.988459,2243,2879,ɔ
1789469431.991013,2276,2879,ɔ
1789469431.992408,2183,2880,ɔ
1789469431.999104,2075,2878,ɔ
1789469431.999601,2084,2878,ɔ
1789469432.000105,2206,2878,ɔ
1789469432.0018802,2132,2879,ɔ
1789469432.003524,2003,2877,ɔ
1789469432.005249,2058,2878,ɔ
1789469432.0073888,2185,2879,ɔ
1789469432.009869,2163,2879,ɔ
1789469432.011704,2020,2880,ɔ
1789469432.0130072,1980,2879,ɔ
1789469432.014409,2129,2879,ɔ
1789469432.019906,2117,2879,ɔ
1789469432.0207648,1949,2878,ɔ
1789469432.0212228,1940,2879,ɔ
1789469432.022968,2124,2878,ɔ
1789469432.0245812,2226,2879,ɔ
1789469432.028359,2076,2879,ɔ
1789469432.028517,1972,2879,ɔ
1789469432.030848,2062,2879,ɔ
1789469432.032724,2169,2878,ɔ
1789469432.03504,2015,2877,ɔ
1789469432.036413,1928,2878,ɔ
1789469432.038751,2113,2878,ɔ
1789469432.041307,2236,2879,ɔ
1789469432.0423949,2192,2880,ɔ
1789469432.044953,2067,2878,ɔ
1789469432.0475059,2048,2878,ɔ
1789469432.0486841,2164,2879,ɔ
1789469432.0512362,2056,2878,ɔ
1789469432.052531,1938,2879,ɔ
1789469432.055089,2066,2879,ɔ
1789469432.0574012,2207,2878,ɔ
1789469432.0584488,2185,2880,ɔ
1789469432.061003,2066,2878,ɔ
1789469432.063314,2024,2878,ɔ
1789469432.064415,2086,2877,ɔ
1789469432.070957,2101,2879,ɔ
1789469432.071925,1939,2877,ɔ
1789469432.073322,1919,2879,ɔ
1789469432.0735302,2082,2879,ɔ
1789469432.0751932,2127,2878,ɔ
1789469432.0770261,2100,2879,ɔ
1789469432.079242,2007,2878,ɔ
1789469432.08175,2056,2880,ɔ
1789469432.083601,2148,2879,ɔ
1789469432.084658,1959,2879,ɔ
1789469432.0869708,1922,2879,ɔ
1789469432.0915751,2074,2879,ɔ
1789469432.0920231,2176,2879,ɔ
1789469432.09427,2142,2881,ɔ
1789469432.094571,2028,2879,ɔ
1789469432.097975,2004,2879,ɔ
1789469432.09977,2156,2879,ɔ
1789469432.1022809,2021,2879,ɔ
1789469432.102688,1912,2879,ɔ
1789469432.105576,1996,2878,ɔ
1789469432.1066408,2154,2879,ɔ
1789469432.1088252,2216,2880,ɔ
1789469432.111382,2145,2881,ɔ
1789469432.1124449,2034,2879,ɔ
1789469432.114697,2100,2879,ɔ
1789469432.117005,2117,2880,ɔ
1789469432.1193118,1964,2877,ɔ
1789469432.1205041,1996,2878,ɔ
1789469432.122825,2121,2878,ɔ
1789469432.124956,2163,2878,ɔ
1789469432.1275089,2060,2879,ɔ
1789469432.1288052,1969,2878,ɔ
1789469432.13111,2051,2878,ɔ
1789469432.1324182,2139,2879,ɔ
1789469432.134974,1990,2877,ɔ
1789469432.141498,1932,2878,ɔ
1789469432.141988,2093,2881,ɔ
1789469432.142463,2174,2879,ɔ
1789469432.142902,2137,2880,ɔ
1789469432.145859,2010,2879,ɔ
1789469432.147556,2026,2879,ɔ
1789469432.1497102,2173,2879,ɔ
1789469432.152024,2059,2879,ɔ
1789469432.153928,1915,2879,ɔ
1789469432.155227,2045,2878,ɔ
1789469432.157553,2184,2879,ɔ
1789469432.1617641,2189,2881,ɔ
1789469432.162632,2102,2879,ɔ
1789469432.1630888,2000,2879,ɔ
1789469432.16503,2092,2878,ɔ
1789469432.1672409,2088,2880,ɔ
1789469432.169031,1895,2878,ɔ
1789469432.170982,1992,2879,ɔ
1789469432.1733801,2149,2878,ɔ
1789469432.175232,2233,2878,ɔ
1789469432.176539,2128,2879,ɔ
1789469432.179101,2019,2877,ɔ
1789469432.180404,2049,2878,ɔ
1789469432.182715,2137,2878,ɔ
1789469432.185268,1996,2877,ɔ
1789469432.186442,1952,2878,ɔ
1789469432.188759,2098,2878,ɔ
1789469432.1913111,2207,2879,ɔ
1789469432.1923862,2144,2880,ɔ
1789469432.194911,2075,2878,ɔ
1789469432.197036,2042,2880,ɔ
1789469432.198422,2157,2880,ɔ
1789469432.200737,2057,2880,ɔ
1789469432.202943,1916,2880,ɔ
1789469432.205497,2046,2879,ɔ
1789469432.2067971,2185,2878,ɔ
1789469432.212157,2165,2880,ɔ
1789469432.213025,2037,2880,ɔ
1789469432.2138398,2054,2878,ɔ
1789469432.216543,2147,2879,ɔ
1789469432.216929,2122,2879,ɔ
1789469432.218814,1954,2878,ɔ
1789469432.22239,1970,2879,ɔ
1789469432.222525,2077,2879,ɔ
1789469432.225406,2149,2878,ɔ
1789469432.226701,2106,2879,ɔ
1789469432.2292101,2026,2878,ɔ
1789469432.2315478,2072,2878,ɔ
1789469432.2325928,2192,2879,ɔ
1789469432.235147,2025,2877,ɔ
1789469432.237228,1987,2879,ɔ
1789469432.238524,2097,2878,ɔ
1789469432.2410722,2231,2879,ɔ
1789469432.242389,2153,2880,ɔ
1789469432.244969,2079,2878,ɔ
1789469432.2475252,2031,2879,ɔ
1789469432.248702,2155,2878,ɔ
1789469432.2510211,2089,2880,ɔ
1789469432.252377,1979,2878,ɔ
1789469432.254685,2071,2878,ɔ
1789469432.259615,2179,2879,ɔ
1789469432.260051,2204,2880,ɔ
1789469432.2618399,2128,2879,ɔ
1789469432.263448,2056,2879,ɔ
1789469432.2647822,2131,2879,ɔ
1789469432.2672,2110,2879,ɔ
1789469432.269367,1955,2878,ɔ
1789469432.271598,1916,2879,ɔ
1789469432.272657,2143,2878,ɔ
1789469432.2752168,2216,2879,ɔ
1789469432.276457,2111,2879,ɔ
1789469432.278767,2007,2878,ɔ
1789469432.281079,2023,2879,ɔ
1789469432.2824252,2219,2879,ɔ
1789469432.284974,2000,2877,ɔ
1789469432.2870479,1967,2878,ɔ
1789469432.289361,2126,2878,ɔ
1789469432.290653,2136,2879,ɔ
1789469432.2932081,2145,2880,ɔ
1789469432.295517,2113,2878,ɔ
1789469432.29681,2070,2879,ɔ
1789469432.299119,2177,2879,ɔ
1789469432.3013692,2031,2878,ɔ
1789469432.305866,1904,2879,ɔ
1789469432.3063118,2018,2878,ɔ
1789469432.3067951,2121,2879,ɔ
1789469432.3089201,2232,2882,ɔ
1789469432.3112252,2070,2879,ɔ
1789469432.312525,2115,2878,ɔ
1789469432.316156,2282,2878,ɔ
1789469432.3184052,1986,2879,ɔ
1789469432.318495,1794,2878,ɔ
1789469432.320805,1870,2878,ɔ
1789469432.32336,2185,2879,ɔ
1789469432.324427,2217,2877,ɔ
1789469432.326747,2028,2879,ɔ
1789469432.329061,1926,2879,ɔ
1789469432.330388,1897,2878,ɔ
1789469432.332936,2118,2880,ɔ
1789469432.335254,2101,2881,ɔ
1789469432.336403,2005,2879,ɔ
1789469432.3387148,2135,2879,ɔ
1789469432.341033,2237,2878,ɔ
1789469432.343345,2170,2881,ɔ
1789469432.3446379,2105,2878,ɔ
1789469432.347188,1967,2880,ɔ
1789469432.34848,2208,2879,ɔ
1789469432.353158,2010,2878,ɔ
1789469432.3536189,1889,2878,ɔ
1789469432.355699,1978,2879,ɔ
1789469432.357677,2172,2878,ɔ
1789469432.3593369,2209,2881,ɔ
1789469432.361089,2034,2880,ɔ
1789469432.3632011,1973,2879,ɔ
1789469432.365348,2072,2878,ɔ
1789469432.36665,2122,2879,ɔ
1789469432.368958,2021,2878,ɔ
1789469432.371464,1803,2878,ɔ
1789469432.3727648,2182,2879,ɔ
1789469432.375319,2206,2877,ɔ
1789469432.37645,2132,2880,ɔ
1789469432.378759,2120,2879,ɔ
1789469432.3813078,2129,2879,ɔ
1789469432.382602,2106,2879,ɔ
1789469432.38515,1924,2878,ɔ
1789469432.387264,1868,2878,ɔ
1789469432.3883882,2033,2880,ɔ
1789469432.390694,2199,2879,ɔ
1789469432.3927581,2164,2880,ɔ
1789469432.3948312,2046,2879,ɔ
1789469432.4007838,2009,2879,ɔ
1789469432.401647,2003,2880,ɔ
1789469432.402036,2026,2878,ɔ
1789469432.403285,1938,2879,ɔ
1789469432.405129,2001,2880,ɔ
1789469432.406799,2179,2879,ɔ
1789469432.408494,2177,2880,ɔ
1789469432.410767,1925,2879,ɔ
1789469432.41294,1913,2879,ɔ
1789469432.415505,2036,2880,ɔ
1789469432.416555,2183,2880,ɔ
1789469432.4191282,2002,2878,ɔ
1789469432.420426,2001,2878,ɔ
1789469432.422977,2170,2880,ɔ
1789469432.4252899,2226,2878,ɔ
1789469432.4265878,2063,2878,ɔ
1789469432.429137,1914,2879,ɔ
1789469432.4303901,1907,2878,ɔ
1789469432.432529,2139,2879,ɔ
1789469432.435082,2119,2879,ɔ
1789469432.436437,2067,2879,ɔ
1789469432.438754,2066,2880,ɔ
1789469432.441062,1919,2879,ɔ
1789469432.4432452,2059,2877,ɔ
1789469432.447995,1964,2880,ɔ
1789469432.448101,1866,2878,ɔ
1789469432.450516,1978,2878,ɔ
1789469432.450697,2198,2880,ɔ
1789469432.453666,1904,2877,ɔ
1789469432.455671,1933,2879,ɔ
1789469432.4579132,2119,2879,ɔ
1789469432.460139,2275,2880,ɔ
1789469432.461209,1952,2877,ɔ
1789469432.4632928,1937,2879,ɔ
1789469432.464586,2145,2879,ɔ
1789469432.467154,2121,2879,ɔ
1789469432.4684522,1872,2878,ɔ
1789469432.4710028,1683,2879,ɔ
1789469432.473315,1959,2879,ɔ
1789469432.4745421,2057,2878,ɔ
1789469432.477101,1969,2878,ɔ
1789469432.478421,1718,2877,ɔ
1789469432.4809742,1812,2878,ɔ
1789469432.483525,2335,2879,ɔ
1789469432.484586,2047,2878,ɔ
1789469432.487136,2041,2877,ɔ
1789469432.489258,2352,2881,ɔ
1789469432.490602,2435,2881,ɔ
1789469432.494813,2404,2880,ɔ
1789469432.495378,2116,2879,ɔ
1789469432.497222,1932,2879,ɔ
1789469432.498871,1917,2878,ɔ
1789469432.502313,1753,2877,ɔ
1789469432.5045571,2019,2879,ɔ
1789469432.504778,2003,2878,ɔ
1789469432.506764,1923,2878,ɔ
1789469432.5089011,1972,2877,ɔ
1789469432.511223,2077,2879,ɔ
1789469432.512531,2187,2880,ɔ
1789469432.514815,2269,2880,ɔ
1789469432.5172732,2080,2880,ɔ
1789469432.518568,1756,2876,ɔ
1789469432.5206342,1754,2878,ɔ
1789469432.5229561,1857,2879,ɔ
1789469432.525513,1975,2879,ɔ
1789469432.526762,1914,2877,ɔ
1789469432.529313,1947,2880,ɔ
1789469432.5306041,1913,2879,ɔ
1789469432.532911,1945,2879,ɔ
1789469432.5343099,2088,2879,ɔ
1789469432.53687,1836,2878,ɔ
1789469432.54124,1937,2879,ɔ
1789469432.5417442,1969,2879,ɔ
1789469432.5442681,2015,2879,ɔ
1789469432.544536,1943,2879,ɔ
1789469432.5477288,2156,2880,ɔ
1789469432.549727,2050,2878,ɔ
1789469432.552038,1671,2877,ɔ
1789469432.554194,1604,2877,ɔ
1789469432.5542889,1761,2878,ɔ
1789469432.556845,2043,2879,ɔ
1789469432.559284,2052,2878,ɔ
1789469432.560407,2037,2880,ɔ
1789469432.5627148,1881,2878,ɔ
1789469432.565264,1964,2879,ɔ
1789469432.566558,2032,2880,ɔ
1789469432.5691059,1843,2877,ɔ
1789469432.5714319,1767,2879,ɔ
1789469432.572723,1682,2878,ɔ
1789469432.575274,1813,2879,ɔ
1789469432.5765681,1995,2879,ɔ
1789469432.578885,1847,2878,ɔ
1789469432.58144,1691,2878,ɔ
1789469432.582732,1807,2879,ɔ
1789469432.585131,1655,2876,ɔ
1789469432.589273,1751,2878,ɔ
1789469432.5897758,1966,2878,ɔ
1789469432.591587,1937,2879,ɔ
1789469432.5932631,1988,2878,ɔ
1789469432.594508,1981,2878,ɔ
1789469432.596792,1888,2879,ɔ
1789469432.599079,2168,2879,ɔ
1789469432.6010702,2097,2881,ɔ
1789469432.603158,1900,2878,ɔ
1789469432.604463,1860,2879,ɔ
1789469432.60687,2126,2879,ɔ
1789469432.6091762,2060,2878,ɔ
1789469432.61248,1868,2877,ɔ
1789469432.619991,1712,2878,ɔ
1789469432.62032,1764,2879,ɔ
1789469432.620597,1958,2878,ɔ
1789469432.6206532,1781,2876,ɔ
1789469432.6207092,1755,2878,ɔ
1789469432.623466,2035,2878,ɔ
1789469432.624629,2098,2878,ɔ
1789469432.627299,1959,2878,ɔ
1789469432.628413,1782,2880,ɔ
1789469432.630535,1872,2878,ɔ
1789469432.632978,2164,2879,ɔ
1789469432.634291,1978,2876,ɔ
1789469432.640474,1650,2879,ɔ
1789469432.640995,1939,2879,ɔ
1789469432.642098,2025,2878,ɔ
1789469432.6438022,2003,2878,ɔ
1789469432.6474502,2009,2879,ɔ
1789469432.648305,2111,2878,ɔ
1789469432.6525629,2215,2881,ɔ
1789469432.652748,2074,2878,ɔ
1789469432.6530392,1841,2877,ɔ
1789469432.65536,1919,2878,ɔ
1789469432.656435,2225,2880,ɔ
1789469432.658885,2198,2879,ɔ
1789469432.664167,2084,2879,ɔ
1789469432.6647758,2005,2878,ɔ
1789469432.666822,2043,2878,ɔ
1789469432.6669939,2125,2879,ɔ
1789469432.669118,1897,2877,ɔ
1789469432.67078,1740,2878,ɔ
1789469432.672802,2144,2878,ɔ
1789469432.6751301,2215,2879,ɔ
1789469432.67704,2152,2881,ɔ
1789469432.678356,2045,2879,ɔ
1789469432.6809149,2067,2878,ɔ
1789469432.682262,2143,2879,ɔ
1789469432.684576,2058,2878,ɔ
1789469432.6866539,2184,2878,ɔ
1789469432.689266,1996,2878,ɔ
1789469432.690612,2209,2878,ɔ
1789469432.692838,2171,2880,ɔ
1789469432.6951628,2032,2879,ɔ
1789469432.696355,2165,2879,ɔ
1789469432.698762,2340,2880,ɔ
1789469432.701317,2072,2881,ɔ
1789469432.7023659,1468,2878,ɔ
1789469432.705036,1870,2879,ɔ
1789469432.707346,2188,2881,ɔ
1789469432.708679,2235,2881,ɔ
1789469432.7132192,2050,2880,ɔ
1789469432.713824,1872,2879,ɔ
1789469432.71601,2021,2879,ɔ
1789469432.7178,2173,2880,ɔ
1789469432.719373,2119,2877,ɔ
1789469432.7214122,2162,2879,ɔ
1789469432.723826,2080,2878,ɔ
1789469432.725916,2104,2878,ɔ
1789469432.727217,2054,2876,ɔ
1789469432.7282822,2190,2879,ɔ
1789469432.7336152,2151,2878,ɔ
1789469432.734462,2150,2879,ɔ
1789469432.7349389,2204,2879,ɔ
1789469432.736831,1607,2878,ɔ
1789469432.7399218,2243,2879,ɔ
1789469432.7420979,2273,2879,ɔ
1789469432.7446358,2209,2880,ɔ
1789469432.7448478,1938,2878,ɔ
1789469432.746463,2038,2878,ɔ
1789469432.7488132,2017,2878,ɔ
1789469432.750957,1948,2879,ɔ
1789469432.752278,1767,2877,ɔ
1789469432.754837,1988,2879,ɔ
1789469432.757424,2114,2879,ɔ
1789469432.758618,2216,2879,ɔ
1789469432.7607522,2199,2880,ɔ
1789469432.763139,1877,2879,ɔ
1789469432.7642581,2101,2879,ɔ
1789469432.7667782,2196,2879,ɔ
1789469432.7684019,1908,2878,ɔ
1789469432.770582,1868,2878,ɔ
1789469432.772662,2091,2880,ɔ
1789469432.774776,2229,2879,ɔ
1789469432.777152,2119,2880,ɔ
1789469432.782182,1968,2879,ɔ
1789469432.7836769,1990,2879,ɔ
1789469432.7838259,2170,2879,ɔ
1789469432.785834,2321,2879,ɔ
1789469432.7874718,1927,2878,ɔ
1789469432.789896,1972,2879,ɔ
1789469432.791337,2189,2880,ɔ
1789469432.793856,2271,2880,ɔ
1789469432.79563,2080,2879,ɔ
1789469432.796928,2097,2877,ɔ
1789469432.79829,2073,2878,ɔ
1789469432.803585,2092,2879,ɔ
1789469432.8043678,1855,2878,ɔ
1789469432.80605,1990,2879,ɔ
1789469432.808049,2166,2879,ɔ
1789469432.809949,2208,2878,ɔ
1789469432.811456,2029,2880,ɔ
1789469432.8136718,1873,2879,ɔ
1789469432.815397,1981,2879,ɔ
1789469432.816704,2022,2879,ɔ
1789469432.819262,1882,2877,ɔ
1789469432.8205361,1870,2877,ɔ
1789469432.8230882,2141,2880,ɔ
1789469432.8243809,2137,2879,ɔ
1789469432.826934,2090,2880,ɔ
1789469432.8282518,2066,2879,ɔ
1789469432.830574,2111,2880,ɔ
1789469432.8326411,2223,2879,ɔ
1789469432.834723,1962,2878,ɔ
1789469432.8370318,1837,2878,ɔ
1789469432.838325,2065,2879,ɔ
1789469432.840628,2315,2878,ɔ
1789469432.842941,2460,2880,ɔ
1789469432.845244,2006,2879,ɔ
1789469432.850083,2153,2881,ɔ
1789469432.8505669,2009,2879,ɔ
1789469432.851109,2076,2880,ɔ
1789469432.852965,1781,2878,ɔ
1789469432.854923,1895,2880,ɔ
1789469432.858005,2116,2879,ɔ
1789469432.8603761,2156,2878,ɔ
1789469432.860611,2118,2879,ɔ
1789469432.862721,1944,2877,ɔ
1789469432.8647969,1962,2878,ɔ
1789469432.867251,1968,2878,ɔ
1789469432.868445,1978,2877,ɔ
1789469432.870999,1921,2880,ɔ
1789469432.8722932,2056,2879,ɔ
1789469432.874845,2179,2879,ɔ
1789469432.877404,2217,2880,ɔ
1789469432.878707,2024,2878,ɔ
1789469432.881261,2006,2877,ɔ
1789469432.8825548,2333,2879,ɔ
1789469432.885103,2048,2878,ɔ
1789469432.886395,1900,2879,ɔ
1789469432.888712,2062,2879,ɔ
1789469432.891258,2091,2878,ɔ
1789469432.892549,2211,2881,ɔ
1789469432.897721,2057,2879,ɔ
1789469432.898189,1996,2879,ɔ
1789469432.898915,2193,2879,ɔ
1789469432.901685,2233,2880,ɔ
1789469432.903247,1923,2878,ɔ
1789469432.9052072,2076,2880,ɔ
1789469432.907456,2124,2879,ɔ
1789469432.909236,2272,2880,ɔ
1789469432.910538,2153,2880,ɔ
1789469432.913099,1836,2879,ɔ
1789469432.915426,2004,2879,ɔ
1789469432.916737,2078,2880,ɔ
1789469432.919287,1900,2878,ɔ
1789469432.920587,2002,2878,ɔ
1789469432.923142,2190,2879,ɔ
1789469432.924437,2177,2879,ɔ
1789469432.92676,2125,2880,ɔ
1789469432.929069,1897,2878,ɔ
1789469432.9303648,1935,2878,ɔ
1789469432.932726,2168,2879,ɔ
1789469432.935251,2066,2880,ɔ
1789469432.936546,1883,2879,ɔ
1789469432.939104,2045,2879,ɔ
1789469432.944413,2186,2879,ɔ
1789469432.9445581,2170,2880,ɔ
1789469432.94541,2124,2879,ɔ
1789469432.946947,2002,2879,ɔ
1789469432.948992,2085,2879,ɔ
1789469432.9508321,2034,2879,ɔ
1789469432.954493,1898,2878,ɔ
1789469432.954614,2011,2879,ɔ
1789469432.956691,2194,2878,ɔ
1789469432.959006,2103,2877,ɔ
1789469432.960304,2106,2880,ɔ
1789469432.962373,2016,2878,ɔ
1789469432.964687,2201,2878,ɔ
1789469432.966992,2312,2879,ɔ
1789469432.969302,1867,2877,ɔ
1789469432.970593,1734,2878,ɔ
1789469432.972905,2147,2880,ɔ
1789469432.975029,2174,2879,ɔ
1789469432.9773371,2189,2879,ɔ
1789469432.978389,1965,2879,ɔ
1789469432.980939,1989,2879,ɔ
1789469432.983019,2212,2880,ɔ
1789469432.984311,1940,2877,ɔ
1789469432.986628,1884,2878,ɔ
1789469432.992,2021,2879,ɔ
1789469432.992835,2203,2880,ɔ
1789469432.993293,2084,2878,ɔ
1789469432.996396,2064,2880,ɔ
1789469432.996854,2135,2879,ɔ
1789469432.998425,2183,2879,ɔ
1789469433.0020459,2109,2880,ɔ
1789469433.004092,1960,2878,ɔ
1789469433.005409,1948,2878,ɔ
1789469433.0065222,2129,2880,ɔ
1789469433.008832,2204,2879,ɔ
1789469433.011043,2183,2880,ɔ
1789469433.012162,1991,2878,ɔ
1789469433.014713,1949,2878,ɔ
1789469433.017014,2053,2879,ɔ
1789469433.018284,1965,2877,ɔ
1789469433.020597,2019,2880,ɔ
1789469433.022911,2148,2880,ɔ
1789469433.025224,2153,2878,ɔ
1789469433.026273,2096,2879,ɔ
1789469433.028587,2060,2879,ɔ
1789469433.031147,2019,2878,ɔ
1789469433.032372,2211,2879,ɔ
1789469433.038186,2065,2879,ɔ
1789469433.038354,1855,2878,ɔ
1789469433.039231,1990,2880,ɔ
1789469433.041454,2137,2878,ɔ
1789469433.0433412,2231,2880,ɔ
1789469433.045263,2093,2879,ɔ
1789469433.074053,1978,2878,ɔ
1789469433.074166,2118,2880,ɔ
1789469433.0742311,2159,2879,ɔ
1789469433.074292,1807,2879,ɔ
1789469433.074352,1924,2879,ɔ
1789469433.074412,2234,2879,ɔ
1789469433.074472,2278,2881,ɔ
1789469433.0745301,2071,2880,ɔ
1789469433.074589,1990,2878,ɔ
1789469433.0746481,2147,2879,ɔ
1789469433.074707,2099,2879,ɔ
1789469433.074767,1953,2878,ɔ
1789469433.074826,1920,2878,ɔ
1789469433.0748842,2092,2880,ɔ
1789469433.074943,2248,2879,ɔ
1789469433.077458,2136,2880,ɔ
1789469433.078804,2052,2879,ɔ
1789469433.080181,2007,2877,ɔ
1789469433.083169,2190,2879,ɔ
1789469433.084578,2014,2881,ɔ
1789469433.08776,1849,2878,ɔ
1789469433.0882502,2022,2880,ɔ
1789469433.0909069,2192,2878,ɔ
1789469433.092253,2222,2880,ɔ
1789469433.09485,2096,2879,ɔ
1789469433.096998,1984,2879,ɔ
1789469433.0984461,2166,2879,ɔ
1789469433.101237,2137,2881,ɔ
1789469433.102589,1983,2878,ɔ
1789469433.105396,2010,2878,ɔ
1789469433.112271,2179,2879,ɔ
1789469433.117957,2186,2877,ɔ
1789469433.119107,2054,2879,ɔ
1789469433.124205,1990,2879,ɔ
1789469433.127014,2033,2877,ɔ
1789469433.127346,2133,2879,ɔ
1789469433.127418,1962,2878,ɔ
1789469433.127481,1948,2878,ɔ
1789469433.127543,2085,2880,ɔ
1789469433.127603,2194,2878,ɔ
1789469433.1276631,2136,2881,ɔ
1789469433.129461,2047,2878,ɔ
1789469433.131223,1990,2878,ɔ
1789469433.137635,2158,2879,ɔ
1789469433.1382,2016,2879,ɔ
1789469433.14067,1880,2878,ɔ
1789469433.143917,2082,2879,ɔ
1789469433.145375,2231,2879,ɔ
1789469433.14605,2222,2880,ɔ
1789469433.150878,2074,2880,ɔ
1789469433.151671,2017,2878,ɔ
1789469433.154169,2104,2880,ɔ
1789469433.1542761,2080,2880,ɔ
1789469433.15438,1890,2878,ɔ
1789469433.154453,2009,2879,ɔ
1789469433.157244,2185,2878,ɔ
1789469433.1585238,2300,2881,ɔ
1789469433.161161,2174,2880,ɔ
1789469433.162387,2055,2878,ɔ
1789469433.165683,2099,2878,ɔ
1789469433.167794,2183,2879,ɔ
1789469433.169216,1962,2877,ɔ
1789469433.170578,1902,2879,ɔ
1789469433.173277,2078,2879,ɔ
1789469433.174647,2194,2877,ɔ
1789469433.17728,2098,2879,ɔ
1789469433.178632,2010,2878,ɔ
1789469433.180547,1980,2879,ɔ
1789469433.182397,2137,2879,ɔ
1789469433.184457,2011,2880,ɔ
1789469433.187177,1858,2877,ɔ
1789469433.188568,2015,2879,ɔ
1789469433.200892,2179,2878,ɔ
1789469433.204551,2236,2880,ɔ
1789469433.210131,2096,2879,ɔ
1789469433.2107708,2004,2879,ɔ
1789469433.211066,2152,2880,ɔ
1789469433.2134988,2208,2880,ɔ
1789469433.2139032,1964,2878,ɔ
1789469433.21413,1981,2878,ɔ
1789469433.2142148,2172,2880,ɔ
1789469433.214284,2217,2877,ɔ
1789469433.214348,2083,2880,ɔ
1789469433.21529,1970,2878,ɔ
1789469433.215363,2074,2878,ɔ
1789469433.2169988,2203,2879,ɔ
1789469433.2184792,1932,2876,ɔ
1789469433.225943,1900,2878,ɔ
1789469433.23055,2149,2880,ɔ
1789469433.238532,2219,2878,ɔ
1789469433.239444,2110,2879,ɔ
1789469433.2422059,1981,2877,ɔ
1789469433.2422988,2036,2880,ɔ
1789469433.2423658,2145,2879,ɔ
1789469433.242433,1994,2879,ɔ
1789469433.242499,1934,2877,ɔ
1789469433.242561,2003,2879,ɔ
1789469433.242623,2174,2878,ɔ
1789469433.242683,2242,2881,ɔ
1789469433.24531,2166,2879,ɔ
1789469433.2468631,2035,2878,ɔ
1789469433.248826,2069,2879,ɔ
1789469433.250405,2046,2879,ɔ
1789469433.253115,1993,2877,ɔ
1789469433.254679,1944,2879,ɔ
1789469433.257308,2189,2879,ɔ
1789469433.2586792,2072,2878,ɔ
1789469433.260179,2208,2880,ɔ
1789469433.262877,2077,2879,ɔ
1789469433.2645278,2096,2879,ɔ
1789469433.267508,2104,2879,ɔ
1789469433.268887,1989,2877,ɔ
1789469433.2702389,1977,2878,ɔ
1789469433.272955,2135,2880,ɔ
1789469433.2743099,2156,2879,ɔ
1789469433.276928,2177,2880,ɔ
1789469433.278264,2056,2879,ɔ
1789469433.2813282,2057,2879,ɔ
1789469433.290821,2148,2879,ɔ
1789469433.293705,2013,2880,ɔ
1789469433.295506,1751,2880,ɔ
1789469433.297156,1920,2878,ɔ
1789469433.3023849,2262,2879,ɔ
1789469433.303095,2673,2881,ɔ
1789469433.3060858,2203,2879,ɔ
1789469433.306438,2125,2879,ɔ
1789469433.306519,2197,2879,ɔ
1789469433.3065841,2245,2880,ɔ
1789469433.306645,2165,2878,ɔ
1789469433.306705,2330,2879,ɔ
1789469433.306765,2363,2879,ɔ
1789469433.308183,2510,2881,ɔ
1789469433.310859,2348,2880,ɔ
1789469433.319044,2195,2880,ɔ
1789469433.321748,2228,2879,ɔ
1789469433.32482,2452,2880,ɔ
1789469433.325689,2175,2881,ɔ
1789469433.3263931,2182,2879,ɔ
1789469433.3270981,2501,2878,ɔ
1789469433.3278122,2480,2881,ɔ
1789469433.328597,2398,2880,ɔ
1789469433.335387,2308,2880,ɔ
1789469433.3358688,2307,2880,ɔ
1789469433.336214,2594,2880,ɔ
1789469433.3391511,2426,2879,ɔ
1789469433.339224,2460,2882,ɔ
1789469433.33928,2534,2880,ɔ
1789469433.340713,2603,2881,ɔ
1789469433.343355,2497,2882,ɔ
1789469433.344707,2440,2879,ɔ
1789469433.347178,2322,2879,ɔ
1789469433.3483908,2470,2879,ɔ
1789469433.3511412,2499,2881,ɔ
1789469433.352587,2106,2877,ɔ
1789469433.355187,2107,2878,ɔ
1789469433.3565812,2307,2880,ɔ
1789469433.358133,2427,2881,ɔ
1789469433.360748,2306,2880,ɔ
1789469433.362145,2127,2879,ɔ
1789469433.365299,2277,2879,ɔ
1789469433.367002,2554,2880,ɔ
1789469433.368694,2277,2879,ɔ
1789469433.37135,2117,2878,ɔ
1789469433.373267,2238,2880,ɔ
1789469433.3746428,2373,2876,ɔ
1789469433.3771079,2346,2879,ɔ
1789469433.3784661,2296,2880,ɔ
1789469433.381758,2220,2879,ɔ
1789469433.383669,2354,2880,ɔ
1789469433.39039,2222,2880,ɔ
1789469433.392899,2144,2879,ɔ
1789469433.395772,2212,2880,ɔ
1789469433.400618,2345,2879,ɔ
1789469433.401474,2452,2880,ɔ
1789469433.404425,2192,2879,ɔ
1789469433.4048069,2165,2879,ɔ
1789469433.408661,2164,2879,ɔ
1789469433.409075,2330,2879,ɔ
1789469433.409516,2247,2879,ɔ
1789469433.412823,2110,2879,ɔ
1789469433.412968,2299,2879,ɔ
1789469433.4130409,2391,2880,ɔ
1789469433.4131892,2241,2880,ɔ
1789469433.413263,2114,2879,ɔ
1789469433.414639,2137,2879,ɔ
1789469433.41776,2244,2879,ɔ
1789469433.424785,2076,2880,ɔ
1789469433.425629,1964,2879,ɔ
1789469433.428402,2201,2878,ɔ
1789469433.43296,2339,2879,ɔ
1789469433.4345138,2186,2880,ɔ
1789469433.4376209,2035,2878,ɔ
1789469433.437927,2040,2879,ɔ
1789469433.442282,2189,2879,ɔ
1789469433.445088,2092,2880,ɔ
1789469433.4461088,1932,2878,ɔ
1789469433.446203,2059,2880,ɔ
1789469433.446273,2192,2879,ɔ
1789469433.446341,2246,2880,ɔ
1789469433.446411,2112,2879,ɔ
1789469433.4464798,2079,2879,ɔ
1789469433.449321,2199,2879,ɔ
1789469433.4508328,2133,2880,ɔ
1789469433.452258,1976,2877,ɔ
1789469433.45505,2009,2879,ɔ
1789469433.45645,2181,2879,ɔ
1789469433.459219,2235,2878,ɔ
1789469433.460591,2169,2879,ɔ
1789469433.4634,2060,2879,ɔ
1789469433.464523,2045,2879,ɔ
1789469433.466738,2108,2879,ɔ
1789469433.4689438,2041,2878,ɔ
1789469433.470382,2045,2879,ɔ
1789469433.473472,2146,2879,ɔ
1789469433.475049,2234,2878,ɔ
1789469433.476539,2209,2880,ɔ
1789469433.47935,2113,2878,ɔ
1789469433.481397,2046,2879,ɔ
1789469433.482898,2159,2879,ɔ
1789469433.4887722,2146,2879,ɔ
1789469433.488859,2004,2877,ɔ
1789469433.488925,2038,2879,ɔ
1789469433.4903848,2168,2878,ɔ
1789469433.5214138,2174,2878,ɔ
1789469433.5215502,2049,2880,ɔ
1789469433.5216708,1988,2879,ɔ
1789469433.521735,2081,2879,ɔ
1789469433.52179,2136,2879,ɔ
1789469433.5218618,1931,2877,ɔ
1789469433.522335,1912,2878,ɔ
1789469433.522393,2068,2879,ɔ
1789469433.522444,2178,2879,ɔ
1789469433.5224938,2115,2880,ɔ
1789469433.5230699,2047,2879,ɔ
1789469433.523136,2042,2879,ɔ
1789469433.523187,2128,2879,ɔ
1789469433.5232372,1973,2878,ɔ
1789469433.523285,1894,2878,ɔ
1789469433.5233338,2023,2879,ɔ
1789469433.524641,2158,2878,ɔ
1789469433.526047,2117,2880,ɔ
1789469433.5286348,2027,2879,ɔ
1789469433.533653,1995,2878,ɔ
1789469433.533744,2176,2879,ɔ
1789469433.535082,2126,2879,ɔ
1789469433.5383549,1940,2878,ɔ
1789469433.53842,2040,2879,ɔ
1789469433.541379,2199,2879,ɔ
1789469433.5427258,2202,2878,ɔ
1789469433.545068,2106,2879,ɔ
1789469433.546144,2021,2877,ɔ
1789469433.548662,2093,2879,ɔ
1789469433.551005,2152,2880,ɔ
1789469433.552317,1938,2878,ɔ
1789469433.554666,1942,2878,ɔ
1789469433.5560372,2132,2880,ɔ
1789469433.5583758,2185,2879,ɔ
1789469433.560708,2129,2879,ɔ
1789469433.568522,2019,2880,ɔ
1789469433.568701,2026,2877,ɔ
1789469433.5701382,2138,2879,ɔ
1789469433.571475,1991,2878,ɔ
1789469433.573335,1929,2879,ɔ
1789469433.5735471,2051,2879,ɔ
1789469433.575999,2171,2878,ɔ
1789469433.5767639,2155,2881,ɔ
1789469433.578336,2043,2878,ɔ
1789469433.581651,2042,2880,ɔ
1789469433.5852091,2137,2879,ɔ
1789469433.585343,2083,2879,ɔ
1789469433.588566,1919,2878,ɔ
1789469433.588834,1950,2880,ɔ
1789469433.59098,2138,2879,ɔ
1789469433.592063,2159,2879,ɔ
1789469433.594694,2070,2879,ɔ
1789469433.600617,2036,2879,ɔ
1789469433.60077,2107,2879,ɔ
1789469433.601428,2119,2880,ɔ
1789469433.604704,1955,2879,ɔ
1789469433.604843,1980,2879,ɔ
1789469433.607838,2130,2880,ɔ
1789469433.609853,2189,2878,ɔ
1789469433.6129432,2091,2880,ɔ
1789469433.6130922,2023,2878,ɔ
1789469433.616687,2023,2879,ɔ
1789469433.616842,2166,2879,ɔ
1789469433.619329,1992,2877,ɔ
1789469433.620662,1897,2879,ɔ
1789469433.6220999,2066,2878,ɔ
1789469433.624504,2186,2879,ɔ
1789469433.626879,2180,2881,ɔ
1789469433.628045,2035,2878,ɔ
1789469433.6301498,1955,2878,ɔ
1789469433.6328478,2091,2879,ɔ
1789469433.634986,2070,2879,ɔ
1789469433.636062,1913,2878,ɔ
1789469433.638398,1977,2878,ɔ
1789469433.6407628,2157,2880,ɔ
1789469433.642082,2199,2877,ɔ
1789469433.6441689,2089,2879,ɔ
1789469433.646513,1990,2878,ɔ
1789469433.648853,2065,2879,ɔ
1789469433.6502998,2188,2879,ɔ
1789469433.6526852,2004,2876,ɔ
1789469433.654068,2008,2879,ɔ
1789469433.656651,2170,2878,ɔ
1789469433.6580632,2256,2878,ɔ
1789469433.6602519,2159,2880,ɔ
1789469433.6627789,2084,2878,ɔ
1789469433.664505,2077,2880,ɔ
1789469433.6719968,2177,2878,ɔ
1789469433.672725,2009,2879,ɔ
1789469433.675093,1938,2878,ɔ
1789469433.675461,2043,2879,ɔ
1789469433.675849,2170,2879,ɔ
1789469433.6788008,2125,2880,ɔ
1789469433.6795268,2045,2879,ɔ
1789469433.681165,2031,2878,ɔ
1789469433.684351,2153,2878,ɔ
1789469433.687707,2083,2879,ɔ
1789469433.6880472,1927,2878,ɔ
1789469433.688373,2036,2879,ɔ
1789469433.6918871,2176,2879,ɔ
1789469433.692023,2201,2877,ɔ
1789469433.69448,2099,2880,ɔ
1789469433.697301,2021,2878,ɔ
1789469433.706295,2064,2879,ɔ
1789469433.709298,2140,2879,ɔ
1789469433.709697,1960,2878,ɔ
1789469433.7131782,1948,2879,ɔ
1789469433.714164,2089,2879,ɔ
1789469433.714985,2161,2879,ɔ
1789469433.715738,2125,2880,ɔ
1789469433.7160802,2024,2878,ɔ
1789469433.718029,2034,2879,ɔ
1789469433.720402,2137,2879,ɔ
1789469433.720824,1981,2877,ɔ
1789469433.7242932,1907,2879,ɔ
1789469433.724767,2015,2879,ɔ
1789469433.725064,2125,2878,ɔ
1789469433.7285068,2151,2880,ɔ
1789469433.728616,2059,2879,ɔ
1789469433.730311,2025,2879,ɔ
1789469433.7329102,2184,2879,ɔ
1789469433.734313,2112,2880,ɔ
1789469433.736471,1961,2877,ɔ
1789469433.73909,2033,2880,ɔ
1789469433.740416,2164,2878,ɔ
1789469433.742595,2184,2879,ɔ
1789469433.744965,2093,2880,ɔ
1789469433.746122,2013,2879,ɔ
1789469433.748765,2075,2879,ɔ
1789469433.750043,2143,2880,ɔ
1789469433.752691,1953,2877,ɔ
1789469433.754082,1921,2878,ɔ
1789469433.756468,2114,2879,ɔ
1789469433.7586849,2188,2878,ɔ
1789469433.76004,2117,2879,ɔ
1789469433.7621949,2046,2880,ɔ
1789469433.7646,2076,2878,ɔ
1789469433.767259,2173,2880,ɔ
1789469433.7686012,2020,2879,ɔ
1789469433.770016,1961,2878,ɔ
1789469433.772171,2077,2879,ɔ
1789469433.784717,2213,2880,ɔ
1789469433.785435,2203,2880,ɔ
1789469433.787989,2084,2878,ɔ
1789469433.788859,2026,2878,ɔ
1789469433.7895281,2135,2878,ɔ
1789469433.790943,2074,2879,ɔ
1789469433.791827,1905,2878,ɔ
1789469433.79279,1981,2878,ɔ
1789469433.793513,2148,2878,ɔ
1789469433.79598,2198,2878,ɔ
1789469433.799507,2104,2879,ɔ
1789469433.799786,2026,2878,ɔ
1789469433.8003871,2096,2879,ɔ
1789469433.800695,2146,2878,ɔ
1789469433.804227,1963,2877,ɔ
1789469433.804414,1965,2880,ɔ
1789469433.806895,2105,2879,ɔ
1789469433.8082418,2218,2878,ɔ
1789469433.8167481,2142,2880,ɔ
1789469433.817676,2089,2879,ɔ
1789469433.8184419,2054,2878,ɔ
1789469433.820523,2179,2878,ɔ
1789469433.82098,2054,2879,ɔ
1789469433.824213,1962,2878,ɔ
1789469433.825772,2062,2877,ɔ
1789469433.8265228,2158,2878,ɔ
1789469433.827181,2144,2879,ɔ
1789469433.830538,2056,2879,ɔ
1789469433.8308291,2034,2878,ɔ
1789469433.8341608,2133,2878,ɔ
1789469433.834368,2106,2880,ɔ
1789469433.8369138,1989,2877,ɔ
1789469433.838072,2039,2878,ɔ
1789469433.840263,2217,2879,ɔ
1789469433.842892,2204,2877,ɔ
1789469433.8442361,2138,2879,ɔ
1789469433.846355,2020,2879,ɔ
1789469433.848476,2096,2878,ɔ
1789469433.850583,2131,2879,ɔ
1789469433.8526971,1977,2877,ɔ
1789469433.854164,1968,2878,ɔ
1789469433.856508,2109,2879,ɔ
1789469433.858857,2160,2879,ɔ
1789469433.8602822,2119,2878,ɔ
1789469433.8626418,2018,2878,ɔ
1789469433.864992,2038,2877,ɔ
1789469433.8663108,2140,2879,ɔ
1789469433.868405,2005,2879,ɔ
1789469433.870752,1902,2878,ɔ
1789469433.872075,2056,2879,ɔ
1789469433.874181,2199,2878,ɔ
1789469433.876296,2215,2880,ɔ
1789469433.878722,2093,2880,ɔ
1789469433.880088,2063,2879,ɔ
1789469433.882619,2173,2879,ɔ
1789469433.889477,2145,2879,ɔ
1789469433.8908422,1950,2878,ɔ
1789469433.893568,2001,2878,ɔ
1789469433.895809,2179,2878,ɔ
1789469433.896889,2210,2879,ɔ
1789469433.8975072,2109,2880,ɔ
1789469433.8983061,2022,2878,ɔ
1789469433.8993971,2093,2879,ɔ
1789469433.9026592,2126,2879,ɔ
1789469433.902935,1954,2877,ɔ
1789469433.906235,1970,2879,ɔ
1789469433.906796,2122,2880,ɔ
1789469433.9102788,2172,2878,ɔ
1789469433.9104068,2124,2880,ɔ
1789469433.912878,2022,2879,ɔ
1789469433.9143329,2053,2879,ɔ
1789469433.9217181,2174,2879,ɔ
1789469433.923018,2046,2880,ɔ
1789469433.92558,1957,2878,ɔ
1789469433.936492,2050,2878,ɔ
1789469433.9375181,2214,2880,ɔ
1789469433.940834,2184,2880,ɔ
1789469433.940907,2095,2880,ɔ
1789469433.940964,1986,2878,ɔ
1789469433.9410172,2095,2879,ɔ
1789469433.941067,2090,2879,ɔ
1789469433.941115,1944,2878,ɔ
1789469433.941163,2000,2878,ɔ
1789469433.941279,2131,2879,ɔ
1789469433.942636,2153,2878,ɔ
1789469433.9440482,2109,2880,ɔ
1789469433.94672,2027,2879,ɔ
1789469433.949103,2080,2879,ɔ
1789469433.9504352,2162,2880,ɔ
1789469433.952799,1997,2879,ɔ
1789469433.955029,1918,2879,ɔ
1789469433.956427,2106,2879,ɔ
1789469433.959059,2212,2879,ɔ
1789469433.9604192,2077,2881,ɔ
1789469433.9627788,1947,2878,ɔ
1789469433.9648829,2061,2878,ɔ
1789469433.966202,2145,2879,ɔ
1789469433.9687839,2067,2880,ɔ
1789469433.97011,1953,2877,ɔ
1789469433.972707,2006,2880,ɔ
1789469433.974068,2223,2879,ɔ
1789469433.976474,2158,2880,ɔ
1789469433.9790761,2087,2879,ɔ
1789469433.980397,2051,2879,ɔ
1789469433.9825249,2082,2878,ɔ
1789469433.984861,2058,2880,ɔ
1789469433.991987,1892,2878,ɔ
1789469433.993501,1971,2879,ɔ
1789469433.996808,2134,2879,ɔ
1789469433.99998,2160,2878,ɔ
1789469434.000721,2087,2880,ɔ
1789469434.001318,2074,2879,ɔ
1789469434.002113,2172,2879,ɔ
1789469434.0028439,2104,2879,ɔ
1789469434.003492,2004,2878,ɔ
1789469434.006096,2030,2879,ɔ
1789469434.009397,2128,2878,ɔ
1789469434.0096362,2285,2880,ɔ
1789469434.013013,2146,2879,ɔ
1789469434.013071,1954,2879,ɔ
1789469434.014394,2093,2879,ɔ
1789469434.016507,2140,2878,ɔ
1789469434.0241458,2002,2879,ɔ
1789469434.025475,1972,2879,ɔ
1789469434.02625,2034,2878,ɔ
1789469434.026461,2122,2879,ɔ
1789469434.0289202,2146,2879,ɔ
1789469434.029245,1974,2880,ɔ
1789469434.0322618,2166,2878,ɔ
1789469434.0330071,2268,2880,ɔ
1789469434.034653,1924,2879,ɔ
1789469434.0377102,1852,2877,ɔ
1789469434.040828,2018,2878,ɔ
1789469434.0412831,2215,2878,ɔ
1789469434.0444958,2247,2880,ɔ
1789469434.044637,2148,2880,ɔ
1789469434.046043,2153,2880,ɔ
1789469434.048146,2243,2879,ɔ
1789469434.0504918,2060,2880,ɔ
1789469434.053134,1954,2878,ɔ
1789469434.054504,1939,2880,ɔ
1789469434.056888,2058,2879,ɔ
1789469434.0580301,2139,2880,ɔ
1789469434.0602932,2110,2879,ɔ
1789469434.062377,2058,2879,ɔ
1789469434.064713,1826,2879,ɔ
1789469434.066814,2212,2880,ɔ
1789469434.068917,2104,2879,ɔ
1789469434.070047,1923,2879,ɔ
1789469434.072147,1937,2878,ɔ
1789469434.074479,2076,2879,ɔ
1789469434.076824,2142,2878,ɔ
1789469434.079166,1955,2880,ɔ
1789469434.08048,1918,2879,ɔ
1789469434.0828218,2015,2878,ɔ
1789469434.084136,2099,2879,ɔ
1789469434.086729,2060,2877,ɔ
1789469434.089183,2149,2878,ɔ
1789469434.096375,2203,2879,ɔ
1789469434.096582,2185,2878,ɔ
1789469434.097863,1955,2877,ɔ
1789469434.098016,1883,2878,ɔ
1789469434.098731,1964,2878,ɔ
1789469434.101443,1872,2878,ɔ
1789469434.103824,1913,2878,ɔ
1789469434.105417,2110,2879,ɔ
1789469434.109605,2287,2879,ɔ
1789469434.109945,2026,2879,ɔ
1789469434.113369,2115,2880,ɔ
1789469434.113965,2167,2879,ɔ
1789469434.1142468,2042,2880,ɔ
1789469434.117727,2033,2879,ɔ
1789469434.1191308,1959,2876,ɔ
1789469434.120485,1997,2879,ɔ
1789469434.1225998,2179,2879,ɔ
1789469434.129916,2116,2879,ɔ
1789469434.1306398,2040,2878,ɔ
1789469434.131341,1943,2877,ɔ
1789469434.133902,2003,2879,ɔ
1789469434.13603,2234,2880,ɔ
1789469434.137676,2004,2878,ɔ
1789469434.13846,1696,2878,ɔ
1789469434.139225,1721,2879,ɔ
1789469434.142902,2218,2879,ɔ
1789469434.1459808,2310,2881,ɔ
1789469434.1464791,2106,2879,ɔ
1789469434.1468349,2056,2878,ɔ
1789469434.1496902,2069,2879,ɔ
1789469434.151029,2143,2879,ɔ
1789469434.1521149,1888,2878,ɔ
1789469434.154505,1765,2879,ɔ
1789469434.1570969,2030,2880,ɔ
1789469434.1584241,2151,2878,ɔ
1789469434.16077,1965,2877,ɔ
1789469434.162872,1855,2879,ɔ
1789469434.164194,2252,2879,ɔ
1789469434.166535,2355,2879,ɔ
1789469434.1686242,2224,2880,ɔ
1789469434.1712189,2100,2878,ɔ
1789469434.172538,2046,2880,ɔ
1789469434.174637,2190,2879,ɔ
1789469434.176754,2228,2880,ɔ
1789469434.1780689,2036,2880,ɔ
1789469434.180421,1974,2878,ɔ
1789469434.18275,1966,2878,ɔ
1789469434.1850932,1999,2879,ɔ
1789469434.186412,1964,2878,ɔ
1789469434.188755,1950,2879,ɔ
1789469434.190072,1865,2879,ɔ
1789469434.192184,1923,2878,ɔ
1789469434.2006989,2112,2879,ɔ
1789469434.2015412,1938,2878,ɔ
1789469434.2028742,2089,2879,ɔ
1789469434.205544,2144,2879,ɔ
1789469434.208121,1666,2877,ɔ
1789469434.2087958,1820,2879,ɔ
1789469434.21003,2132,2879,ɔ
1789469434.2107651,2265,2879,ɔ
1789469434.2120352,2046,2878,ɔ
1789469434.212715,2001,2880,ɔ
1789469434.21488,2052,2879,ɔ
1789469434.218204,2019,2878,ɔ
1789469434.21871,2014,2880,ɔ
1789469434.221777,1864,2877,ɔ
1789469434.221928,1699,2879,ɔ
1789469434.224267,1729,2879,ɔ
1789469434.226758,2162,2877,ɔ
1789469434.2349792,2169,2880,ɔ
1789469434.237144,1801,2878,ɔ
1789469434.2376,1778,2878,ɔ
1789469434.239969,1950,2880,ɔ
1789469434.240754,1823,2877,ɔ
1789469434.2414908,1968,2878,ɔ
1789469434.2421708,1938,2878,ɔ
1789469434.242356,1837,2878,ɔ
1789469434.249616,1576,2877,ɔ
1789469434.249877,1805,2878,ɔ
1789469434.250274,2119,2879,ɔ
1789469434.2505112,1970,2879,ɔ
1789469434.253382,1700,2878,ɔ
1789469434.25475,1543,2878,ɔ
1789469434.2560809,2020,2878,ɔ
1789469434.2584808,2206,2879,ɔ
1789469434.260813,2171,2880,ɔ
1789469434.262149,1860,2880,ɔ
1789469434.264252,1691,2878,ɔ
1789469434.266604,2017,2879,ɔ
1789469434.26793,1889,2877,ɔ
1789469434.270019,1675,2879,ɔ
1789469434.272363,1729,2878,ɔ
1789469434.274703,2111,2879,ɔ
1789469434.276808,2088,2878,ɔ
1789469434.2782762,1874,2880,ɔ
1789469434.2804759,1790,2878,ɔ
1789469434.282572,2032,2879,ɔ
1789469434.2840042,1971,2880,ɔ
1789469434.2861812,1722,2877,ɔ
1789469434.2885299,1819,2878,ɔ
1789469434.2908642,1961,2879,ɔ
1789469434.2919528,2000,2879,ɔ
1789469434.294061,1882,2876,ɔ
1789469434.296163,1936,2878,ɔ
1789469434.2985249,2055,2879,ɔ
1789469434.305025,2009,2879,ɔ
1789469434.305749,1841,2878,ɔ
1789469434.3076942,1810,2879,ɔ
1789469434.3097758,1954,2878,ɔ
1789469434.310119,2228,2878,ɔ
1789469434.312532,2175,2880,ɔ
1789469434.31367,1854,2879,ɔ
1789469434.315839,1660,2878,ɔ
1789469434.3185349,2003,2878,ɔ
1789469434.32186,1931,2877,ɔ
1789469434.3225632,1864,2877,ɔ
1789469434.322939,1802,2877,ɔ
1789469434.3261812,1977,2879,ɔ
1789469434.326338,2132,2881,ɔ
1789469434.328958,1943,2879,ɔ
1789469434.3301702,1776,2879,ɔ
1789469434.338849,2029,2879,ɔ
1789469434.339749,2321,2880,ɔ
1789469434.340459,1766,2877,ɔ
1789469434.3411388,1739,2879,ɔ
1789469434.34132,2229,2879,ɔ
1789469434.343288,2234,2879,ɔ
1789469434.345796,2072,2879,ɔ
1789469434.347008,2068,2879,ɔ
1789469434.349083,2033,2879,ɔ
1789469434.351653,2168,2879,ɔ
1789469434.35502,1876,2878,ɔ
1789469434.355353,1874,2878,ɔ
1789469434.358409,1977,2878,ɔ
1789469434.3585548,2020,2879,ɔ
1789469434.359929,2026,2877,ɔ
1789469434.362059,2097,2880,ɔ
1789469434.364416,2233,2879,ɔ
1789469434.36655,2269,2880,ɔ
1789469434.368652,1994,2879,ɔ
1789469434.3710039,1979,2879,ɔ
1789469434.372097,1876,2880,ɔ
1789469434.374206,2311,2880,ɔ
1789469434.376555,2374,2880,ɔ
1789469434.377923,1944,2879,ɔ
1789469434.3802528,1993,2879,ɔ
1789469434.3828301,2107,2879,ɔ
1789469434.3839328,2194,2879,ɔ
1789469434.386027,1874,2878,ɔ
1789469434.3886101,2216,2878,ɔ
1789469434.3899279,2274,2879,ɔ
1789469434.392612,2463,2882,ɔ
1789469434.393922,2021,2879,ɔ
1789469434.3962839,2033,2878,ɔ
1789469434.398889,2183,2879,ɔ
1789469434.399969,2061,2880,ɔ
1789469434.402315,2103,2880,ɔ
1789469434.409456,1701,2879,ɔ
1789469434.410711,2166,2879,ɔ
1789469434.41206,2312,2879,ɔ
1789469434.416109,2365,2881,ɔ
1789469434.4168088,1989,2879,ɔ
1789469434.417581,1801,2878,ɔ
1789469434.418271,1773,2878,ɔ
1789469434.419017,2242,2881,ɔ
1789469434.420693,1873,2878,ɔ
1789469434.426728,2080,2880,ɔ
1789469434.427129,2340,2881,ɔ
1789469434.427319,2174,2879,ɔ
1789469434.4306839,1914,2881,ɔ
1789469434.4308538,1917,2878,ɔ
1789469434.431958,2235,2880,ɔ
1789469434.434307,2142,2880,ɔ
1789469434.441417,1725,2878,ɔ
1789469434.443197,1759,2879,ɔ
1789469434.4439669,1942,2878,ɔ
1789469434.4457338,2012,2877,ɔ
1789469434.4459898,1936,2879,ɔ
1789469434.44623,1940,2879,ɔ
1789469434.449257,2020,2878,ɔ
1789469434.452079,2233,2880,ɔ
1789469434.4528399,1961,2877,ɔ
1789469434.4582772,1976,2878,ɔ
1789469434.45858,1874,2879,ɔ
1789469434.459133,1974,2879,ɔ
1789469434.46226,2057,2878,ɔ
1789469434.462316,2232,2879,ɔ
1789469434.464928,2183,2880,ɔ
1789469434.46602,2361,2880,ɔ
1789469434.468401,1996,2879,ɔ
1789469434.471044,1862,2879,ɔ
1789469434.4723608,2035,2879,ɔ
1789469434.4749398,2024,2878,ɔ
1789469434.476256,2437,2881,ɔ
1789469434.478774,1867,2880,ɔ
1789469434.480088,1880,2879,ɔ
1789469434.482659,2100,2880,ɔ
1789469434.4839702,2085,2880,ɔ
1789469434.486542,1842,2878,ɔ
1789469434.487919,2048,2878,ɔ
1789469434.490506,2069,2880,ɔ
1789469434.492609,2080,2878,ɔ
1789469434.493938,2025,2880,ɔ
1789469434.49651,2018,2879,ɔ
1789469434.498891,2070,2878,ɔ
1789469434.4999712,1958,2878,ɔ
1789469434.502548,1864,2879,ɔ
1789469434.5047271,1965,2878,ɔ
1789469434.506042,2190,2880,ɔ
1789469434.514508,2171,2879,ɔ
1789469434.51579,2115,2880,ɔ
1789469434.5159092,1950,2878,ɔ
1789469434.516682,1811,2879,ɔ
1789469434.5185559,2046,2879,ɔ
1789469434.518767,2012,2880,ɔ
1789469434.5211608,1768,2878,ɔ
1789469434.5224571,2047,2878,ɔ
1789469434.5242581,2230,2879,ɔ
1789469434.526168,2259,2881,ɔ
1789469434.529247,2207,2879,ɔ
1789469434.5320928,2084,2878,ɔ
1789469434.532187,2153,2879,ɔ
1789469434.5347588,2013,2878,ɔ
1789469434.536885,1863,2879,ɔ
1789469434.542253,1962,2878,ɔ
1789469434.543006,2103,2878,ɔ
1789469434.543586,2232,2878,ɔ
1789469434.546398,2136,2880,ɔ
1789469434.546591,1926,2877,ɔ
1789469434.548605,1909,2878,ɔ
1789469434.550051,2114,2879,ɔ
1789469434.5537238,1911,2877,ɔ
1789469434.556617,1908,2879,ɔ
1789469434.556896,1988,2880,ɔ
1789469434.559664,2206,2878,ɔ
1789469434.560777,2095,2881,ɔ
1789469434.56209,2095,2879,ɔ
1789469434.56444,2006,2879,ɔ
1789469434.567038,2192,2879,ɔ
1789469434.568346,2011,2879,ɔ
1789469434.570925,1938,2878,ɔ
1789469434.5719948,1997,2878,ɔ
1789469434.574559,2140,2878,ɔ
1789469434.576884,2108,2878,ɔ
1789469434.57819,2016,2879,ɔ
1789469434.580516,2026,2878,ɔ
1789469434.582925,2053,2879,ɔ
1789469434.584231,2172,2879,ɔ
1789469434.5867991,1905,2878,ɔ
1789469434.588118,1877,2878,ɔ
1789469434.590355,2115,2879,ɔ
1789469434.592675,2196,2879,ɔ
1789469434.595009,2090,2879,ɔ
1789469434.596315,2005,2879,ɔ
1789469434.598783,2026,2880,ɔ
1789469434.6037629,2263,2880,ɔ
1789469434.6043851,2062,2877,ɔ
1789469434.6050072,1831,2878,ɔ
1789469434.607413,2079,2879,ɔ
1789469434.609925,2162,2878,ɔ
1789469434.610079,2192,2880,ɔ
1789469434.617323,2025,2879,ɔ
1789469434.617492,1967,2879,ɔ
1789469434.6176581,2103,2879,ɔ
1789469434.620357,2013,2880,ɔ
1789469434.6204932,1998,2879,ɔ
1789469434.621887,2023,2880,ɔ
1789469434.6242182,2155,2879,ɔ
1789469434.630691,2110,2878,ɔ
1789469434.631284,2049,2880,ɔ
1789469434.631426,1949,2878,ɔ
1789469434.6336389,2260,2879,ɔ
1789469434.636099,2202,2880,ɔ
1789469434.636663,1893,2877,ɔ
1789469434.6383832,2000,2879,ɔ
1789469434.642891,2195,2879,ɔ
1789469434.643702,2224,2879,ɔ
1789469434.646548,1990,2877,ɔ
1789469434.6465988,1836,2877,ɔ
1789469434.6490061,2005,2878,ɔ
1789469434.6503198,2067,2878,ɔ
1789469434.652668,2019,2880,ɔ
1789469434.653887,1856,2878,ɔ
1789469434.6562428,1967,2879,ɔ
1789469434.658804,2288,2880,ɔ
1789469434.660104,2008,2880,ɔ
1789469434.662661,2260,2881,ɔ
1789469434.664744,1987,2879,ɔ
1789469434.667058,2213,2879,ɔ
1789469434.6683578,2165,2879,ɔ
1789469434.6704278,1811,2878,ɔ
1789469434.672992,1962,2879,ɔ
1789469434.674059,2181,2879,ɔ
1789469434.676456,2253,2878,ɔ
1789469434.679013,2104,2880,ɔ
1789469434.6803148,2023,2879,ɔ
1789469434.682982,1974,2879,ɔ
1789469434.687927,2066,2879,ɔ
1789469434.688565,1980,2877,ɔ
1789469434.6891031,1980,2879,ɔ
1789469434.69106,2108,2880,ɔ
1789469434.6928692,2206,2879,ɔ
1789469434.694528,2115,2880,ɔ
1789469434.697259,1990,2879,ɔ
1789469434.700046,1984,2879,ɔ
1789469434.700174,2177,2879,ɔ
1789469434.702147,1914,2877,ɔ
1789469434.704482,1786,2879,ɔ
1789469434.7111318,1970,2880,ɔ
1789469434.711286,2184,2878,ɔ
1789469434.712224,2226,2881,ɔ
1789469434.712717,2115,2879,ɔ
1789469434.714209,2039,2879,ɔ
1789469434.716367,2103,2879,ɔ
1789469434.718168,2133,2880,ɔ
1789469434.72015,1897,2877,ɔ
1789469434.722999,2053,2880,ɔ
1789469434.725344,2169,2879,ɔ
1789469434.7266681,2243,2880,ɔ
1789469434.727972,2005,2880,ɔ
1789469434.7305338,2001,2879,ɔ
1789469434.731838,2037,2878,ɔ
1789469434.7341518,2157,2879,ɔ
1789469434.736659,1893,2877,ɔ
1789469434.7379572,1881,2880,ɔ
1789469434.740513,2168,2880,ɔ
1789469434.7418182,2342,2880,ɔ
1789469434.7443762,2157,2880,ɔ
1789469434.74578,2053,2879,ɔ
1789469434.7483442,2148,2880,ɔ
1789469434.750817,2213,2879,ɔ
1789469434.752117,2044,2881,ɔ
1789469434.754427,1935,2880,ɔ
1789469434.756751,2064,2880,ɔ
1789469434.758053,2218,2879,ɔ
1789469434.760669,2204,2881,ɔ
1789469434.765234,2043,2879,ɔ
1789469434.766224,2004,2878,ɔ
1789469434.7667148,2185,2879,ɔ
1789469434.768565,2092,2879,ɔ
1789469434.770369,1855,2878,ɔ
1789469434.772949,2021,2878,ɔ
1789469434.7745621,2206,2879,ɔ
1789469434.777312,2203,2878,ɔ
1789469434.779679,2084,2880,ɔ
1789469434.779882,1997,2878,ɔ
1789469434.782197,2082,2879,ɔ
1789469434.7879949,2123,2880,ɔ
1789469434.788831,1904,2878,ɔ
1789469434.789369,1980,2879,ɔ
1789469434.791231,2161,2880,ɔ
1789469434.793056,2238,2878,ɔ
1789469434.79426,2088,2879,ɔ
1789469434.797239,2002,2879,ɔ
1789469434.799988,2047,2880,ɔ
1789469434.800228,2208,2879,ɔ
1789469434.8026922,1959,2877,ɔ
1789469434.803998,1893,2878,ɔ
1789469434.8063161,2017,2879,ɔ
1789469434.808861,2195,2878,ɔ
1789469434.8101618,2172,2880,ɔ
1789469434.812474,2076,2879,ɔ
1789469434.8148758,2024,2878,ɔ
1789469434.816179,2162,2879,ɔ
1789469434.818502,2101,2879,ɔ
1789469434.819801,1995,2879,ɔ
1789469434.82211,1995,2879,ɔ
1789469434.82444,2174,2878,ɔ
1789469434.825809,2289,2880,ɔ
1789469434.8281322,2119,2880,ɔ
1789469434.830688,2041,2878,ɔ
1789469434.83181,2095,2879,ɔ
1789469434.834132,2130,2880,ɔ
1789469434.83669,1903,2878,ɔ
1789469434.837784,1938,2878,ɔ
1789469434.842243,2143,2879,ɔ
1789469434.842727,2237,2879,ɔ
1789469434.8448079,2163,2880,ɔ
1789469434.846346,1985,2879,ɔ
1789469434.850063,1989,2879,ɔ
1789469434.8502688,2174,2878,ɔ
1789469434.852789,1943,2878,ɔ
1789469434.854913,1905,2879,ɔ
1789469434.855982,2129,2880,ɔ
1789469434.85854,2223,2879,ɔ
1789469434.862879,2160,2880,ɔ
1789469434.863797,2052,2878,ɔ
1789469434.865821,2012,2879,ɔ
1789469434.8661351,2248,2880,ɔ
1789469434.869018,2103,2879,ɔ
1789469434.871417,1870,2878,ɔ
1789469434.8739011,1925,2879,ɔ
1789469434.8740659,2212,2878,ɔ
1789469434.8763049,2284,2881,ɔ
1789469434.878453,2174,2880,ɔ
1789469434.879796,2017,2878,ɔ
1789469434.882111,2131,2879,ɔ
1789469434.8844311,2166,2880,ɔ
1789469434.885793,1933,2877,ɔ
1789469434.887868,1908,2878,ɔ
1789469434.890419,2082,2879,ɔ
1789469434.8917792,2198,2878,ɔ
1789469434.894321,2238,2879,ɔ
1789469434.896874,2159,2880,ɔ
1789469434.898172,2109,2878,ɔ
1789469434.900723,2238,2880,ɔ
1789469434.9018528,2104,2879,ɔ
1789469434.904257,2021,2878,ɔ
1789469434.906813,2150,2880,ɔ
1789469434.908038,2247,2878,ɔ
1789469434.9132218,2221,2881,ɔ
1789469434.9141572,2122,2879,ɔ
1789469434.915825,1918,2878,ɔ
1789469434.915978,2061,2879,ɔ
1789469434.919848,2050,2879,ɔ
1789469434.91998,2084,2879,ɔ
1789469434.923873,2145,2879,ɔ
1789469434.924105,2363,2878,ɔ
1789469434.926255,2430,2880,ɔ
1789469434.9289548,2267,2879,ɔ
1789469434.934806,2148,2880,ɔ
1789469434.935251,2180,2879,ɔ
1789469434.935704,2279,2879,ɔ
1789469434.936971,2086,2878,ɔ
1789469434.9390988,2117,2878,ɔ
1789469434.94084,2251,2879,ɔ
1789469434.942602,2257,2879,ɔ
1789469434.945259,2241,2879,ɔ
1789469434.947052,2262,2878,ɔ
1789469434.948354,2189,2878,ɔ
1789469434.950912,2389,2879,ɔ
1789469434.952221,2259,2879,ɔ
1789469434.954377,2158,2879,ɔ
1789469434.956851,2294,2879,ɔ
1789469434.957977,2369,2879,ɔ
1789469434.9602938,2324,2880,ɔ
1789469434.962612,2211,2879,ɔ
1789469434.963907,2145,2880,ɔ
1789469434.966291,2349,2880,ɔ
1789469434.96844,2271,2880,ɔ
1789469434.970745,2215,2878,ɔ
1789469434.972041,2298,2879,ɔ
1789469434.974324,2471,2882,ɔ
1789469434.9768808,2409,2880,ɔ
1789469434.9779332,2286,2879,ɔ
1789469434.980416,2189,2879,ɔ
1789469434.98494,2314,2880,ɔ
1789469434.9855192,2349,2879,ɔ
1789469434.9878101,2088,2879,ɔ
1789469434.9879081,2133,2878,ɔ
1789469434.991371,2298,2879,ɔ
1789469434.993472,2384,2880,ɔ
1789469434.9960399,2322,2879,ɔ
1789469434.996153,2267,2879,ɔ
1789469434.9983869,2213,2878,ɔ
1789469435.0008461,2259,2879,ɔ
1789469435.002094,2219,2879,ɔ
1789469435.006001,2144,2878,ɔ
1789469435.00647,2128,2879,ɔ
1789469435.008738,2303,2877,ɔ
1789469435.01045,2373,2880,ɔ
1789469435.012084,2226,2879,ɔ
1789469435.016743,2136,2876,ɔ
1789469435.016938,2335,2879,ɔ
1789469435.018687,2201,2878,ɔ
1789469435.019994,2057,2877,ɔ
1789469435.022311,2131,2878,ɔ
1789469435.0244648,2269,2880,ɔ
1789469435.025783,2339,2881,ɔ
1789469435.02786,2218,2879,ɔ
1789469435.029933,2144,2878,ɔ
1789469435.0322602,2199,2879,ɔ
1789469435.034603,2273,2880,ɔ
1789469435.035906,2051,2877,ɔ
1789469435.03843,2038,2879,ɔ
1789469435.040492,2189,2879,ɔ
1789469435.042818,2300,2878,ɔ
1789469435.043944,2163,2879,ɔ
1789469435.0460129,2111,2879,ɔ
1789469435.048565,2083,2879,ɔ
1789469435.0498161,2235,2879,ɔ
1789469435.055455,2055,2880,ɔ
1789469435.055957,1998,2878,ɔ
1789469435.056767,2159,2879,ɔ
1789469435.0584161,2393,2879,ɔ
1789469435.061195,2302,2880,ɔ
1789469435.063512,2098,2879,ɔ
1789469435.066022,2009,2878,ɔ
1789469435.06628,2231,2879,ɔ
1789469435.068373,2321,2879,ɔ
1789469435.070679,2135,2878,ɔ
1789469435.071774,2157,2878,ɔ
1789469435.076753,2292,2878,ɔ
1789469435.077568,2365,2881,ɔ
1789469435.079442,2206,2879,ɔ
1789469435.081792,2078,2879,ɔ
1789469435.08227,2154,2879,ɔ
1789469435.085096,2243,2880,ɔ
1789469435.087599,1977,2878,ɔ
1789469435.089492,1986,2880,ɔ
1789469435.090805,2179,2879,ɔ
1789469435.0918689,2266,2879,ɔ
1789469435.0941901,2240,2880,ɔ
1789469435.096753,2204,2878,ɔ
1789469435.0980532,2193,2879,ɔ
1789469435.100124,2247,2879,ɔ
1789469435.102678,2113,2878,ɔ
1789469435.1039732,2016,2878,ɔ
1789469435.106522,2198,2878,ɔ
1789469435.107815,2330,2878,ɔ
1789469435.110115,2249,2880,ɔ
1789469435.112182,2155,2879,ɔ
1789469435.114491,2131,2879,ɔ
1789469435.115785,2210,2878,ɔ
1789469435.118088,2172,2880,ɔ
1789469435.120416,1936,2878,ɔ
1789469435.124845,2007,2879,ɔ
1789469435.125709,2188,2879,ɔ
1789469435.126184,2241,2879,ɔ
1789469435.129856,2159,2880,ɔ
1789469435.1302881,2031,2879,ɔ
1789469435.132829,2062,2879,ɔ
1789469435.135405,2107,2880,ɔ
1789469435.1371,1956,2878,ɔ
1789469435.1384032,1980,2879,ɔ
1789469435.139762,2150,2879,ɔ
1789469435.1456509,2187,2878,ɔ
1789469435.146392,2119,2880,ɔ
1789469435.147615,2016,2878,ɔ
1789469435.149135,2061,2880,ɔ
1789469435.1509912,2204,2879,ɔ
1789469435.152639,2048,2879,ɔ
1789469435.154933,2020,2879,ɔ
1789469435.15699,2065,2879,ɔ
1789469435.1580439,2168,2880,ɔ
1789469435.160352,2131,2880,ɔ
1789469435.162653,2060,2879,ɔ
1789469435.163947,2065,2879,ɔ
1789469435.166257,2135,2879,ɔ
1789469435.1685781,2090,2879,ɔ
1789469435.169873,1938,2878,ɔ
1789469435.172191,1974,2878,ɔ
1789469435.1747231,2107,2879,ɔ
1789469435.1760151,2159,2877,ɔ
1789469435.178564,2098,2880,ɔ
1789469435.1798558,2074,2879,ɔ
1789469435.182325,2101,2878,ɔ
1789469435.1874108,2173,2879,ɔ
1789469435.187482,2041,2877,ɔ
1789469435.205139,2007,2879,ɔ
1789469435.205201,2166,2879,ɔ
1789469435.205239,2233,2878,ɔ
1789469435.2052748,2143,2880,ɔ
1789469435.205313,2047,2879,ɔ
1789469435.205348,2040,2879,ɔ
1789469435.2053819,2141,2879,ɔ
1789469435.205416,1985,2880,ɔ
1789469435.2054489,1916,2878,ɔ
1789469435.207795,2098,2879,ɔ
1789469435.208129,2166,2878,ɔ
1789469435.2246752,2180,2881,ɔ
1789469435.224731,2075,2878,ɔ
1789469435.2247858,2005,2879,ɔ
1789469435.224824,2127,2879,ɔ
1789469435.22486,2089,2879,ɔ
1789469435.224897,1949,2878,ɔ
1789469435.2249331,1990,2880,ɔ
1789469435.224969,2156,2880,ɔ
1789469435.227572,2232,2881,ɔ
1789469435.230117,2129,2880,ɔ
1789469435.230159,2039,2880,ɔ
1789469435.233123,2129,2879,ɔ
1789469435.23661,2163,2880,ɔ
1789469435.2370691,1992,2877,ɔ
1789469435.2385879,1943,2879,ɔ
1789469435.240171,2130,2881,ɔ
1789469435.243003,2261,2878,ɔ
1789469435.244334,2131,2879,ɔ
1789469435.246567,2013,2878,ɔ
1789469435.247982,2016,2879,ɔ
1789469435.250499,2205,2881,ɔ
1789469435.2518241,2090,2879,ɔ
1789469435.254951,1948,2878,ɔ
1789469435.256555,2050,2880,ɔ
1789469435.258401,2160,2878,ɔ
1789469435.259727,2185,2879,ɔ
1789469435.2691572,2078,2879,ɔ
1789469435.270198,2006,2877,ɔ
1789469435.27179,2107,2878,ɔ
1789469435.274323,2097,2880,ɔ
1789469435.277118,1902,2877,ɔ
1789469435.277318,1951,2879,ɔ
1789469435.277517,2163,2879,ɔ
1789469435.277707,2231,2878,ɔ
1789469435.2779589,2102,2879,ɔ
1789469435.280086,1999,2879,ɔ
1789469435.282777,2040,2879,ɔ
1789469435.283875,2151,2879,ɔ
1789469435.288648,1992,2878,ɔ
1789469435.289997,1971,2878,ɔ
1789469435.290106,2121,2879,ɔ
1789469435.291969,2244,2880,ɔ
1789469435.2952268,2130,2880,ɔ
1789469435.2974951,2022,2878,ɔ
1789469435.299967,2040,2879,ɔ
1789469435.300212,2177,2878,ɔ
1789469435.302426,2081,2879,ɔ
1789469435.303701,1960,2879,ɔ
1789469435.305933,2028,2879,ɔ
1789469435.308247,2162,2879,ɔ
1789469435.310566,2203,2880,ɔ
1789469435.311886,2058,2879,ɔ
1789469435.3144479,1993,2879,ɔ
1789469435.3165271,2123,2878,ɔ
1789469435.317663,2117,2879,ɔ
1789469435.320224,1932,2879,ɔ
1789469435.3223019,1932,2879,ɔ
1789469435.324623,2085,2879,ɔ
1789469435.325684,2131,2878,ɔ
1789469435.327764,2087,2880,ɔ
1789469435.329839,2039,2878,ɔ
1789469435.332391,2062,2879,ɔ
1789469435.334707,2162,2880,ɔ
1789469435.339653,2010,2877,ɔ
1789469435.340249,2019,2878,ɔ
1789469435.34041,2141,2879,ɔ
1789469435.3427079,2202,2879,ɔ
1789469435.344672,2143,2880,ɔ
1789469435.346035,2064,2879,ɔ
1789469435.348638,2080,2878,ɔ
1789469435.35111,2214,2880,ɔ
1789469435.3533492,2069,2880,ɔ
1789469435.354541,1928,2879,ɔ
1789469435.355873,2049,2878,ɔ
1789469435.362061,2173,2878,ɔ
1789469435.3625028,2183,2880,ɔ
1789469435.362658,2086,2878,ɔ
1789469435.364652,2012,2879,ɔ
1789469435.3664289,2090,2879,ɔ
1789469435.368494,2082,2879,ɔ
1789469435.372728,1931,2878,ɔ
1789469435.372888,1959,2878,ɔ
1789469435.37477,2126,2879,ɔ
1789469435.3758311,2202,2878,ɔ
1789469435.378418,2081,2879,ɔ
1789469435.3805141,2049,2878,ɔ
1789469435.3818161,2093,2878,ɔ
1789469435.384136,2147,2879,ɔ
1789469435.38644,1966,2877,ɔ
1789469435.388522,1969,2880,ɔ
1789469435.389695,2140,2879,ɔ
1789469435.39201,2227,2878,ɔ
1789469435.394563,2151,2880,ɔ
1789469435.39566,2073,2878,ɔ
1789469435.397738,2066,2879,ɔ
1789469435.4000719,2168,2879,ɔ
1789469435.4026382,2049,2879,ɔ
1789469435.4039118,1952,2878,ɔ
1789469435.4059799,2038,2879,ɔ
1789469435.412277,2161,2878,ɔ
1789469435.412771,2131,2877,ɔ
1789469435.4132538,2053,2880,ɔ
1789469435.415194,2010,2879,ɔ
1789469435.416967,2101,2877,ɔ
1789469435.418388,2095,2880,ɔ
1789469435.420852,1913,2877,ɔ
1789469435.42323,1936,2878,ɔ
1789469435.425639,2147,2880,ɔ
1789469435.425836,2187,2878,ɔ
1789469435.428162,2144,2879,ɔ
1789469435.4338481,2054,2878,ɔ
1789469435.4342568,2066,2879,ɔ
1789469435.434807,2153,2879,ɔ
1789469435.4369102,1970,2878,ɔ
1789469435.439369,1912,2879,ɔ
1789469435.4411478,2079,2880,ɔ
1789469435.442683,2205,2880,ɔ
1789469435.44503,2170,2879,ɔ
1789469435.447242,2072,2878,ɔ
1789469435.4485471,2050,2879,ɔ
1789469435.449853,2158,2878,ɔ
1789469435.4521768,2081,2879,ɔ
1789469435.454419,1967,2878,ɔ
1789469435.4557178,2065,2878,ɔ
1789469435.458275,2159,2879,ɔ
1789469435.4606872,2144,2877,ɔ
1789469435.46174,2047,2879,ɔ
1789469435.464292,1980,2879,ɔ
1789469435.465717,2085,2878,ɔ
1789469435.4682748,2136,2880,ɔ
1789469435.470423,1981,2877,ɔ
1789469435.471659,1958,2878,ɔ
1789469435.473979,2148,2877,ɔ
1789469435.476115,2215,2878,ɔ
1789469435.4781818,2149,2879,ɔ
1789469435.4844081,2037,2877,ɔ
1789469435.485271,2062,2878,ɔ
1789469435.485409,2119,2878,ɔ
1789469435.487505,1938,2876,ɔ
1789469435.487721,1931,2877,ɔ
1789469435.490601,2099,2878,ɔ
1789469435.493248,2170,2879,ɔ
1789469435.495722,2174,2879,ɔ
1789469435.495882,2068,2878,ɔ
1789469435.4981692,2030,2879,ɔ
1789469435.500731,2169,2878,ɔ
1789469435.505879,2088,2880,ɔ
1789469435.506324,1947,2877,ɔ
1789469435.506832,2042,2879,ɔ
1789469435.5088809,2168,2879,ɔ
1789469435.5105238,2183,2880,ɔ
1789469435.5122318,2066,2880,ɔ
1789469435.514472,1993,2879,ɔ
1789469435.51683,2095,2879,ɔ
1789469435.5188859,2134,2879,ɔ
1789469435.520189,1948,2878,ɔ
1789469435.522497,1960,2878,ɔ
1789469435.523812,2168,2879,ɔ
1789469435.526131,2215,2877,ɔ
1789469435.528449,2097,2880,ɔ
1789469435.529742,2042,2878,ɔ
1789469435.532047,2027,2879,ɔ
1789469435.5345962,2137,2879,ɔ
1789469435.535895,1994,2878,ɔ
1789469435.538199,1961,2879,ɔ
1789469435.5405152,2070,2879,ɔ
1789469435.5418072,2144,2878,ɔ
1789469435.544108,2116,2881,ɔ
1789469435.546412,2021,2878,ɔ
1789469435.547704,2032,2880,ɔ
1789469435.553626,2143,2879,ɔ
1789469435.554084,2049,2880,ɔ
1789469435.554568,1894,2878,ɔ
1789469435.556128,2004,2880,ɔ
1789469435.557943,2184,2878,ɔ
1789469435.5610938,2224,2880,ɔ
1789469435.563349,2108,2880,ɔ
1789469435.5650592,2036,2878,ɔ
1789469435.566124,2162,2879,ɔ
1789469435.568436,2130,2879,ɔ
1789469435.5697322,1985,2878,ɔ
1789469435.572067,2014,2879,ɔ
1789469435.5746229,2104,2879,ɔ
1789469435.575917,2200,2879,ɔ
1789469435.57847,2183,2879,ɔ
1789469435.579669,1974,2879,ɔ
1789469435.582228,2061,2879,ɔ
1789469435.584339,2187,2879,ɔ
1789469435.586656,2047,2880,ɔ
1789469435.5879521,1927,2879,ɔ
1789469435.590252,2074,2879,ɔ
1789469435.5926778,2131,2879,ɔ
1789469435.5937338,2077,2878,ɔ
1789469435.600091,2055,2880,ɔ
1789469435.6002402,2010,2879,ɔ
1789469435.600773,2112,2878,ɔ
1789469435.602531,2015,2880,ɔ
1789469435.6042151,1898,2878,ɔ
1789469435.607799,2106,2879,ɔ
1789469435.6098719,2093,2879,ɔ
1789469435.610081,2107,2878,ɔ
1789469435.611755,2023,2879,ɔ
1789469435.613823,2043,2879,ɔ
1789469435.616139,2166,2879,ɔ
1789469435.618701,2144,2879,ɔ
1789469435.6197639,1924,2877,ɔ
1789469435.621831,1985,2879,ɔ
1789469435.6243908,2151,2879,ɔ
1789469435.6256902,2188,2878,ɔ
1789469435.628243,2182,2880,ɔ
1789469435.6305542,2138,2879,ɔ
1789469435.6318479,1984,2879,ɔ
1789469435.6341581,2024,2878,ɔ
1789469435.6364748,1957,2877,ɔ
1789469435.637768,1985,2879,ɔ
1789469435.640321,2179,2879,ɔ
1789469435.646573,2381,2881,ɔ
1789469435.646718,2037,2878,ɔ
1789469435.646822,2058,2879,ɔ
1789469435.649246,2084,2880,ɔ
1789469435.651104,2134,2879,ɔ
1789469435.6529438,2037,2880,ɔ
1789469435.654428,1931,2878,ɔ
1789469435.656796,1975,2878,ɔ
1789469435.658371,2120,2879,ɔ
1789469435.660681,2186,2881,ɔ
1789469435.661953,2154,2879,ɔ
1789469435.664269,2031,2878,ɔ
1789469435.666836,2044,2878,ɔ
1789469435.668087,2088,2880,ɔ
1789469435.670639,1898,2878,ɔ
1789469435.671932,2106,2879,ɔ
1789469435.6742458,2204,2880,ɔ
1789469435.6766772,2124,2878,ɔ
1789469435.67797,2011,2879,ɔ
1789469435.6805198,2004,2879,ɔ
1789469435.681747,2068,2879,ɔ
1789469435.6842968,2246,2879,ɔ
1789469435.686412,2016,2878,ɔ
1789469435.687707,1869,2879,ɔ
1789469435.6934981,2083,2878,ɔ
1789469435.6943622,2187,2879,ɔ
1789469435.694838,2110,2880,ɔ
1789469435.696811,1955,2878,ɔ
1789469435.6985989,2006,2879,ɔ
1789469435.700512,2264,2880,ɔ
1789469435.7019572,2147,2880,ɔ
1789469435.7041411,1802,2878,ɔ
1789469435.705795,1877,2879,ɔ
1789469435.7081192,2081,2879,ɔ
1789469435.710676,2130,2878,ɔ
1789469435.711979,2121,2880,ɔ
1789469435.7145312,2030,2878,ɔ
1789469435.715638,2126,2879,ɔ
1789469435.7181928,2087,2879,ɔ
1789469435.720744,1887,2878,ɔ
1789469435.721803,1861,2880,ɔ
1789469435.7241201,2123,2878,ɔ
1789469435.7266712,2270,2879,ɔ
1789469435.727968,2041,2878,ɔ
1789469435.73027,1953,2879,ɔ
1789469435.732587,2135,2880,ɔ
1789469435.73388,2108,2879,ɔ
1789469435.736428,1910,2877,ɔ
1789469435.741127,1884,2878,ɔ
1789469435.7416131,2013,2879,ɔ
1789469435.742423,2150,2878,ɔ
1789469435.744044,2142,2880,ɔ
1789469435.747262,2023,2879,ɔ
1789469435.74897,2079,2878,ɔ
1789469435.7510478,2072,2879,ɔ
1789469435.752835,1966,2880,ɔ
1789469435.753901,1789,2877,ɔ
1789469435.755977,1915,2879,ɔ
1789469435.758294,2045,2880,ɔ
1789469435.760607,2323,2880,ɔ
1789469435.7618098,2232,2880,ɔ
1789469435.764124,1926,2878,ɔ
1789469435.766199,1903,2878,ɔ
1789469435.768506,2020,2880,ɔ
1789469435.77058,1951,2878,ɔ
1789469435.771874,1897,2879,ɔ
1789469435.774003,2224,2878,ɔ
1789469435.776313,2234,2881,ɔ
1789469435.777637,1888,2877,ɔ
1789469435.779885,1821,2878,ɔ
1789469435.782186,1871,2878,ɔ
1789469435.7875671,2292,2879,ɔ
1789469435.788335,2144,2879,ɔ
1789469435.7887712,1822,2878,ɔ
1789469435.7903721,2084,2880,ɔ
1789469435.791905,2040,2879,ɔ
1789469435.795296,1941,2878,ɔ
1789469435.797451,1764,2877,ɔ
1789469435.799501,1846,2879,ɔ
1789469435.800585,2197,2879,ɔ
1789469435.8016472,2171,2880,ɔ
1789469435.804142,1776,2878,ɔ
1789469435.8062148,1936,2878,ɔ
1789469435.808534,2026,2878,ɔ
1789469435.8098261,2029,2879,ɔ
1789469435.812379,2147,2880,ɔ
1789469435.814692,2219,2880,ɔ
1789469435.815752,2098,2878,ɔ
1789469435.8182988,1868,2879,ɔ
1789469435.820611,1508,2877,ɔ
1789469435.821904,1797,2879,ɔ
1789469435.824451,2338,2879,ɔ
1789469435.8257432,2351,2881,ɔ
1789469435.828048,1998,2879,ɔ
1789469435.8344698,1794,2879,ɔ
1789469435.834923,1613,2877,ɔ
1789469435.835374,2146,2879,ɔ
1789469435.8370109,2384,2880,ɔ
1789469435.838774,1967,2878,ɔ
1789469435.8407931,2052,2879,ɔ
1789469435.84223,2215,2878,ɔ
1789469435.844346,2159,2880,ɔ
1789469435.8464088,2045,2879,ɔ
1789469435.847722,1921,2879,ɔ
1789469435.850034,1953,2879,ɔ
1789469435.852533,1856,2876,ɔ
1789469435.8538299,1679,2878,ɔ
1789469435.856378,1546,2878,ɔ
1789469435.8575392,1892,2879,ɔ
1789469435.8598459,2449,2881,ɔ
1789469435.862158,1842,2879,ɔ
1789469435.86446,1927,2879,ɔ
1789469435.8655639,2242,2880,ɔ
1789469435.867879,2538,2881,ɔ
1789469435.870427,2123,2881,ɔ
1789469435.871535,1794,2878,ɔ
1789469435.873844,1929,2879,ɔ
1789469435.876157,1659,2879,ɔ
1789469435.8785841,1419,2878,ɔ
1789469435.879681,2303,2879,ɔ
1789469435.884276,2371,2880,ɔ
1789469435.884725,1860,2878,ɔ
1789469435.886593,1596,2875,ɔ
1789469435.888203,1610,2878,ɔ
1789469435.891576,1671,2879,ɔ
1789469435.893713,1977,2878,ɔ
1789469435.893913,1918,2877,ɔ
1789469435.895995,1789,2879,ɔ
1789469435.8985548,1519,2877,ɔ
1789469435.899851,1744,2878,ɔ
1789469435.9024131,1578,2877,ɔ
1789469435.903553,1650,2878,ɔ
1789469435.9061089,2016,2879,ɔ
1789469435.9086761,2146,2878,ɔ
1789469435.909973,2078,2878,ɔ
1789469435.912523,1823,2877,ɔ
1789469435.913701,1679,2879,ɔ
1789469435.916019,1607,2876,ɔ
1789469435.918606,1724,2877,ɔ
1789469435.919798,2088,2880,ɔ
1789469435.921891,1685,2878,ɔ
1789469435.924444,1923,2878,ɔ
1789469435.925753,2072,2878,ɔ
1789469435.930503,2010,2878,ɔ
1789469435.9314592,1857,2879,ɔ
1789469435.932349,1859,2878,ɔ
1789469435.933883,1972,2879,ɔ
1789469435.9358962,1718,2877,ɔ
1789469435.937845,1597,2879,ɔ
1789469435.941517,1812,2879,ɔ
1789469435.941685,2179,2879,ɔ
1789469435.944597,2121,2880,ɔ
1789469435.9456499,1974,2880,ɔ
1789469435.951412,1854,2879,ɔ
1789469435.951842,2195,2879,ɔ
1789469435.952401,2246,2880,ɔ
1789469435.9542348,1977,2879,ɔ
1789469435.956157,1945,2879,ɔ
1789469435.957759,2072,2878,ɔ
1789469435.961705,2082,2879,ɔ
1789469435.961846,2038,2878,ɔ
1789469435.963995,1953,2880,ɔ
1789469435.966327,2037,2879,ɔ
1789469435.967625,2183,2878,ɔ
1789469435.970191,1858,2878,ɔ
1789469435.9715352,1839,2878,ɔ
1789469435.97385,2064,2880,ɔ
1789469435.975968,2221,2879,ɔ
1789469435.978278,2152,2881,ɔ
1789469435.979572,2040,2879,ɔ
1789469435.981631,1953,2878,ɔ
1789469435.983943,1985,2878,ɔ
1789469435.986251,1850,2878,ɔ
1789469435.988317,1782,2880,ɔ
1789469435.989624,1910,2878,ɔ
1789469435.9921799,2089,2879,ɔ
1789469435.993623,2062,2878,ɔ
1789469435.9988759,2008,2880,ɔ
1789469435.999328,2020,2879,ɔ
1789469436.001585,2052,2879,ɔ
1789469436.001699,2024,2879,ɔ
1789469436.0044212,1890,2878,ɔ
1789469436.006621,2060,2879,ɔ
1789469436.0089521,2141,2879,ɔ
1789469436.011182,2263,2882,ɔ
1789469436.012491,2045,2879,ɔ
1789469436.013572,2146,2880,ɔ
1789469436.015903,2362,2880,ɔ
1789469436.0184681,2190,2880,ɔ
1789469436.0197608,1771,2878,ɔ
1789469436.022312,2022,2880,ɔ
1789469436.023605,2157,2879,ɔ
1789469436.0261571,2182,2879,ɔ
1789469436.027536,2001,2879,ɔ
1789469436.029855,1996,2879,ɔ
1789469436.0324092,2149,2879,ɔ
1789469436.034484,2143,2879,ɔ
1789469436.0357802,2040,2880,ɔ
1789469436.038334,1852,2879,ɔ
1789469436.039626,2140,2879,ɔ
1789469436.0453959,2239,2878,ɔ
1789469436.046164,2165,2880,ɔ
1789469436.046986,2037,2881,ɔ
1789469436.048186,2016,2879,ɔ
1789469436.050642,2092,2879,ɔ
1789469436.05312,2036,2880,ɔ
1789469436.0555341,1974,2879,ɔ
1789469436.055647,2171,2880,ɔ
1789469436.0582972,1982,2879,ɔ
1789469436.060374,2229,2879,ɔ
1789469436.0616791,2149,2880,ɔ
1789469436.064242,2033,2879,ɔ
1789469436.0664818,2068,2879,ɔ
1789469436.067779,2102,2880,ɔ
1789469436.0703301,1780,2877,ɔ
1789469436.071622,1823,2879,ɔ
1789469436.073929,2282,2878,ɔ
1789469436.0764759,2376,2881,ɔ
1789469436.0777678,2041,2879,ɔ
1789469436.080089,2036,2879,ɔ
1789469436.0824058,1915,2879,ɔ
1789469436.0835378,2386,2880,ɔ
1789469436.086089,1698,2877,ɔ
1789469436.092174,1771,2878,ɔ
1789469436.092896,1963,2879,ɔ
1789469436.093736,2106,2879,ɔ
1789469436.09514,2160,2879,ɔ
1789469436.096718,1963,2879,ɔ
1789469436.0986218,1846,2879,ɔ
1789469436.1005068,2161,2879,ɔ
1789469436.102794,2148,2880,ɔ
1789469436.104772,1971,2879,ɔ
1789469436.105836,2002,2879,ɔ
1789469436.107902,2317,2878,ɔ
1789469436.110212,2126,2878,ɔ
1789469436.112288,2034,2879,ɔ
1789469436.113578,1925,2879,ɔ
1789469436.115891,2157,2879,ɔ
1789469436.11845,2248,2880,ɔ
1789469436.1196601,1844,2876,ɔ
1789469436.121964,1791,2878,ɔ
1789469436.124514,2122,2879,ɔ
1789469436.125737,2231,2879,ɔ
1789469436.128287,2254,2881,ɔ
1789469436.1305869,2135,2879,ɔ
1789469436.131876,1926,2878,ɔ
1789469436.138198,2258,2879,ɔ
1789469436.138604,1960,2877,ɔ
1789469436.139029,1859,2879,ɔ
1789469436.140509,2038,2879,ɔ
1789469436.1422698,2119,2879,ɔ
1789469436.143969,2258,2881,ɔ
1789469436.147649,2074,2879,ɔ
1789469436.147827,1894,2878,ɔ
1789469436.150611,2018,2879,ɔ
1789469436.151905,2116,2880,ɔ
1789469436.154357,1963,2878,ɔ
1789469436.155657,2043,2880,ɔ
1789469436.158208,2260,2879,ɔ
1789469436.160514,2132,2878,ɔ
1789469436.161737,1961,2879,ɔ
1789469436.164282,2157,2880,ɔ
1789469436.166347,2102,2878,ɔ
1789469436.167528,2079,2879,ɔ
1789469436.1698408,1991,2878,ɔ
1789469436.1723928,1851,2879,ɔ
1789469436.1736882,2055,2880,ɔ
1789469436.176003,2123,2879,ɔ
1789469436.1783092,1922,2878,ɔ
1789469436.18331,1918,2879,ɔ
1789469436.183765,2084,2878,ɔ
1789469436.184227,2355,2880,ɔ
1789469436.187048,2064,2880,ɔ
1789469436.188493,1910,2878,ɔ
1789469436.190201,2045,2879,ɔ
1789469436.1923368,2229,2879,ɔ
1789469436.194347,2177,2880,ɔ
1789469436.195647,2006,2881,ɔ
1789469436.1977239,2012,2879,ɔ
1789469436.199785,2019,2879,ɔ
1789469436.2018518,2020,2879,ɔ
1789469436.204402,1818,2877,ɔ
1789469436.205699,1927,2879,ɔ
1789469436.208249,2040,2877,ɔ
1789469436.209548,2187,2879,ɔ
1789469436.212096,2153,2880,ɔ
1789469436.2144032,1950,2878,ɔ
1789469436.2156959,2090,2879,ɔ
1789469436.218011,2095,2879,ɔ
1789469436.2200809,1937,2878,ɔ
1789469436.222144,1939,2881,ɔ
1789469436.227194,2182,2879,ɔ
1789469436.2276428,2221,2879,ɔ
1789469436.22843,2222,2880,ɔ
1789469436.2299159,2112,2879,ɔ
1789469436.2333171,2027,2878,ɔ
1789469436.234613,2199,2879,ɔ
1789469436.236819,1978,2876,ɔ
1789469436.238768,1906,2879,ɔ
1789469436.240067,2135,2880,ɔ
1789469436.242628,2253,2879,ɔ
1789469436.243952,2212,2881,ɔ
1789469436.246282,1999,2879,ɔ
1789469436.2475772,1958,2879,ɔ
1789469436.250123,2118,2880,ɔ
1789469436.2526798,2136,2879,ɔ
1789469436.253973,1941,2878,ɔ
1789469436.256524,1998,2879,ɔ
1789469436.257568,2187,2880,ɔ
1789469436.259626,2368,2880,ɔ
1789469436.261933,2105,2879,ɔ
1789469436.264479,1946,2877,ɔ
1789469436.265769,2010,2880,ɔ
1789469436.271884,2078,2880,ɔ
1789469436.272639,1853,2877,ɔ
1789469436.273348,1881,2879,ɔ
1789469436.275869,2106,2880,ɔ
1789469436.27599,2162,2878,ɔ
1789469436.279228,2143,2880,ɔ
1789469436.281472,2075,2879,ɔ
1789469436.281632,2104,2878,ɔ
1789469436.2843578,2153,2879,ɔ
1789469436.2864761,1994,2877,ɔ
1789469436.287773,1951,2878,ɔ
1789469436.29009,2091,2878,ɔ
1789469436.292644,2209,2878,ɔ
1789469436.293696,2179,2879,ɔ
1789469436.295993,2130,2879,ɔ
1789469436.298539,2003,2878,ɔ
1789469436.299828,2231,2880,ɔ
1789469436.3021371,2123,2880,ɔ
1789469436.304659,1900,2878,ɔ
1789469436.305949,2006,2881,ɔ
1789469436.3082519,2193,2880,ɔ
1789469436.30956,2228,2880,ɔ
1789469436.312115,2026,2879,ɔ
1789469436.315783,1950,2878,ɔ
1789469436.316603,2109,2880,ɔ
1789469436.318725,2152,2878,ɔ
1789469436.320624,1984,2878,ɔ
1789469436.321849,1920,2879,ɔ
1789469436.3239648,2086,2880,ɔ
1789469436.3262038,2156,2879,ɔ
1789469436.328139,2119,2880,ɔ
1789469436.330712,2028,2878,ɔ
1789469436.332005,2120,2880,ɔ
1789469436.334541,2269,2880,ɔ
1789469436.335592,2092,2880,ɔ
1789469436.33814,1882,2879,ɔ
1789469436.3404539,2004,2879,ɔ
1789469436.341745,2265,2879,ɔ
1789469436.3441112,2162,2881,ɔ
1789469436.3465621,1996,2879,ɔ
1789469436.3478541,2000,2879,ɔ
1789469436.350414,2115,2878,ɔ
1789469436.351707,2142,2879,ɔ
1789469436.354256,1943,2877,ɔ
1789469436.355547,1964,2878,ɔ
1789469436.36186,2172,2879,ɔ
1789469436.362286,2237,2879,ɔ
1789469436.362717,2197,2880,ɔ
1789469436.364253,1932,2878,ɔ
1789469436.3671,2043,2879,ɔ
1789469436.3689148,2217,2880,ɔ
1789469436.371232,1852,2878,ɔ
1789469436.373337,1821,2878,ɔ
1789469436.374401,2170,2879,ɔ
1789469436.375693,2315,2879,ɔ
1789469436.377749,2095,2879,ɔ
1789469436.380097,2043,2879,ɔ
1789469436.382404,2020,2878,ɔ
1789469436.3835552,2170,2879,ɔ
1789469436.38587,2029,2880,ɔ
1789469436.388421,1888,2878,ɔ
1789469436.389612,2060,2879,ɔ
1789469436.392159,2168,2879,ɔ
1789469436.393516,2210,2881,ɔ
1789469436.395821,2084,2879,ɔ
1789469436.398128,1979,2879,ɔ
1789469436.400185,2144,2880,ɔ
1789469436.4036028,2087,2879,ɔ
1789469436.406027,1852,2878,ɔ
1789469436.40644,1968,2878,ɔ
1789469436.408892,2211,2879,ɔ
1789469436.4107342,2163,2878,ɔ
1789469436.412249,2098,2879,ɔ
1789469436.413961,1980,2879,ɔ
1789469436.416148,2034,2879,ɔ
1789469436.417834,2131,2878,ɔ
1789469436.420393,1902,2878,ɔ
1789469436.4216871,1842,2878,ɔ
1789469436.424243,2046,2879,ɔ
1789469436.426584,2227,2879,ɔ
1789469436.427637,2176,2879,ɔ
1789469436.4299378,2074,2879,ɔ
1789469436.432482,2052,2879,ɔ
1789469436.433774,2217,2880,ɔ
1789469436.435843,2077,2880,ɔ
1789469436.438153,1940,2879,ɔ
1789469436.4403598,2056,2880,ɔ
1789469436.4416509,2221,2878,ɔ
1789469436.4439611,2211,2880,ɔ
1789469436.44626,2058,2880,ɔ
1789469436.450849,1989,2879,ɔ
1789469436.45096,2120,2879,ɔ
1789469436.453215,2098,2880,ɔ
1789469436.4548988,1937,2878,ɔ
1789469436.4578948,1955,2879,ɔ
1789469436.460219,2173,2879,ɔ
1789469436.460428,2233,2879,ɔ
1789469436.462295,2110,2879,ɔ
1789469436.463595,2069,2879,ɔ
1789469436.466151,2079,2878,ɔ
1789469436.467444,2164,2879,ɔ
1789469436.469732,1973,2878,ɔ
1789469436.4722822,1936,2879,ɔ
1789469436.473547,2170,2880,ɔ
1789469436.475848,2186,2879,ɔ
1789469436.4779048,2078,2881,ɔ
1789469436.480457,1990,2879,ɔ
1789469436.481646,1980,2879,ɔ
1789469436.484193,2177,2879,ɔ
1789469436.486495,2018,2878,ɔ
1789469436.487551,1904,2879,ɔ
1789469436.490096,2049,2878,ɔ
1789469436.492331,2233,2879,ɔ
1789469436.499807,2228,2880,ɔ
1789469436.5000079,2072,2879,ɔ
1789469436.500159,1975,2879,ɔ
1789469436.501787,2129,2879,ɔ
1789469436.502242,2118,2880,ɔ
1789469436.504055,1877,2877,ɔ
1789469436.5125802,1941,2878,ɔ
1789469436.51296,2146,2880,ɔ
1789469436.513052,2219,2878,ɔ
1789469436.513212,2114,2880,ɔ
1789469436.5160298,1974,2878,ɔ
1789469436.5165062,2043,2879,ɔ
1789469436.521656,2159,2879,ɔ
1789469436.5223198,1952,2877,ɔ
1789469436.522816,1963,2878,ɔ
1789469436.5245209,2154,2879,ɔ
1789469436.526461,2215,2880,ɔ
1789469436.530377,2139,2880,ɔ
1789469436.5331352,2043,2879,ɔ
1789469436.533268,2070,2878,ɔ
1789469436.535721,2198,2880,ɔ
1789469436.535799,2034,2880,ɔ
1789469436.5378811,1872,2879,ɔ
1789469436.5406132,2005,2880,ɔ
1789469436.541939,2195,2878,ɔ
1789469436.5442848,2263,2880,ɔ
1789469436.545599,2075,2880,ɔ
1789469436.547932,2029,2878,ɔ
1789469436.551081,2143,2880,ɔ
1789469436.552459,2117,2880,ɔ
1789469436.553608,1946,2878,ɔ
1789469436.556708,1971,2881,ɔ
1789469436.5580091,2109,2879,ɔ
1789469436.559753,2186,2878,ɔ
1789469436.563276,2107,2881,ɔ
1789469436.567945,1991,2879,ɔ
1789469436.5779462,2094,2879,ɔ
1789469436.579701,2262,2879,ɔ
1789469436.585092,1986,2877,ɔ
1789469436.5854871,1920,2879,ɔ
1789469436.587712,2126,2880,ɔ
1789469436.587887,2232,2879,ɔ
1789469436.5879838,2168,2879,ɔ
1789469436.588149,1997,2879,ɔ
1789469436.588282,2036,2878,ɔ
1789469436.588429,2151,2879,ɔ
1789469436.588577,2076,2880,ɔ
1789469436.588655,1795,2878,ɔ
1789469436.5899851,1926,2880,ɔ
1789469436.591776,2245,2879,ɔ
1789469436.595787,2284,2879,ɔ
1789469436.597177,2137,2880,ɔ
1789469436.5989351,2063,2879,ɔ
1789469436.6014662,2341,2880,ɔ
1789469436.6026912,2114,2879,ɔ
1789469436.6047869,1820,2878,ɔ
1789469436.607381,2036,2879,ɔ
1789469436.6076171,2270,2880,ɔ
1789469436.610361,2141,2879,ɔ
1789469436.6116512,2088,2879,ɔ
1789469436.613983,2048,2879,ɔ
1789469436.6163142,2058,2879,ɔ
1789469436.617617,2307,2879,ɔ
1789469436.620173,1779,2877,ɔ
1789469436.6214678,1830,2879,ɔ
1789469436.623544,2168,2880,ɔ
1789469436.626116,2432,2882,ɔ
1789469436.6282308,2178,2878,ɔ
1789469436.630534,2007,2879,ɔ
1789469436.631829,2063,2879,ɔ
1789469436.633968,2223,2879,ɔ
1789469436.6363342,2152,2880,ɔ
1789469436.637627,2019,2878,ɔ
1789469436.639961,2170,2878,ɔ
1789469436.6451,2376,2878,ɔ
1789469436.6460211,2296,2881,ɔ
1789469436.6469219,2136,2879,ɔ
1789469436.64835,2048,2879,ɔ
1789469436.6498508,2215,2879,ɔ
1789469436.6534889,2169,2879,ɔ
1789469436.653652,2045,2878,ɔ
1789469436.656241,2099,2879,ɔ
1789469436.6580632,2273,2879,ɔ
1789469436.659445,2325,2880,ɔ
1789469436.6618629,2212,2879,ɔ
1789469436.665699,2137,2879,ɔ
1789469436.6661592,2244,2879,ɔ
1789469436.6683562,2284,2880,ɔ
1789469436.67027,2133,2881,ɔ
1789469436.6716642,2129,2878,ɔ
1789469436.673701,2429,2880,ɔ
1789469436.676123,2435,2881,ɔ
1789469436.67837,2363,2880,ɔ
1789469436.679669,2281,2879,ɔ
1789469436.682111,2284,2879,ɔ
1789469436.683755,2404,2879,ɔ
1789469436.686382,2178,2879,ɔ
1789469436.6879308,2066,2878,ɔ
1789469436.690869,2154,2878,ɔ
1789469436.692629,2416,2878,ɔ
1789469436.693683,2386,2879,ɔ
1789469436.696007,2317,2880,ɔ
1789469436.69853,2213,2880,ɔ
1789469436.6998231,2365,2880,ɔ
1789469436.702353,2380,2880,ɔ
1789469436.703427,2145,2877,ɔ
1789469436.705748,2217,2880,ɔ
1789469436.707865,2404,2879,ɔ
1789469436.714,2447,2881,ɔ
1789469436.714484,2319,2880,ɔ
1789469436.714592,2218,2878,ɔ
1789469436.716724,2330,2879,ɔ
1789469436.7185311,2332,2880,ɔ
1789469436.720122,2087,2877,ɔ
1789469436.7247229,2085,2878,ɔ
1789469436.7249029,2248,2879,ɔ
1789469436.7266638,2436,2880,ɔ
1789469436.727974,2395,2880,ɔ
1789469436.7302861,2239,2880,ɔ
1789469436.7352378,2223,2878,ɔ
1789469436.735734,2325,2879,ɔ
1789469436.736114,2381,2880,ɔ
1789469436.7376661,2297,2878,ɔ
1789469436.7404852,2331,2880,ɔ
1789469436.7429729,2441,2878,ɔ
1789469436.745617,2348,2880,ɔ
1789469436.745863,2317,2879,ɔ
1789469436.747879,2171,2877,ɔ
1789469436.750466,2332,2879,ɔ
1789469436.751768,2310,2880,ɔ
1789469436.7540889,2089,2878,ɔ
1789469436.756205,2090,2878,ɔ
1789469436.757503,2282,2880,ɔ
1789469436.760027,2357,2879,ɔ
1789469436.7614222,2182,2879,ɔ
1789469436.7637382,2079,2878,ɔ
1789469436.7658591,1988,2878,ɔ
1789469436.76792,2278,2879,ɔ
1789469436.7699919,2171,2880,ɔ
1789469436.772311,2044,2877,ɔ
1789469436.7734258,2165,2878,ɔ
1789469436.7757492,2301,2878,ɔ
1789469436.778062,2284,2881,ɔ
1789469436.782686,2128,2879,ɔ
1789469436.783859,2175,2878,ɔ
1789469436.7843368,2238,2879,ɔ
1789469436.785703,2253,2880,ɔ
1789469436.7893472,2005,2879,ɔ
1789469436.789529,2083,2880,ɔ
1789469436.7939122,2378,2879,ɔ
1789469436.794267,2356,2881,ɔ
1789469436.795852,2251,2879,ɔ
1789469436.798437,2108,2879,ɔ
1789469436.799743,2126,2880,ɔ
1789469436.804298,2171,2880,ɔ
1789469436.804812,2007,2877,ɔ
1789469436.806657,2134,2878,ɔ
1789469436.8083148,2327,2879,ɔ
1789469436.810426,2344,2880,ɔ
1789469436.812116,2257,2880,ɔ
1789469436.814485,2076,2879,ɔ
1789469436.816729,2125,2879,ɔ
1789469436.818312,2381,2881,ɔ
1789469436.8198452,2170,2880,ɔ
1789469436.822989,2022,2878,ɔ
1789469436.824335,2213,2878,ɔ
1789469436.82564,2261,2879,ɔ
1789469436.828135,2278,2879,ɔ
1789469436.830219,2222,2879,ɔ
1789469436.832292,2208,2876,ɔ
1789469436.833579,2329,2879,ɔ
1789469436.836236,2231,2879,ɔ
1789469436.837578,2084,2877,ɔ
1789469436.839946,2133,2879,ɔ
1789469436.842166,2253,2879,ɔ
1789469436.844447,2263,2881,ɔ
1789469436.845778,2238,2879,ɔ
1789469436.8485298,2062,2879,ɔ
1789469436.851081,2125,2879,ɔ
1789469436.85252,2078,2879,ɔ
1789469436.853992,1988,2878,ɔ
1789469436.85553,2121,2879,ɔ
1789469436.8599,2164,2880,ɔ
1789469436.859946,2200,2879,ɔ
1789469436.8749871,2122,2879,ɔ
1789469436.885629,1965,2878,ɔ
1789469436.888014,2039,2878,ɔ
1789469436.8881311,2101,2879,ɔ
1789469436.888268,2008,2876,ɔ
1789469436.8883379,1973,2879,ɔ
1789469436.888431,2092,2880,ɔ
1789469436.888478,2230,2878,ɔ
1789469436.8885162,2255,2880,ɔ
1789469436.888649,2200,2878,ɔ
1789469436.888753,2145,2879,ɔ
1789469436.888854,2216,2879,ɔ
1789469436.8889441,2125,2879,ɔ
1789469436.8889852,1915,2878,ɔ
1789469436.890337,1908,2878,ɔ
1789469436.8917062,2216,2880,ɔ
1789469436.900212,2211,2879,ɔ
1789469436.902954,2080,2880,ɔ
1789469436.904937,2031,2879,ɔ
1789469436.905569,2029,2879,ɔ
1789469436.910516,2117,2880,ɔ
1789469436.9148731,2093,2878,ɔ
1789469436.9149802,2092,2879,ɔ
1789469436.915067,2176,2879,ɔ
1789469436.9151082,2132,2879,ɔ
1789469436.915143,2026,2878,ɔ
1789469436.915317,2003,2878,ɔ
1789469436.9154508,2042,2879,ɔ
1789469436.918348,2212,2879,ɔ
1789469436.9195578,1935,2876,ɔ
1789469436.922008,2012,2880,ɔ
1789469436.924404,2141,2878,ɔ
1789469436.9255989,2223,2879,ɔ
1789469436.92798,2201,2881,ɔ
1789469436.9327092,2161,2879,ɔ
1789469436.932776,2173,2880,ɔ
1789469436.93455,2283,2879,ɔ
1789469436.937404,2128,2879,ɔ
1789469436.9374452,1969,2879,ɔ
1789469436.9395359,2014,2878,ɔ
1789469436.941615,2132,2879,ɔ
1789469436.944449,2185,2878,ɔ
1789469436.945745,2102,2879,ɔ
1789469436.9525912,2030,2879,ɔ
1789469436.957354,2095,2880,ɔ
1789469436.968048,2186,2878,ɔ
1789469436.968193,1982,2878,ɔ
1789469436.968311,1997,2879,ɔ
1789469436.96839,2105,2879,ɔ
1789469436.968574,2224,2879,ɔ
1789469436.968766,2124,2880,ɔ
1789469436.9689379,2036,2878,ɔ
1789469436.9690912,2020,2879,ɔ
1789469436.969208,2163,2880,ɔ
1789469436.970721,2030,2880,ɔ
1789469436.9720042,1950,2879,ɔ
1789469436.9820921,2102,2880,ɔ
1789469436.983596,2202,2880,ɔ
1789469436.9896882,2169,2880,ɔ
1789469436.990377,2093,2879,ɔ
1789469436.992887,2047,2878,ɔ
1789469436.9930382,2141,2879,ɔ
1789469436.9931939,2052,2880,ɔ
1789469436.993328,1870,2878,ɔ
1789469436.99359,1962,2879,ɔ
1789469436.993686,2173,2879,ɔ
1789469436.993828,2186,2879,ɔ
1789469436.9962618,2099,2878,ɔ
1789469436.997945,2038,2878,ɔ
1789469436.9993558,2087,2879,ɔ
1789469437.0015008,2115,2879,ɔ
1789469437.004071,1942,2877,ɔ
1789469437.0054772,1935,2879,ɔ
1789469437.007756,2099,2879,ɔ
1789469437.010466,2202,2879,ɔ
1789469437.011668,2125,2880,ɔ
1789469437.014186,2001,2879,ɔ
1789469437.015358,2019,2879,ɔ
1789469437.0182312,2156,2878,ɔ
1789469437.019588,2066,2879,ɔ
1789469437.022251,1959,2877,ɔ
1789469437.023765,2076,2879,ɔ
1789469437.026869,2168,2879,ɔ
1789469437.0283499,2123,2877,ɔ
1789469437.0455391,2063,2879,ɔ
1789469437.059626,1984,2879,ɔ
1789469437.0621078,2126,2879,ɔ
1789469437.062328,2069,2879,ɔ
1789469437.0625432,1933,2879,ɔ
1789469437.06262,1971,2878,ɔ
1789469437.062689,2185,2878,ɔ
1789469437.062934,2264,2881,ɔ
1789469437.063255,2126,2880,ɔ
1789469437.06339,2036,2879,ɔ
1789469437.0634701,2092,2879,ɔ
1789469437.063597,2128,2879,ɔ
1789469437.063639,1970,2877,ɔ
1789469437.0685,1993,2879,ɔ
1789469437.0720909,2134,2879,ɔ
1789469437.072315,2130,2879,ɔ
1789469437.0725,2081,2879,ɔ
1789469437.0727181,2012,2878,ɔ
1789469437.077613,2020,2880,ɔ
1789469437.085124,2145,2880,ɔ
1789469437.0851998,2000,2879,ɔ
1789469437.085243,1907,2879,ɔ
1789469437.085365,2058,2879,ɔ
1789469437.085557,2146,2879,ɔ
1789469437.08564,2140,2880,ɔ
1789469437.085685,2036,2879,ɔ
1789469437.0857239,2003,2879,ɔ
1789469437.085762,2161,2879,ɔ
1789469437.08586,2125,2880,ɔ
1789469437.087446,1925,2877,ɔ
1789469437.08955,1986,2879,ɔ
1789469437.091887,2143,2879,ɔ
1789469437.0934138,2215,2879,ɔ
1789469437.0958111,2096,2879,ɔ
1789469437.098512,2015,2878,ɔ
1789469437.099637,2058,2879,ɔ
1789469437.10199,2140,2880,ɔ
1789469437.103296,2005,2877,ɔ
1789469437.1056309,1949,2877,ɔ
1789469437.107716,2108,2880,ɔ
1789469437.109787,2199,2880,ɔ
1789469437.111866,2115,2879,ɔ
1789469437.113952,2012,2879,ɔ
1789469437.116268,2038,2880,ɔ
1789469437.1175292,2132,2879,ɔ
1789469437.120097,2034,2880,ɔ
1789469437.126724,1944,2878,ɔ
1789469437.1292531,2040,2879,ɔ
1789469437.139201,2175,2879,ɔ
1789469437.139404,2126,2877,ɔ
1789469437.14175,2054,2879,ɔ
1789469437.141991,1994,2878,ɔ
1789469437.142103,2175,2879,ɔ
1789469437.142166,2113,2879,ɔ
1789469437.142294,1944,2877,ɔ
1789469437.142367,2000,2879,ɔ
1789469437.142441,2144,2879,ɔ
1789469437.1436858,2204,2879,ɔ
1789469437.146349,2135,2879,ɔ
1789469437.147549,2019,2879,ɔ
1789469437.149962,2063,2878,ɔ
1789469437.157242,2160,2879,ɔ
1789469437.1581519,1983,2877,ɔ
1789469437.1588302,1941,2879,ɔ
1789469437.164716,2128,2879,ɔ
1789469437.165217,2218,2879,ɔ
1789469437.165793,2169,2880,ɔ
1789469437.1664739,2061,2879,ɔ
1789469437.1670651,2075,2878,ɔ
1789469437.17278,2189,2878,ɔ
1789469437.173232,2081,2879,ɔ
1789469437.178091,1923,2878,ɔ
1789469437.178158,1991,2878,ɔ
1789469437.178205,2120,2878,ɔ
1789469437.178249,2150,2878,ɔ
1789469437.179594,2088,2879,ɔ
1789469437.182637,2037,2877,ɔ
1789469437.184072,2133,2879,ɔ
1789469437.185865,2063,2878,ɔ
1789469437.188011,1946,2877,ɔ
1789469437.189464,1944,2878,ɔ
1789469437.1918771,2101,2878,ɔ
1789469437.1940281,2201,2879,ɔ
1789469437.1955452,2100,2879,ɔ
1789469437.19734,1985,2879,ɔ
1789469437.2003882,2090,2879,ɔ
1789469437.2017941,2146,2879,ɔ
1789469437.203439,1965,2877,ɔ
1789469437.2126179,1931,2879,ɔ
1789469437.2126741,2086,2879,ɔ
1789469437.212718,2185,2879,ɔ
1789469437.2141461,2188,2880,ɔ
1789469437.2142,2045,2879,ɔ
1789469437.2220669,1963,2879,ɔ
1789469437.246013,2187,2879,ɔ
1789469437.2462862,2062,2880,ɔ
1789469437.2463412,1961,2878,ɔ
1789469437.2463858,2076,2879,ɔ
1789469437.246429,2242,2879,ɔ
1789469437.246471,2138,2879,ɔ
1789469437.246513,2045,2879,ɔ
1789469437.246806,2069,2879,ɔ
1789469437.246861,2238,2879,ɔ
1789469437.246907,2105,2880,ɔ
1789469437.24695,1945,2878,ɔ
1789469437.2469928,1943,2879,ɔ
1789469437.2470348,2181,2878,ɔ
1789469437.247652,2158,2880,ɔ
1789469437.247714,2065,2880,ɔ
1789469437.2477598,2030,2878,ɔ
1789469437.250543,2021,2879,ɔ
1789469437.2529018,2143,2879,ɔ
1789469437.2668319,1982,2877,ɔ
1789469437.268693,1892,2879,ɔ
1789469437.270653,2092,2878,ɔ
1789469437.271383,2251,2879,ɔ
1789469437.2719219,2160,2880,ɔ
1789469437.274132,2079,2879,ɔ
1789469437.274337,2011,2879,ɔ
1789469437.2809112,2158,2879,ɔ
1789469437.281016,2034,2878,ɔ
1789469437.281064,2040,2879,ɔ
1789469437.281108,2106,2878,ɔ
1789469437.281612,2045,2878,ɔ
1789469437.281877,2168,2877,ɔ
1789469437.281923,2184,2880,ɔ
1789469437.2819672,2088,2878,ɔ
1789469437.283424,2077,2878,ɔ
1789469437.286109,1988,2879,ɔ
1789469437.287619,1924,2878,ɔ
1789469437.289845,1995,2879,ɔ
1789469437.2919612,2207,2879,ɔ
1789469437.294373,2166,2878,ɔ
1789469437.295956,2156,2880,ɔ
1789469437.2975638,2010,2879,ɔ
1789469437.300461,2072,2878,ɔ
1789469437.302583,2168,2880,ɔ
1789469437.303806,2020,2877,ɔ
1789469437.306325,1842,2879,ɔ
1789469437.307791,2133,2879,ɔ
1789469437.310088,2311,2878,ɔ
1789469437.311405,2061,2879,ɔ
1789469437.313758,2077,2879,ɔ
1789469437.3160908,2124,2877,ɔ
1789469437.318419,2135,2878,ɔ
1789469437.3197281,1969,2877,ɔ
1789469437.3218381,1900,2878,ɔ
1789469437.3294232,2002,2879,ɔ
1789469437.331615,2193,2879,ɔ
1789469437.332361,2302,2880,ɔ
1789469437.334017,2208,2879,ɔ
1789469437.334244,2012,2879,ɔ
1789469437.334625,2110,2879,ɔ
1789469437.336768,2192,2880,ɔ
1789469437.338152,1920,2878,ɔ
1789469437.339804,1915,2879,ɔ
1789469437.3423848,2028,2878,ɔ
1789469437.3454652,2177,2878,ɔ
1789469437.3457742,2095,2879,ɔ
1789469437.348536,2030,2879,ɔ
1789469437.349971,2077,2878,ɔ
1789469437.352077,2181,2879,ɔ
1789469437.3541608,1929,2878,ɔ
1789469437.3604422,1992,2879,ɔ
1789469437.3610702,2036,2879,ɔ
1789469437.361184,2273,2879,ɔ
1789469437.362296,2089,2881,ɔ
1789469437.363935,1848,2877,ɔ
1789469437.366394,2018,2880,ɔ
1789469437.368077,2147,2879,ɔ
1789469437.37083,1917,2877,ɔ
1789469437.373816,1738,2879,ɔ
1789469437.374068,1986,2878,ɔ
1789469437.376796,2106,2878,ɔ
1789469437.3781161,2105,2878,ɔ
1789469437.379424,2071,2879,ɔ
1789469437.381758,2000,2879,ɔ
1789469437.384331,2218,2879,ɔ
1789469437.385656,2138,2879,ɔ
1789469437.388257,1997,2878,ɔ
1789469437.389566,1951,2879,ɔ
1789469437.392134,1951,2879,ɔ
1789469437.393434,2100,2879,ɔ
1789469437.396192,2103,2879,ɔ
1789469437.3972921,1917,2880,ɔ
1789469437.399456,2005,2877,ɔ
1789469437.40203,2154,2878,ɔ
1789469437.4033458,1913,2878,ɔ
1789469437.405438,1802,2878,ɔ
1789469437.407545,2021,2880,ɔ
1789469437.4096231,2115,2879,ɔ
1789469437.4117959,2038,2877,ɔ
1789469437.414124,2097,2879,ɔ
1789469437.415433,2176,2880,ɔ
1789469437.428324,2103,2879,ɔ
1789469437.429568,1996,2879,ɔ
1789469437.430727,1929,2878,ɔ
1789469437.441356,2014,2880,ɔ
1789469437.4416451,2192,2878,ɔ
1789469437.445461,2288,2880,ɔ
1789469437.4455721,1927,2880,ɔ
1789469437.445622,1681,2878,ɔ
1789469437.445698,1870,2879,ɔ
1789469437.445751,2061,2879,ɔ
1789469437.445798,2128,2878,ɔ
1789469437.445876,1990,2879,ɔ
1789469437.445923,1850,2879,ɔ
1789469437.445966,1962,2878,ɔ
1789469437.44601,2121,2879,ɔ
1789469437.447232,1970,2880,ɔ
1789469437.449823,1948,2879,ɔ
1789469437.4562318,1853,2879,ɔ
1789469437.456893,2016,2879,ɔ
1789469437.45759,2070,2879,ɔ
1789469437.45888,2103,2879,ɔ
1789469437.460973,2021,2880,ɔ
1789469437.463486,2573,2880,ɔ
1789469437.4636118,2389,2879,ɔ
1789469437.46765,2093,2879,ɔ
1789469437.467784,2323,2879,ɔ
1789469437.470554,2129,2879,ɔ
1789469437.473314,1737,2877,ɔ
1789469437.473453,1794,2878,ɔ
1789469437.476031,2274,2878,ɔ
1789469437.4773371,2239,2880,ɔ
1789469437.479977,2032,2879,ɔ
1789469437.482311,1989,2879,ɔ
1789469437.4835908,2106,2880,ɔ
1789469437.485302,2011,2879,ɔ
1789469437.48785,1815,2877,ɔ
1789469437.4901912,1677,2878,ɔ
1789469437.491252,2116,2880,ɔ
1789469437.493365,2370,2881,ɔ
1789469437.4956858,2086,2880,ɔ
1789469437.498252,1867,2878,ɔ
1789469437.499557,1946,2879,ɔ
1789469437.501931,2137,2880,ɔ
1789469437.504071,1907,2878,ɔ
1789469437.505462,1681,2880,ɔ
1789469437.5078201,2000,2879,ɔ
1789469437.50995,2058,2879,ɔ
1789469437.5172648,1921,2878,ɔ
1789469437.517344,2152,2878,ɔ
1789469437.517529,1918,2879,ɔ
1789469437.521885,2171,2879,ɔ
1789469437.52386,2048,2879,ɔ
1789469437.524603,1814,2877,ɔ
1789469437.5258582,1941,2878,ɔ
1789469437.528043,1999,2879,ɔ
1789469437.52822,1942,2878,ɔ
1789469437.531328,2004,2879,ɔ
1789469437.531471,1888,2879,ɔ
1789469437.534985,2082,2880,ɔ
1789469437.536268,1920,2879,ɔ
1789469437.5374231,1660,2878,ɔ
1789469437.540599,1776,2878,ɔ
1789469437.547889,2061,2879,ɔ
1789469437.557792,1944,2878,ɔ
1789469437.5603552,1723,2878,ɔ
1789469437.562635,1518,2875,ɔ
1789469437.566609,1543,2878,ɔ
1789469437.566734,1800,2878,ɔ
1789469437.566817,1750,2877,ɔ
1789469437.566883,1749,2877,ɔ
1789469437.5671098,1966,2878,ɔ
1789469437.567358,2014,2879,ɔ
1789469437.5675468,1869,2877,ɔ
1789469437.5697138,1847,2878,ɔ
1789469437.570567,1805,2878,ɔ
1789469437.5709178,1872,2879,ɔ
1789469437.571639,1844,2877,ɔ
1789469437.571734,1698,2877,ɔ
1789469437.574365,1714,2878,ɔ
1789469437.575489,2002,2878,ɔ
1789469437.57785,2158,2878,ɔ
1789469437.5792818,1812,2877,ɔ
1789469437.581835,1804,2878,ɔ
1789469437.584304,1823,2879,ɔ
1789469437.585473,1858,2878,ɔ
1789469437.5880299,1674,2877,ɔ
1789469437.589628,1876,2878,ɔ
1789469437.592223,2045,2879,ɔ
1789469437.5935712,2002,2879,ɔ
1789469437.596342,1897,2877,ɔ
1789469437.5977879,1782,2879,ɔ
1789469437.599231,1803,2878,ɔ
1789469437.6016629,2012,2879,ɔ
1789469437.604224,1898,2878,ɔ
1789469437.605568,1693,2877,ɔ
1789469437.608178,1814,2878,ɔ
1789469437.6096928,1984,2878,ɔ
1789469437.612204,2001,2879,ɔ
1789469437.6135838,1943,2880,ɔ
1789469437.620942,1831,2878,ɔ
1789469437.6227798,2047,2878,ɔ
1789469437.624604,2013,2880,ɔ
1789469437.624733,1691,2878,ɔ
1789469437.6280918,1873,2879,ɔ
1789469437.630495,2147,2878,ɔ
1789469437.6331892,2064,2878,ɔ
1789469437.633395,1947,2880,ɔ
1789469437.636359,2052,2878,ɔ
1789469437.6365771,1982,2879,ɔ
1789469437.6367922,2079,2878,ɔ
1789469437.6395562,1837,2878,ɔ
1789469437.639893,1994,2879,ɔ
1789469437.642239,1834,2879,ɔ
1789469437.6433191,2062,2879,ɔ
1789469437.6500921,2207,2880,ɔ
1789469437.650198,2170,2879,ɔ
1789469437.650817,2121,2880,ɔ
1789469437.6523478,2085,2879,ɔ
1789469437.654467,1797,2878,ɔ
1789469437.657063,1720,2879,ɔ
1789469437.6572852,2088,2878,ɔ
1789469437.661061,2107,2879,ɔ
1789469437.6636832,2078,2877,ɔ
1789469437.663837,1966,2880,ɔ
1789469437.666353,1914,2878,ɔ
1789469437.667549,2057,2879,ɔ
1789469437.669873,2153,2879,ɔ
1789469437.6712499,2180,2877,ɔ
1789469437.673822,1807,2878,ɔ
1789469437.675196,2097,2879,ɔ
1789469437.6772978,2352,2880,ɔ
1789469437.679376,2094,2879,ɔ
1789469437.681489,1945,2879,ɔ
1789469437.6840498,1975,2880,ɔ
1789469437.6851819,2166,2879,ɔ
1789469437.6877482,1748,2878,ɔ
1789469437.6900768,2232,2879,ɔ
1789469437.691144,2204,2879,ɔ
1789469437.693689,2171,2879,ɔ
1789469437.696257,1970,2878,ɔ
1789469437.697313,2071,2880,ɔ
1789469437.699628,2008,2878,ɔ
1789469437.707156,2148,2879,ɔ
1789469437.711234,2018,2880,ɔ
1789469437.711425,1887,2878,ɔ
1789469437.711744,2123,2879,ɔ
1789469437.7136,2297,2880,ɔ
1789469437.7140758,2143,2878,ɔ
1789469437.7147148,2017,2879,ɔ
1789469437.716334,1896,2879,ɔ
1789469437.721184,2116,2878,ɔ
1789469437.721925,1905,2879,ɔ
1789469437.7262652,1803,2877,ɔ
1789469437.7264042,1919,2878,ɔ
1789469437.726451,2076,2879,ɔ
1789469437.727906,1977,2880,ɔ
1789469437.729404,2060,2880,ɔ
1789469437.7379131,1894,2879,ɔ
1789469437.739546,2039,2878,ɔ
1789469437.739688,2127,2879,ɔ
1789469437.741109,1993,2878,ɔ
1789469437.741405,1899,2878,ɔ
1789469437.7416608,2035,2880,ɔ
1789469437.743691,2147,2879,ɔ
1789469437.7456,1970,2878,ɔ
1789469437.748151,2098,2879,ɔ
1789469437.750894,2037,2879,ɔ
1789469437.751232,2138,2879,ɔ
1789469437.753549,2010,2880,ɔ
1789469437.755677,1741,2878,ɔ
1789469437.7570791,1968,2879,ɔ
1789469437.7594051,2190,2880,ɔ
1789469437.7619698,2086,2877,ɔ
1789469437.763298,1948,2879,ɔ
1789469437.765627,1911,2878,ɔ
1789469437.7679849,2077,2878,ɔ
1789469437.7691362,1914,2879,ɔ
1789469437.7717068,1535,2878,ɔ
1789469437.773922,1928,2878,ɔ
1789469437.775222,2243,2880,ɔ
1789469437.7777789,2181,2879,ɔ
1789469437.780103,2288,2881,ɔ
1789469437.781404,2151,2880,ɔ
1789469437.783722,2096,2878,ɔ
1789469437.786019,2068,2879,ɔ
1789469437.787084,1688,2877,ɔ
1789469437.78956,1735,2877,ɔ
1789469437.79546,2047,2879,ɔ
1789469437.7968829,2110,2878,ɔ
1789469437.7984462,1972,2879,ɔ
1789469437.798645,1867,2878,ɔ
1789469437.801475,1895,2878,ɔ
1789469437.801634,2209,2879,ɔ
1789469437.803555,2066,2880,ɔ
1789469437.80838,1960,2879,ɔ
1789469437.841123,1930,2880,ɔ
1789469437.841184,1988,2879,ɔ
1789469437.841224,1977,2878,ɔ
1789469437.841263,1962,2880,ɔ
1789469437.841325,2066,2878,ɔ
1789469437.841364,2276,2879,ɔ
1789469437.8414001,2027,2878,ɔ
1789469437.8414369,1497,2878,ɔ
1789469437.841474,1846,2878,ɔ
1789469437.841511,2305,2880,ɔ
1789469437.841548,2416,2882,ɔ
1789469437.841585,2074,2879,ɔ
1789469437.841621,1939,2879,ɔ
1789469437.841658,2032,2879,ɔ
1789469437.8440661,2123,2878,ɔ
1789469437.846273,1912,2878,ɔ
1789469437.846324,2016,2880,ɔ
1789469437.846366,2230,2878,ɔ
1789469437.846476,2139,2879,ɔ
1789469437.846528,1890,2877,ɔ
1789469437.856071,1909,2878,ɔ
1789469437.8562298,1957,2879,ɔ
1789469437.8565178,2055,2878,ɔ
1789469437.8566139,1887,2876,ɔ
1789469437.8566568,1764,2877,ɔ
1789469437.857735,1847,2879,ɔ
1789469437.859055,2142,2878,ɔ
1789469437.865033,2130,2879,ɔ
1789469437.865082,2120,2880,ɔ
1789469437.8651252,2080,2879,ɔ
1789469437.870085,2136,2880,ɔ
1789469437.870133,1975,2880,ɔ
1789469437.871514,1979,2877,ɔ
1789469437.8741271,1982,2879,ɔ
1789469437.875202,2158,2879,ɔ
1789469437.877291,2210,2879,ɔ
1789469437.879797,2052,2880,ɔ
1789469437.886346,1762,2879,ɔ
1789469437.8870988,1947,2879,ɔ
1789469437.888875,2114,2879,ɔ
1789469437.890582,2038,2877,ɔ
1789469437.890972,1904,2878,ɔ
1789469437.8911119,2099,2879,ɔ
1789469437.894557,2185,2878,ɔ
1789469437.896053,2034,2880,ɔ
1789469437.89837,2081,2879,ɔ
1789469437.9014971,2076,2879,ɔ
1789469437.901678,1915,2879,ɔ
1789469437.904475,1736,2878,ɔ
1789469437.905966,1981,2879,ɔ
1789469437.907037,2201,2879,ɔ
1789469437.913768,2333,2879,ɔ
1789469437.9143271,2198,2881,ɔ
1789469437.9158258,2039,2878,ɔ
1789469437.917716,2029,2879,ɔ
1789469437.9179819,2109,2879,ɔ
1789469437.920455,2072,2880,ɔ
1789469437.9222798,1840,2878,ɔ
1789469437.9280179,1886,2879,ɔ
1789469437.9284952,2024,2880,ɔ
1789469437.930926,2100,2877,ɔ
1789469437.931746,2048,2880,ɔ
1789469437.931802,1943,2878,ɔ
1789469437.93312,2176,2879,ɔ
1789469437.9357498,2230,2879,ɔ
1789469437.937098,1931,2877,ɔ
1789469437.939231,1830,2879,ɔ
1789469437.941517,1970,2879,ɔ
1789469437.944108,2204,2878,ɔ
1789469437.9454238,2136,2880,ɔ
1789469437.947762,1964,2878,ɔ
1789469437.9490821,2033,2879,ɔ
1789469437.951412,2327,2879,ɔ
1789469437.953988,2034,2879,ɔ
1789469437.955347,1881,2879,ɔ
1789469437.957682,1963,2879,ɔ
1789469437.959782,2128,2879,ɔ
1789469437.9611032,2236,2879,ɔ
1789469437.963425,2025,2879,ɔ
1789469437.965989,2092,2878,ɔ
1789469437.967294,2061,2879,ɔ
1789469437.969553,2070,2879,ɔ
1789469437.972256,1806,2877,ɔ
1789469437.974668,1924,2879,ɔ
1789469437.976754,2161,2880,ɔ
1789469437.979052,2242,2879,ɔ
1789469437.979297,2021,2880,ɔ
1789469437.9822001,1898,2878,ɔ
1789469437.985566,2010,2878,ɔ
1789469437.985885,2081,2879,ɔ
1789469437.988941,1921,2877,ɔ
1789469437.989237,1994,2879,ɔ
1789469437.9916658,2084,2880,ɔ
1789469437.993053,2331,2878,ɔ
1789469437.995394,2245,2880,ɔ
1789469438.0004501,1908,2879,ɔ
1789469438.0009909,1934,2878,ɔ
1789469438.001529,2183,2879,ɔ
1789469438.003969,1983,2879,ɔ
1789469438.006283,1956,2879,ɔ
1789469438.007992,2048,2879,ɔ
1789469438.010428,2097,2879,ɔ
1789469438.013263,2138,2878,ɔ
1789469438.013569,2071,2880,ɔ
1789469438.015876,1981,2878,ɔ
1789469438.017201,2131,2880,ɔ
1789469438.019532,2056,2878,ɔ
1789469438.0216289,1918,2877,ɔ
