timestamp,ch1,ch2,label
1789469446.404743,2070,2879,ɔ_S
1789469446.40703,2205,2879,ɔ_S
1789469446.407524,2063,2880,ɔ_S
1789469446.409322,1978,2879,ɔ_S
1789469446.412079,2106,2879,ɔ_S
1789469446.413988,2185,2878,ɔ_S
1789469446.416221,2120,2878,ɔ_S
1789469446.417515,2011,2880,ɔ_S
1789469446.420062,1964,2878,ɔ_S
1789469446.4211268,2117,2878,ɔ_S
1789469446.423428,2087,2880,ɔ_S
1789469446.4257228,1977,2877,ɔ_S
1789469446.4270139,2005,2879,ɔ_S
1789469446.429538,2145,2879,ɔ_S
1789469446.431645,2200,2878,ɔ_S
1789469446.4337778,2135,2880,ɔ_S
1789469446.435067,2045,2879,ɔ_S
1789469446.437608,2078,2879,ɔ_S
1789469446.440054,2068,2879,ɔ_S
1789469446.441101,1979,2878,ɔ_S
1789469446.4432871,2005,2878,ɔ_S
1789469446.447677,2098,2878,ɔ_S
1789469446.447788,2167,2878,ɔ_S
1789469446.449892,2107,2879,ɔ_S
1789469446.4516742,2026,2879,ɔ_S
1789469446.454251,2071,2878,ɔ_S
1789469446.4569001,2098,2879,ɔ_S
1789469446.45696,1952,2877,ɔ_S
1789469446.459092,1964,2878,ɔ_S
1789469446.461196,2107,2880,ɔ_S
1789469446.463532,2207,2878,ɔ_S
1789469446.4658382,2157,2881,ɔ_S
1789469446.467127,2046,2878,ɔ_S
1789469446.469673,2052,2879,ɔ_S
1789469446.471833,2191,2879,ɔ_S
1789469446.4731169,2079,2879,ɔ_S
1789469446.475181,1965,2878,ɔ_S
1789469446.47728,2029,2880,ɔ_S
1789469446.479827,2146,2878,ɔ_S
1789469446.4811132,2184,2878,ɔ_S
1789469446.4832342,2137,2880,ɔ_S
1789469446.48797,2108,2878,ɔ_S
1789469446.489138,2141,2879,ɔ_S
1789469446.49053,2148,2879,ɔ_S
1789469446.4924219,1981,2877,ɔ_S
1789469446.495232,1951,2878,ɔ_S
1789469446.495353,2087,2878,ɔ_S
1789469446.497699,2167,2878,ɔ_S
1789469446.498985,2138,2878,ɔ_S
1789469446.501529,2038,2879,ɔ_S
1789469446.503844,2028,2878,ɔ_S
1789469446.5049632,2164,2878,ɔ_S
1789469446.507513,2033,2880,ɔ_S
1789469446.509824,1867,2879,ɔ_S
1789469446.5109499,2012,2879,ɔ_S
1789469446.513249,2224,2879,ɔ_S
1789469446.51555,2192,2881,ɔ_S
1789469446.51809,2091,2879,ɔ_S
1789469446.5193741,2031,2879,ɔ_S
1789469446.521743,2117,2878,ɔ_S
1789469446.523027,2077,2880,ɔ_S
1789469446.529705,1983,2877,ɔ_S
1789469446.529792,1977,2878,ɔ_S
1789469446.530139,2152,2879,ɔ_S
1789469446.533209,2185,2878,ɔ_S
1789469446.533664,2109,2881,ɔ_S
1789469446.535954,2038,2880,ɔ_S
1789469446.5383942,2088,2879,ɔ_S
1789469446.5396879,2128,2880,ɔ_S
1789469446.541007,1977,2878,ɔ_S
1789469446.543562,2004,2878,ɔ_S
1789469446.544954,2136,2879,ɔ_S
1789469446.547194,2190,2879,ɔ_S
1789469446.5494888,2142,2878,ɔ_S
1789469446.551788,2027,2877,ɔ_S
1789469446.552983,2067,2878,ɔ_S
1789469446.555286,2181,2879,ɔ_S
1789469446.5578408,2037,2880,ɔ_S
1789469446.5591302,1934,2878,ɔ_S
1789469446.561673,2001,2879,ɔ_S
1789469446.562996,2136,2879,ɔ_S
1789469446.568681,2170,2880,ɔ_S
1789469446.5695481,2033,2881,ɔ_S
1789469446.5706592,1993,2878,ɔ_S
1789469446.572188,2086,2879,ɔ_S
1789469446.573657,2087,2880,ɔ_S
1789469446.575506,2002,2878,ɔ_S
1789469446.577826,2041,2879,ɔ_S
1789469446.5791109,2167,2878,ɔ_S
1789469446.5811672,2219,2878,ɔ_S
1789469446.5834649,2110,2879,ɔ_S
1789469446.585891,2049,2879,ɔ_S
1789469446.587181,2115,2879,ɔ_S
1789469446.589483,2160,2877,ɔ_S
1789469446.591915,1960,2878,ɔ_S
1789469446.5932002,1982,2878,ɔ_S
1789469446.5955992,2095,2880,ɔ_S
1789469446.596946,2153,2878,ɔ_S
1789469446.5990028,2162,2880,ɔ_S
1789469446.601543,2042,2879,ɔ_S
1789469446.603627,2134,2878,ɔ_S
1789469446.6049678,2199,2879,ɔ_S
1789469446.6090739,1945,2877,ɔ_S
1789469446.610092,1845,2878,ɔ_S
1789469446.612583,1940,2878,ɔ_S
1789469446.6143548,2100,2878,ɔ_S
1789469446.616257,2169,2880,ɔ_S
1789469446.617673,2146,2879,ɔ_S
1789469446.618973,2077,2878,ɔ_S
1789469446.621523,2216,2879,ɔ_S
1789469446.624073,2155,2881,ɔ_S
1789469446.625362,1981,2877,ɔ_S
1789469446.627834,2014,2879,ɔ_S
1789469446.629118,2184,2880,ɔ_S
1789469446.6314108,2240,2878,ɔ_S
1789469446.633706,2159,2879,ɔ_S
1789469446.63499,2073,2879,ɔ_S
1789469446.637537,2167,2878,ɔ_S
1789469446.640085,2208,2878,ɔ_S
1789469446.6411352,1995,2879,ɔ_S
1789469446.643913,1943,2878,ɔ_S
1789469446.647392,2108,2879,ɔ_S
1789469446.6474922,2224,2878,ɔ_S
1789469446.650822,2140,2880,ɔ_S
1789469446.653408,2008,2878,ɔ_S
1789469446.654207,2081,2878,ɔ_S
1789469446.655977,2208,2879,ɔ_S
1789469446.6572,2014,2879,ɔ_S
1789469446.6595788,1905,2879,ɔ_S
1789469446.660942,2040,2879,ɔ_S
1789469446.663258,2203,2879,ɔ_S
1789469446.665806,2178,2880,ɔ_S
1789469446.667095,2081,2880,ɔ_S
1789469446.6694038,2010,2879,ɔ_S
1789469446.671714,2148,2879,ɔ_S
1789469446.673002,2085,2880,ɔ_S
1789469446.675303,1923,2877,ɔ_S
1789469446.6778471,1965,2879,ɔ_S
1789469446.679133,2137,2878,ɔ_S
1789469446.681675,2196,2878,ɔ_S
1789469446.6863208,2125,2880,ɔ_S
1789469446.687078,2032,2878,ɔ_S
1789469446.688378,2073,2878,ɔ_S
1789469446.690014,2149,2879,ɔ_S
1789469446.6935208,1986,2877,ɔ_S
1789469446.693663,1926,2879,ɔ_S
1789469446.695492,2064,2880,ɔ_S
1789469446.697811,2199,2879,ɔ_S
1789469446.698945,2130,2880,ɔ_S
1789469446.7012491,2008,2879,ɔ_S
1789469446.703561,1987,2879,ɔ_S
1789469446.7049432,2151,2879,ɔ_S
1789469446.707257,1978,2880,ɔ_S
1789469446.709806,1876,2879,ɔ_S
1789469446.710967,2002,2879,ɔ_S
1789469446.713024,2150,2878,ɔ_S
1789469446.7155662,2149,2878,ɔ_S
1789469446.717917,2080,2880,ɔ_S
1789469446.719208,2013,2879,ɔ_S
1789469446.721578,2173,2880,ɔ_S
1789469446.726016,2111,2879,ɔ_S
1789469446.726462,1942,2878,ɔ_S
1789469446.72836,1964,2878,ɔ_S
1789469446.729722,2187,2880,ɔ_S
1789469446.7310798,2250,2879,ɔ_S
1789469446.734984,2113,2879,ɔ_S
1789469446.735321,2005,2879,ɔ_S
1789469446.737876,2049,2878,ɔ_S
1789469446.739176,2121,2879,ɔ_S
1789469446.741492,1942,2877,ɔ_S
1789469446.746669,1929,2879,ɔ_S
1789469446.746764,2085,2878,ɔ_S
1789469446.748497,2212,2878,ɔ_S
1789469446.750047,2127,2882,ɔ_S
1789469446.752647,1985,2879,ɔ_S
1789469446.753778,1929,2878,ɔ_S
1789469446.755115,2045,2879,ɔ_S
1789469446.757677,1991,2879,ɔ_S
1789469446.7589,1939,2878,ɔ_S
1789469446.761452,2061,2879,ɔ_S
1789469446.7639942,2225,2878,ɔ_S
1789469446.76528,2182,2881,ɔ_S
1789469446.767584,2016,2879,ɔ_S
1789469446.768872,1977,2878,ɔ_S
1789469446.771415,2102,2879,ɔ_S
1789469446.7735648,2079,2880,ɔ_S
1789469446.775886,1964,2878,ɔ_S
1789469446.7771719,2043,2879,ɔ_S
1789469446.779712,2180,2879,ɔ_S
1789469446.781172,2240,2880,ɔ_S
1789469446.784748,2107,2880,ɔ_S
1789469446.786607,1975,2879,ɔ_S
1789469446.7888262,2100,2879,ɔ_S
1789469446.7909849,2130,2878,ɔ_S
1789469446.791994,1983,2879,ɔ_S
1789469446.793769,1961,2878,ɔ_S
1789469446.7950609,2088,2879,ɔ_S
1789469446.797607,2206,2879,ɔ_S
1789469446.79986,2158,2879,ɔ_S
1789469446.801151,2024,2879,ɔ_S
1789469446.803693,2012,2878,ɔ_S
1789469446.804854,2168,2879,ɔ_S
1789469446.8071501,2060,2880,ɔ_S
1789469446.8094451,1951,2879,ɔ_S
1789469446.810835,2044,2880,ɔ_S
1789469446.813379,2187,2879,ɔ_S
1789469446.8159208,2193,2881,ɔ_S
1789469446.817207,2106,2879,ɔ_S
1789469446.819637,2051,2878,ɔ_S
1789469446.823322,2127,2879,ɔ_S
1789469446.823712,2069,2880,ɔ_S
1789469446.825475,1932,2878,ɔ_S
1789469446.827153,1952,2879,ɔ_S
1789469446.8298051,2139,2879,ɔ_S
1789469446.832574,2184,2879,ɔ_S
1789469446.833868,2160,2879,ɔ_S
1789469446.834912,2061,2880,ɔ_S
1789469446.837343,2080,2879,ɔ_S
1789469446.8398101,2173,2879,ɔ_S
1789469446.8411012,2041,2877,ɔ_S
1789469446.843644,1974,2877,ɔ_S
1789469446.844935,2070,2880,ɔ_S
1789469446.8474848,2194,2880,ɔ_S
1789469446.849801,2137,2879,ɔ_S
1789469446.850843,2007,2879,ɔ_S
1789469446.8529139,2017,2879,ɔ_S
1789469446.855472,2136,2879,ɔ_S
1789469446.856831,2029,2880,ɔ_S
1789469446.858895,1965,2879,ɔ_S
1789469446.864429,2067,2879,ɔ_S
1789469446.865304,2206,2878,ɔ_S
1789469446.8657632,2184,2881,ɔ_S
1789469446.867112,2097,2878,ɔ_S
1789469446.870094,2053,2878,ɔ_S
1789469446.871552,2150,2879,ɔ_S
1789469446.874162,2136,2879,ɔ_S
1789469446.875273,1939,2878,ɔ_S
1789469446.877593,1965,2879,ɔ_S
1789469446.8799071,2111,2879,ɔ_S
1789469446.880956,2115,2877,ɔ_S
1789469446.883271,2112,2880,ɔ_S
1789469446.885653,2103,2879,ɔ_S
1789469446.887713,2100,2878,ɔ_S
1789469446.8889759,2161,2879,ɔ_S
1789469446.891041,1998,2877,ɔ_S
1789469446.893348,1968,2879,ɔ_S
1789469446.895659,2124,2879,ɔ_S
1789469446.897999,2231,2879,ɔ_S
1789469446.899043,2146,2879,ɔ_S
1789469446.901214,2021,2879,ɔ_S
1789469446.9035149,1990,2879,ɔ_S
1789469446.908452,2131,2879,ɔ_S
1789469446.908931,2044,2879,ɔ_S
1789469446.909305,1911,2878,ɔ_S
1789469446.91206,2045,2878,ɔ_S
1789469446.913596,2119,2879,ɔ_S
1789469446.915272,2176,2877,ɔ_S
1789469446.918237,2110,2881,ɔ_S
1789469446.9195368,2049,2878,ɔ_S
1789469446.92083,2077,2880,ɔ_S
1789469446.9233768,2095,2880,ɔ_S
1789469446.925856,1993,2878,ɔ_S
1789469446.927145,2030,2879,ɔ_S
1789469446.929327,2163,2880,ɔ_S
1789469446.9319308,2213,2879,ɔ_S
1789469446.932986,2099,2880,ɔ_S
1789469446.935362,2036,2879,ɔ_S
1789469446.937428,2087,2877,ɔ_S
1789469446.939978,2118,2878,ɔ_S
1789469446.941034,1968,2878,ɔ_S
1789469446.943344,1961,2879,ɔ_S
1789469446.945782,2051,2879,ɔ_S
1789469446.949547,2171,2879,ɔ_S
1789469446.950021,2132,2879,ɔ_S
1789469446.95198,1974,2878,ɔ_S
1789469446.9533749,2012,2879,ɔ_S
1789469446.954963,2095,2879,ɔ_S
1789469446.957824,2036,2880,ɔ_S
1789469446.959369,1960,2878,ɔ_S
1789469446.961921,2087,2880,ɔ_S
1789469446.962968,2203,2878,ɔ_S
1789469446.9650402,2104,2877,ɔ_S
1789469446.9675882,2053,2879,ɔ_S
1789469446.969894,2255,2880,ɔ_S
1789469446.9709399,2279,2878,ɔ_S
1789469446.9732502,2143,2879,ɔ_S
1789469446.9757938,1769,2877,ɔ_S
1789469446.977086,1909,2880,ɔ_S
1789469446.979635,2213,2879,ɔ_S
1789469446.980841,2297,2881,ɔ_S
1789469446.9831538,2125,2880,ɔ_S
1789469446.9856992,1854,2879,ɔ_S
1789469446.9868522,1958,2879,ɔ_S
1789469446.9909189,2181,2880,ɔ_S
1789469446.9913301,2140,2880,ɔ_S
1789469446.9933891,2073,2879,ɔ_S
1789469446.995699,2057,2880,ɔ_S
1789469446.999358,2144,2879,ɔ_S
1789469446.9995189,2200,2881,ɔ_S
1789469447.0010781,2253,2880,ɔ_S
1789469447.003406,2063,2878,ɔ_S
1789469447.0059578,2087,2878,ɔ_S
1789469447.0070112,2003,2879,ɔ_S
1789469447.009321,1983,2878,ɔ_S
1789469447.01156,2158,2878,ɔ_S
1789469447.01387,2078,2878,ɔ_S
1789469447.015157,1804,2877,ɔ_S
1789469447.017704,2149,2878,ɔ_S
1789469447.0189939,2130,2879,ɔ_S
1789469447.021301,1980,2877,ɔ_S
1789469447.023434,1950,2879,ɔ_S
1789469447.024835,1694,2877,ɔ_S
1789469447.02707,1796,2878,ɔ_S
1789469447.029415,2443,2880,ɔ_S
1789469447.0331829,2745,2881,ɔ_S
1789469447.0332952,2499,2881,ɔ_S
1789469447.035434,1746,2879,ɔ_S
1789469447.03832,1932,2878,ɔ_S
1789469447.040086,2374,2881,ɔ_S
1789469447.041559,2107,2878,ɔ_S
1789469447.043585,1612,2878,ɔ_S
1789469447.044886,1677,2879,ɔ_S
1789469447.046943,1764,2879,ɔ_S
1789469447.049393,1977,2877,ɔ_S
1789469447.0519419,2039,2878,ɔ_S
1789469447.053131,2168,2879,ɔ_S
1789469447.0556748,2270,2881,ɔ_S
1789469447.0577338,1994,2877,ɔ_S
1789469447.058825,2143,2879,ɔ_S
1789469447.061376,2315,2880,ɔ_S
1789469447.0634382,2313,2879,ɔ_S
1789469447.0660028,2194,2880,ɔ_S
1789469447.0670469,1953,2880,ɔ_S
1789469447.06959,1689,2876,ɔ_S
1789469447.070845,2006,2879,ɔ_S
1789469447.075298,2293,2880,ɔ_S
1789469447.075455,2088,2878,ɔ_S
1789469447.077149,1887,2879,ɔ_S
1789469447.080298,1934,2878,ɔ_S
1789469447.081541,1953,2877,ɔ_S
1789469447.083029,1884,2878,ɔ_S
1789469447.085838,1925,2878,ɔ_S
1789469447.086973,1889,2879,ɔ_S
1789469447.089522,2277,2879,ɔ_S
1789469447.091826,1843,2875,ɔ_S
1789469447.093007,1679,2878,ɔ_S
1789469447.095552,1896,2880,ɔ_S
1789469447.097855,2118,2879,ɔ_S
1789469447.099143,2505,2881,ɔ_S
1789469447.101438,2194,2880,ɔ_S
1789469447.103646,1915,2878,ɔ_S
1789469447.104935,1934,2879,ɔ_S
1789469447.10723,1847,2878,ɔ_S
1789469447.109588,1949,2878,ɔ_S
1789469447.110877,2182,2879,ɔ_S
1789469447.116529,2193,2878,ɔ_S
1789469447.117236,1720,2878,ɔ_S
1789469447.118405,1980,2879,ɔ_S
1789469447.120163,2184,2879,ɔ_S
1789469447.1230621,2319,2880,ɔ_S
1789469447.123213,1912,2880,ɔ_S
1789469447.1265962,1842,2879,ɔ_S
1789469447.1276429,1778,2878,ɔ_S
1789469447.129739,2140,2879,ɔ_S
1789469447.131029,2362,2881,ɔ_S
1789469447.1333618,2279,2880,ɔ_S
1789469447.135912,1812,2879,ɔ_S
1789469447.1372092,1876,2879,ɔ_S
1789469447.139762,2036,2879,ɔ_S
1789469447.140813,1889,2876,ɔ_S
1789469447.143119,1721,2880,ɔ_S
1789469447.1456661,1680,2878,ɔ_S
1789469447.147991,1623,2879,ɔ_S
1789469447.149229,1657,2876,ɔ_S
1789469447.151538,1667,2876,ɔ_S
1789469447.1538439,1739,2879,ɔ_S
1789469447.158261,1774,2880,ɔ_S
1789469447.1586828,1498,2877,ɔ_S
1789469447.1603682,1635,2878,ɔ_S
1789469447.162312,1921,2879,ɔ_S
1789469447.164198,2157,2878,ɔ_S
1789469447.1672902,2088,2878,ɔ_S
1789469447.1675122,1865,2879,ɔ_S
1789469447.1695669,1950,2878,ɔ_S
1789469447.1709929,2056,2879,ɔ_S
1789469447.1735659,1962,2879,ɔ_S
1789469447.174874,1819,2877,ɔ_S
1789469447.176957,1853,2879,ɔ_S
1789469447.179276,2193,2878,ɔ_S
1789469447.181584,2300,2881,ɔ_S
1789469447.1828759,1814,2878,ɔ_S
1789469447.1854231,1893,2879,ɔ_S
1789469447.187732,1993,2878,ɔ_S
1789469447.1889122,2098,2879,ɔ_S
1789469447.191457,2017,2877,ɔ_S
1789469447.1936681,2005,2879,ɔ_S
1789469447.194826,2190,2880,ɔ_S
1789469447.197143,2170,2878,ɔ_S
1789469447.2022789,2042,2878,ɔ_S
1789469447.203043,2069,2879,ɔ_S
1789469447.203476,2207,2879,ɔ_S
1789469447.20493,1989,2878,ɔ_S
1789469447.2077692,2049,2880,ɔ_S
1789469447.209676,1866,2877,ɔ_S
1789469447.211513,1913,2879,ɔ_S
1789469447.213155,2116,2879,ɔ_S
1789469447.215499,2292,2881,ɔ_S
1789469447.21781,2232,2880,ɔ_S
1789469447.219105,2123,2880,ɔ_S
1789469447.22141,2169,2880,ɔ_S
1789469447.223959,2169,2880,ɔ_S
1789469447.2250218,2178,2878,ɔ_S
1789469447.2273438,2292,2879,ɔ_S
1789469447.229801,2149,2879,ɔ_S
1789469447.231097,2190,2879,ɔ_S
1789469447.233654,2131,2879,ɔ_S
1789469447.234889,2048,2880,ɔ_S
1789469447.2369652,2071,2879,ɔ_S
1789469447.239268,2178,2879,ɔ_S
1789469447.2416902,2050,2880,ɔ_S
1789469447.246631,1943,2878,ɔ_S
1789469447.246772,2127,2880,ɔ_S
1789469447.247278,2198,2880,ɔ_S
1789469447.2492852,2165,2881,ɔ_S
1789469447.252516,2046,2879,ɔ_S
1789469447.2541099,2003,2879,ɔ_S
1789469447.255948,2180,2879,ɔ_S
1789469447.257636,2299,2880,ɔ_S
1789469447.25895,1941,2878,ɔ_S
1789469447.26128,2007,2881,ɔ_S
1789469447.2638662,2196,2878,ɔ_S
1789469447.2651641,2298,2881,ɔ_S
1789469447.267466,2165,2880,ɔ_S
1789469447.269742,2019,2879,ɔ_S
1789469447.271032,2172,2880,ɔ_S
1789469447.273578,2191,2881,ɔ_S
1789469447.2747788,1892,2879,ɔ_S
1789469447.2770822,1950,2878,ɔ_S
1789469447.279391,2245,2879,ɔ_S
1789469447.281853,2145,2878,ɔ_S
1789469447.282911,2159,2880,ɔ_S
1789469447.285219,2126,2878,ɔ_S
1789469447.2908318,2076,2878,ɔ_S
1789469447.291626,2457,2880,ɔ_S
1789469447.292036,2075,2880,ɔ_S
1789469447.293612,1768,2879,ɔ_S
1789469447.295437,2192,2881,ɔ_S
1789469447.297342,2103,2879,ɔ_S
1789469447.3005068,2078,2878,ɔ_S
1789469447.302148,2130,2880,ɔ_S
1789469447.303452,1863,2879,ɔ_S
1789469447.30577,1957,2878,ɔ_S
1789469447.3068259,2238,2880,ɔ_S
1789469447.309132,2053,2877,ɔ_S
1789469447.311682,2112,2878,ɔ_S
1789469447.312972,2136,2879,ɔ_S
1789469447.315517,2248,2880,ɔ_S
1789469447.317833,2080,2878,ɔ_S
1789469447.319127,2086,2879,ɔ_S
1789469447.321675,2077,2879,ɔ_S
1789469447.322727,2016,2878,ɔ_S
1789469447.325191,1909,2877,ɔ_S
1789469447.327241,1898,2879,ɔ_S
1789469447.329788,2185,2879,ɔ_S
1789469447.331079,1931,2879,ɔ_S
1789469447.335159,1869,2877,ɔ_S
1789469447.335946,1950,2879,ɔ_S
1789469447.3379462,1996,2878,ɔ_S
1789469447.339435,2003,2878,ɔ_S
1789469447.341295,1852,2878,ɔ_S
1789469447.342937,1840,2878,ɔ_S
1789469447.344987,1909,2878,ɔ_S
1789469447.347842,2135,2879,ɔ_S
1789469447.3491359,2094,2877,ɔ_S
1789469447.351448,1750,2875,ɔ_S
1789469447.3538299,1988,2879,ɔ_S
1789469447.355124,2277,2880,ɔ_S
1789469447.35725,2060,2879,ɔ_S
1789469447.359566,1966,2877,ɔ_S
1789469447.360862,2022,2879,ɔ_S
1789469447.363171,2177,2879,ɔ_S
1789469447.36529,2159,2880,ɔ_S
1789469447.367599,1944,2877,ɔ_S
1789469447.368889,1952,2879,ɔ_S
1789469447.3709922,2070,2879,ɔ_S
1789469447.37306,2108,2879,ɔ_S
1789469447.375372,1819,2877,ɔ_S
1789469447.3767219,1806,2878,ɔ_S
1789469447.382577,2052,2879,ɔ_S
1789469447.3833542,2136,2878,ɔ_S
1789469447.383832,2130,2880,ɔ_S
1789469447.385418,2035,2880,ɔ_S
1789469447.387226,2092,2879,ɔ_S
1789469447.390197,2119,2879,ɔ_S
1789469447.3922539,1981,2880,ɔ_S
1789469447.3943381,1817,2877,ɔ_S
1789469447.395396,2012,2878,ɔ_S
1789469447.396747,2108,2878,ɔ_S
1789469447.399056,2065,2878,ɔ_S
1789469447.404505,1979,2879,ɔ_S
1789469447.404972,1956,2879,ɔ_S
1789469447.405348,1992,2878,ɔ_S
1789469447.406784,1955,2878,ɔ_S
1789469447.4094038,1836,2878,ɔ_S
1789469447.411453,1834,2879,ɔ_S
1789469447.413528,2049,2880,ɔ_S
1789469447.415497,2192,2878,ɔ_S
1789469447.417572,2104,2881,ɔ_S
1789469447.4198852,1993,2879,ɔ_S
1789469447.42118,2000,2878,ɔ_S
1789469447.423726,2089,2879,ɔ_S
1789469447.424783,1917,2877,ɔ_S
1789469447.426848,1874,2879,ɔ_S
1789469447.429156,2041,2879,ɔ_S
1789469447.431212,2137,2880,ɔ_S
1789469447.4333818,2092,2880,ɔ_S
1789469447.435683,1966,2879,ɔ_S
1789469447.4369721,1987,2879,ɔ_S
1789469447.439268,2137,2878,ɔ_S
1789469447.4413261,2021,2880,ɔ_S
1789469447.4433851,2073,2878,ɔ_S
1789469447.449377,2026,2880,ɔ_S
1789469447.450146,2151,2879,ɔ_S
1789469447.450289,2113,2877,ɔ_S
1789469447.453137,2024,2879,ɔ_S
1789469447.453481,2113,2880,ɔ_S
1789469447.456347,2162,2878,ɔ_S
1789469447.458495,2022,2879,ɔ_S
1789469447.4604118,1909,2879,ɔ_S
1789469447.46152,1913,2879,ɔ_S
1789469447.463825,2083,2878,ɔ_S
1789469447.464873,2190,2879,ɔ_S
1789469447.4674282,2025,2881,ɔ_S
1789469447.4687319,1942,2879,ɔ_S
1789469447.471264,1956,2880,ɔ_S
1789469447.473814,2177,2878,ɔ_S
1789469447.4749591,2035,2879,ɔ_S
1789469447.477507,1908,2878,ɔ_S
1789469447.478799,2053,2878,ɔ_S
1789469447.481347,2197,2879,ɔ_S
1789469447.483689,2142,2880,ɔ_S
1789469447.4849799,2014,2878,ɔ_S
1789469447.4875252,2080,2879,ɔ_S
1789469447.49001,2049,2878,ɔ_S
1789469447.494484,1923,2877,ɔ_S
1789469447.494653,1876,2879,ɔ_S
1789469447.495105,2025,2879,ɔ_S
1789469447.498247,2113,2878,ɔ_S
1789469447.499635,2126,2878,ɔ_S
1789469447.501205,2087,2880,ɔ_S
1789469447.5034392,2076,2879,ɔ_S
1789469447.505483,2145,2879,ɔ_S
1789469447.506782,2110,2880,ɔ_S
1789469447.509087,1931,2877,ɔ_S
1789469447.5113962,1950,2878,ɔ_S
1789469447.512691,2045,2879,ɔ_S
1789469447.514998,2165,2878,ɔ_S
1789469447.517544,2123,2878,ɔ_S
1789469447.5188348,2038,2877,ɔ_S
1789469447.5213828,2189,2879,ɔ_S
1789469447.522709,2117,2877,ɔ_S
1789469447.525036,1877,2877,ɔ_S
1789469447.5273411,1975,2878,ɔ_S
1789469447.5294578,2128,2877,ɔ_S
1789469447.5307488,2120,2879,ɔ_S
1789469447.5332952,2066,2877,ɔ_S
1789469447.538683,1996,2877,ɔ_S
1789469447.539403,1946,2878,ɔ_S
1789469447.539777,2064,2879,ɔ_S
1789469447.5427048,2076,2880,ɔ_S
1789469447.5437171,1936,2878,ɔ_S
1789469447.545838,2028,2878,ɔ_S
1789469447.548054,2192,2879,ɔ_S
1789469447.5501068,2133,2879,ɔ_S
1789469447.551404,2096,2879,ɔ_S
1789469447.553822,2042,2879,ɔ_S
1789469447.555122,2081,2878,ɔ_S
1789469447.557678,2004,2878,ɔ_S
1789469447.558972,1888,2878,ɔ_S
1789469447.5612822,2005,2878,ɔ_S
1789469447.563585,2142,2879,ɔ_S
1789469447.564876,2206,2880,ɔ_S
1789469447.567178,2129,2880,ɔ_S
1789469447.569729,1992,2879,ɔ_S
1789469447.571021,2078,2880,ɔ_S
1789469447.5735838,2137,2879,ɔ_S
1789469447.57488,1966,2878,ɔ_S
1789469447.577195,1907,2878,ɔ_S
1789469447.582983,2107,2879,ɔ_S
1789469447.5831292,2163,2878,ɔ_S
1789469447.58355,1937,2878,ɔ_S
1789469447.5855732,1969,2878,ɔ_S
1789469447.587418,2026,2878,ɔ_S
1789469447.588906,2180,2879,ɔ_S
1789469447.592664,2034,2879,ɔ_S
1789469447.592788,1845,2878,ɔ_S
1789469447.595697,2033,2880,ɔ_S
1789469447.5967538,2217,2880,ɔ_S
1789469447.598826,2201,2880,ɔ_S
1789469447.6011488,2034,2880,ɔ_S
1789469447.603644,1966,2879,ɔ_S
1789469447.604706,2078,2879,ɔ_S
1789469447.607023,2127,2880,ɔ_S
1789469447.6090949,1971,2878,ɔ_S
1789469447.611419,1995,2879,ɔ_S
1789469447.6136,2102,2879,ɔ_S
1789469447.6147058,2133,2879,ɔ_S
1789469447.617267,2083,2879,ɔ_S
1789469447.619769,2050,2880,ɔ_S
1789469447.621164,2141,2879,ɔ_S
1789469447.623602,2141,2879,ɔ_S
1789469447.6248,1878,2878,ɔ_S
1789469447.632929,1931,2879,ɔ_S
1789469447.633208,2106,2879,ɔ_S
1789469447.6366642,2181,2878,ɔ_S
1789469447.6372511,2096,2880,ɔ_S
1789469447.639471,2032,2879,ɔ_S
1789469447.639675,2028,2880,ɔ_S
1789469447.6420941,2141,2880,ɔ_S
1789469447.6423922,2015,2880,ɔ_S
1789469447.6446998,1918,2879,ɔ_S
1789469447.6448169,2015,2878,ɔ_S
1789469447.647199,2147,2880,ɔ_S
1789469447.655835,2143,2878,ɔ_S
1789469447.6579561,2067,2880,ɔ_S
1789469447.658779,1998,2879,ɔ_S
1789469447.6599019,2135,2877,ɔ_S
1789469447.66186,2110,2879,ɔ_S
1789469447.664293,1913,2879,ɔ_S
1789469447.664792,1951,2879,ɔ_S
1789469447.666761,2092,2880,ɔ_S
1789469447.667495,2189,2879,ɔ_S
1789469447.667551,2153,2881,ɔ_S
1789469447.668899,2058,2879,ɔ_S
1789469447.6711948,2080,2878,ɔ_S
1789469447.673612,2128,2879,ɔ_S
1789469447.674815,1923,2876,ɔ_S
1789469447.6771479,1933,2879,ɔ_S
1789469447.679256,2075,2880,ɔ_S
1789469447.681621,2181,2879,ɔ_S
1789469447.682976,2159,2880,ɔ_S
1789469447.68545,2066,2879,ɔ_S
1789469447.6876469,2068,2879,ɔ_S
1789469447.688755,2156,2879,ɔ_S
1789469447.690979,2045,2879,ɔ_S
1789469447.693441,1956,2877,ɔ_S
1789469447.694772,2073,2880,ɔ_S
1789469447.6971252,2174,2878,ɔ_S
1789469447.703066,2125,2878,ɔ_S
1789469447.7031958,2021,2879,ɔ_S
1789469447.705936,1940,2878,ɔ_S
1789469447.70619,2102,2878,ɔ_S
1789469447.708357,2026,2879,ɔ_S
1789469447.709963,1897,2877,ɔ_S
1789469447.7118049,1965,2878,ɔ_S
1789469447.714179,2211,2879,ɔ_S
1789469447.7164621,2163,2879,ɔ_S
1789469447.7177742,2099,2880,ɔ_S
1789469447.719179,2037,2879,ɔ_S
1789469447.7246048,2022,2879,ɔ_S
1789469447.7251258,2129,2880,ɔ_S
1789469447.726778,2057,2881,ɔ_S
1789469447.727179,2003,2878,ɔ_S
1789469447.729939,2148,2879,ɔ_S
1789469447.732439,2244,2879,ɔ_S
1789469447.73469,2165,2880,ɔ_S
1789469447.7348921,2102,2879,ɔ_S
1789469447.7375948,2092,2879,ɔ_S
1789469447.738904,2105,2879,ɔ_S
1789469447.741469,2018,2880,ɔ_S
1789469447.742765,1952,2878,ɔ_S
1789469447.745269,2017,2879,ɔ_S
1789469447.7475982,2158,2879,ɔ_S
1789469447.7488372,2158,2880,ɔ_S
1789469447.75102,2139,2880,ɔ_S
1789469447.7533271,2112,2880,ɔ_S
1789469447.754727,2254,2880,ɔ_S
1789469447.757041,2223,2880,ɔ_S
1789469447.759109,2029,2878,ɔ_S
1789469447.7614248,2046,2879,ɔ_S
1789469447.7627451,2186,2880,ɔ_S
1789469447.765294,2218,2879,ɔ_S
1789469447.7716632,2134,2879,ɔ_S
1789469447.77214,2075,2880,ɔ_S
1789469447.7730088,2111,2879,ɔ_S
1789469447.773422,2134,2879,ɔ_S
1789469447.776664,1998,2879,ɔ_S
1789469447.777099,1962,2878,ɔ_S
1789469447.7822661,2007,2879,ɔ_S
1789469447.7824159,2117,2879,ɔ_S
1789469447.784624,2208,2881,ɔ_S
1789469447.78481,2028,2879,ɔ_S
1789469447.7873678,2097,2879,ɔ_S
1789469447.7924852,2418,2881,ɔ_S
1789469447.792994,2269,2880,ɔ_S
1789469447.793109,1944,2880,ɔ_S
1789469447.795109,2145,2879,ɔ_S
1789469447.7982001,2285,2879,ɔ_S
1789469447.800255,2213,2878,ɔ_S
1789469447.802463,2152,2879,ɔ_S
1789469447.80422,2078,2879,ɔ_S
1789469447.8055198,2183,2879,ɔ_S
1789469447.806815,2115,2878,ɔ_S
1789469447.809381,1958,2877,ɔ_S
1789469447.8106802,2036,2880,ɔ_S
1789469447.8132339,2321,2880,ɔ_S
1789469447.815545,2322,2880,ɔ_S
1789469447.816839,2225,2879,ɔ_S
1789469447.819155,2110,2879,ɔ_S
1789469447.821462,2130,2879,ɔ_S
1789469447.823773,2173,2879,ɔ_S
1789469447.825065,2182,2880,ɔ_S
1789469447.827627,2134,2879,ɔ_S
1789469447.828922,2278,2878,ɔ_S
1789469447.83117,2265,2879,ɔ_S
1789469447.833476,2236,2880,ɔ_S
1789469447.834789,2247,2879,ɔ_S
1789469447.838801,2153,2879,ɔ_S
1789469447.839264,2279,2880,ɔ_S
1789469447.8414972,2111,2880,ɔ_S
1789469447.843134,1874,2877,ɔ_S
1789469447.8467178,2223,2879,ɔ_S
1789469447.848981,2349,2879,ɔ_S
1789469447.849118,2285,2881,ɔ_S
1789469447.8512158,2224,2880,ɔ_S
1789469447.852606,2160,2879,ɔ_S
1789469447.855138,2186,2879,ɔ_S
1789469447.857672,2199,2880,ɔ_S
1789469447.858906,2059,2877,ɔ_S
1789469447.861462,2186,2879,ɔ_S
1789469447.8627572,2268,2879,ɔ_S
1789469447.865309,2289,2880,ɔ_S
1789469447.867618,2286,2880,ɔ_S
1789469447.868669,2135,2879,ɔ_S
1789469447.871222,2197,2879,ɔ_S
1789469447.873528,2274,2880,ɔ_S
1789469447.874602,2191,2880,ɔ_S
1789469447.8771572,1966,2879,ɔ_S
1789469447.8797069,2136,2879,ɔ_S
1789469447.880998,2160,2879,ɔ_S
1789469447.886229,2220,2880,ɔ_S
1789469447.886701,2241,2879,ɔ_S
1789469447.8874838,2131,2878,ɔ_S
1789469447.890099,2310,2879,ɔ_S
1789469447.891984,2212,2879,ɔ_S
1789469447.895402,2085,2878,ɔ_S
1789469447.896039,2238,2878,ɔ_S
1789469447.898272,2428,2882,ɔ_S
1789469447.89957,2402,2881,ɔ_S
1789469447.900864,2279,2879,ɔ_S
1789469447.90343,2127,2880,ɔ_S
1789469447.904732,2242,2880,ɔ_S
1789469447.907286,2174,2880,ɔ_S
1789469447.908632,2004,2878,ɔ_S
1789469447.910947,2039,2879,ɔ_S
1789469447.91326,2220,2879,ɔ_S
1789469447.915383,2230,2879,ɔ_S
1789469447.916678,2073,2879,ɔ_S
1789469447.919227,2024,2878,ɔ_S
1789469447.92154,2103,2879,ɔ_S
1789469447.9228349,2257,2880,ɔ_S
1789469447.925385,2074,2879,ɔ_S
1789469447.927448,1974,2879,ɔ_S
1789469447.9285939,2143,2879,ɔ_S
1789469447.933919,2263,2879,ɔ_S
1789469447.934668,2220,2880,ɔ_S
1789469447.935922,2122,2878,ɔ_S
1789469447.937886,2123,2879,ɔ_S
1789469447.939859,2284,2881,ɔ_S
1789469447.9412448,2157,2879,ɔ_S
1789469447.943449,1936,2878,ɔ_S
1789469447.9456499,2065,2878,ɔ_S
1789469447.946959,2294,2879,ɔ_S
1789469447.9494798,2202,2881,ɔ_S
1789469447.9539042,2101,2880,ɔ_S
1789469447.954716,2152,2878,ɔ_S
1789469447.956029,2273,2880,ɔ_S
1789469447.957632,2288,2879,ɔ_S
1789469447.9594219,2093,2878,ɔ_S
1789469447.961204,2110,2880,ɔ_S
1789469447.96352,2201,2878,ɔ_S
1789469447.96556,2248,2879,ɔ_S
1789469447.96687,2162,2880,ɔ_S
1789469447.9694238,2054,2877,ɔ_S
1789469447.970624,2071,2878,ɔ_S
1789469447.9731789,2159,2880,ɔ_S
1789469447.975251,1989,2876,ɔ_S
1789469447.977563,2025,2879,ɔ_S
1789469447.978605,2132,2880,ɔ_S
1789469447.9809148,2193,2879,ɔ_S
1789469447.983232,2098,2878,ɔ_S
1789469447.985539,2002,2879,ɔ_S
1789469447.98683,2107,2880,ɔ_S
1789469447.989074,2208,2878,ɔ_S
1789469447.991455,2034,2880,ɔ_S
1789469447.992579,1931,2879,ɔ_S
1789469447.994881,1993,2878,ɔ_S
1789469447.999969,2177,2879,ɔ_S
1789469448.000449,2211,2878,ɔ_S
1789469448.002743,2198,2879,ɔ_S
1789469448.00293,2026,2879,ɔ_S
1789469448.006028,2123,2878,ɔ_S
1789469448.007993,2126,2879,ɔ_S
1789469448.010283,1928,2877,ɔ_S
1789469448.0125608,2002,2878,ɔ_S
1789469448.012605,2170,2878,ɔ_S
1789469448.014901,2217,2879,ɔ_S
1789469448.02033,2203,2880,ɔ_S
1789469448.0211148,2096,2879,ɔ_S
1789469448.021556,2120,2879,ɔ_S
1789469448.0229728,2116,2879,ɔ_S
1789469448.025643,1979,2877,ɔ_S
1789469448.0279071,1925,2879,ɔ_S
1789469448.030151,2028,2878,ɔ_S
1789469448.032345,2236,2879,ɔ_S
1789469448.033409,2188,2880,ɔ_S
1789469448.034704,2068,2878,ɔ_S
1789469448.0372639,2072,2879,ɔ_S
1789469448.039736,2194,2880,ɔ_S
1789469448.041033,2081,2879,ɔ_S
1789469448.043585,1946,2878,ɔ_S
1789469448.044634,2065,2878,ɔ_S
1789469448.047184,2172,2879,ɔ_S
1789469448.049529,2219,2880,ɔ_S
1789469448.050823,2036,2878,ɔ_S
1789469448.053128,2008,2879,ɔ_S
1789469448.055677,2036,2877,ɔ_S
1789469448.056969,2128,2880,ɔ_S
1789469448.05952,2030,2878,ɔ_S
1789469448.060811,2001,2879,ɔ_S
1789469448.0667179,2124,2880,ɔ_S
1789469448.0671601,2139,2879,ɔ_S
1789469448.0675578,2083,2879,ɔ_S
1789469448.0694568,2076,2879,ɔ_S
1789469448.071278,2057,2878,ɔ_S
1789469448.073001,2209,2880,ɔ_S
1789469448.0747159,2094,2880,ɔ_S
1789469448.07895,1962,2878,ɔ_S
1789469448.079042,2100,2879,ɔ_S
1789469448.081121,2249,2879,ɔ_S
1789469448.0835788,2164,2881,ɔ_S
1789469448.084629,2086,2878,ɔ_S
1789469448.087182,2057,2878,ɔ_S
1789469448.0897422,2146,2879,ɔ_S
1789469448.090794,2064,2879,ɔ_S
1789469448.093342,1955,2877,ɔ_S
1789469448.094638,2054,2878,ɔ_S
1789469448.0971892,2163,2878,ɔ_S
1789469448.0997398,2218,2880,ɔ_S
1789469448.101034,2095,2878,ɔ_S
1789469448.103582,2005,2879,ɔ_S
1789469448.104873,2089,2878,ɔ_S
1789469448.1074271,2140,2879,ɔ_S
1789469448.10872,1980,2877,ɔ_S
1789469448.1133308,1959,2880,ɔ_S
1789469448.114113,2104,2878,ɔ_S
1789469448.115937,2178,2879,ɔ_S
1789469448.117795,2136,2879,ɔ_S
1789469448.120794,2077,2878,ɔ_S
1789469448.1209102,2128,2879,ɔ_S
1789469448.123002,2231,2879,ɔ_S
1789469448.125054,2103,2880,ɔ_S
1789469448.127518,2010,2878,ɔ_S
1789469448.128821,2181,2879,ɔ_S
1789469448.1311429,2254,2878,ɔ_S
1789469448.133704,2231,2881,ɔ_S
1789469448.134942,2144,2879,ɔ_S
1789469448.137488,2083,2879,ɔ_S
1789469448.138779,2141,2879,ɔ_S
1789469448.140954,2081,2879,ɔ_S
1789469448.143258,1997,2878,ɔ_S
1789469448.145337,2031,2880,ɔ_S
1789469448.147616,2161,2879,ɔ_S
1789469448.148661,2196,2878,ɔ_S
1789469448.1509671,2148,2880,ɔ_S
1789469448.153334,2018,2877,ɔ_S
1789469448.158684,2049,2879,ɔ_S
1789469448.159078,2133,2879,ɔ_S
1789469448.1608808,1966,2877,ɔ_S
1789469448.1610491,2012,2879,ɔ_S
1789469448.163877,2162,2878,ɔ_S
1789469448.16583,2218,2879,ɔ_S
1789469448.167835,2138,2880,ɔ_S
1789469448.1697862,2024,2879,ɔ_S
1789469448.171086,2042,2879,ɔ_S
1789469448.173642,2129,2879,ɔ_S
1789469448.1747022,2025,2879,ɔ_S
1789469448.1767738,1946,2879,ɔ_S
1789469448.179322,2072,2879,ɔ_S
1789469448.180612,2101,2880,ɔ_S
1789469448.182924,2119,2881,ɔ_S
1789469448.1854699,2060,2878,ɔ_S
1789469448.186605,2017,2880,ɔ_S
1789469448.188902,2126,2879,ɔ_S
1789469448.191457,2037,2880,ɔ_S
1789469448.192749,1883,2879,ɔ_S
1789469448.1950579,1992,2878,ɔ_S
1789469448.1976042,2070,2878,ɔ_S
1789469448.201768,2181,2879,ɔ_S
1789469448.2025049,2051,2879,ɔ_S
1789469448.2032819,1993,2879,ɔ_S
1789469448.2046971,2133,2879,ɔ_S
1789469448.207453,2083,2879,ɔ_S
1789469448.209358,1956,2878,ɔ_S
1789469448.211336,2046,2879,ɔ_S
1789469448.213307,2146,2879,ɔ_S
1789469448.214613,2161,2878,ɔ_S
1789469448.2171688,2121,2880,ɔ_S
1789469448.2197492,2019,2879,ɔ_S
1789469448.2207968,2094,2878,ɔ_S
1789469448.2231019,2193,2880,ɔ_S
1789469448.225409,2033,2880,ɔ_S
1789469448.2274718,1956,2878,ɔ_S
1789469448.2288058,2079,2878,ɔ_S
1789469448.231107,2202,2878,ɔ_S
1789469448.233419,2172,2881,ɔ_S
1789469448.2347121,2079,2880,ɔ_S
1789469448.2370932,2018,2878,ɔ_S
1789469448.239396,2144,2880,ɔ_S
1789469448.240601,2101,2880,ɔ_S
1789469448.242691,1975,2877,ɔ_S
1789469448.247253,1961,2879,ɔ_S
1789469448.248183,2113,2880,ɔ_S
1789469448.25032,2198,2878,ɔ_S
1789469448.2522528,2101,2879,ɔ_S
1789469448.253901,2007,2878,ɔ_S
1789469448.25581,2060,2879,ɔ_S
1789469448.257931,2088,2880,ɔ_S
1789469448.2600262,1941,2877,ɔ_S
1789469448.261101,1932,2878,ɔ_S
1789469448.2634518,2092,2880,ɔ_S
1789469448.264585,2188,2880,ɔ_S
1789469448.266912,2098,2880,ɔ_S
1789469448.269461,2032,2878,ɔ_S
1789469448.270637,2062,2880,ɔ_S
1789469448.2731829,2163,2879,ɔ_S
1789469448.275532,2005,2877,ɔ_S
1789469448.276592,1973,2879,ɔ_S
1789469448.2788942,2140,2880,ɔ_S
1789469448.281201,2194,2878,ɔ_S
1789469448.283504,2129,2881,ɔ_S
1789469448.284794,2075,2878,ɔ_S
1789469448.286871,2029,2879,ɔ_S
1789469448.2930272,2108,2879,ɔ_S
1789469448.293542,2064,2879,ɔ_S
1789469448.2936199,1995,2878,ɔ_S
1789469448.2956731,2026,2879,ɔ_S
1789469448.2974348,2076,2880,ɔ_S
1789469448.299242,2177,2878,ɔ_S
1789469448.300653,2105,2879,ɔ_S
1789469448.302627,2010,2878,ɔ_S
1789469448.305202,2120,2878,ɔ_S
1789469448.3073668,2131,2880,ɔ_S
1789469448.3084679,1940,2878,ɔ_S
1789469448.310851,1991,2879,ɔ_S
1789469448.313169,2046,2879,ɔ_S
1789469448.314476,2249,2879,ɔ_S
1789469448.316847,2149,2879,ɔ_S
1789469448.3191512,2006,2879,ɔ_S
1789469448.321453,2051,2880,ɔ_S
1789469448.322743,2129,2878,ɔ_S
1789469448.325043,2011,2878,ɔ_S
1789469448.327342,1947,2879,ɔ_S
1789469448.328474,2118,2878,ɔ_S
1789469448.330776,2190,2879,ɔ_S
1789469448.333529,2079,2878,ɔ_S
1789469448.337291,2076,2879,ɔ_S
1789469448.337754,2002,2879,ɔ_S
1789469448.3397849,2223,2879,ɔ_S
1789469448.341672,2124,2880,ɔ_S
1789469448.3432682,1896,2878,ɔ_S
1789469448.3449862,2092,2879,ɔ_S
1789469448.346866,2199,2879,ɔ_S
1789469448.348764,1986,2878,ɔ_S
1789469448.351014,2030,2879,ɔ_S
1789469448.353568,2034,2878,ɔ_S
1789469448.354623,2126,2878,ɔ_S
1789469448.356703,2134,2879,ɔ_S
1789469448.359251,2039,2878,ɔ_S
1789469448.36055,1898,2878,ɔ_S
1789469448.3628669,2057,2879,ɔ_S
1789469448.365416,2298,2882,ɔ_S
1789469448.366708,2007,2877,ɔ_S
1789469448.369013,1953,2879,ɔ_S
1789469448.371562,2137,2879,ɔ_S
1789469448.372852,2190,2878,ɔ_S
1789469448.3753998,1992,2878,ɔ_S
1789469448.3766952,1992,2877,ɔ_S
1789469448.381372,2221,2879,ɔ_S
1789469448.3821492,1987,2879,ɔ_S
1789469448.383878,2113,2878,ɔ_S
1789469448.385654,2096,2880,ɔ_S
1789469448.387533,2065,2879,ɔ_S
1789469448.38893,2146,2879,ɔ_S
1789469448.390796,1953,2880,ɔ_S
1789469448.392527,1914,2877,ɔ_S
1789469448.395088,1937,2878,ɔ_S
1789469448.396545,2128,2878,ɔ_S
1789469448.398645,2174,2879,ɔ_S
1789469448.4011981,2017,2880,ɔ_S
1789469448.4024918,1965,2879,ɔ_S
1789469448.404738,2119,2879,ɔ_S
1789469448.407284,2000,2879,ɔ_S
1789469448.4085739,1855,2877,ɔ_S
1789469448.410701,2033,2879,ɔ_S
1789469448.4130251,2353,2880,ɔ_S
1789469448.415338,2453,2880,ɔ_S
1789469448.416571,1704,2877,ɔ_S
1789469448.4191182,1871,2877,ɔ_S
1789469448.420464,2058,2879,ɔ_S
1789469448.4264572,2254,2879,ɔ_S
1789469448.426848,2256,2880,ɔ_S
1789469448.4286542,1904,2878,ɔ_S
1789469448.4288828,1974,2879,ɔ_S
1789469448.43177,2015,2879,ɔ_S
1789469448.433728,2008,2878,ɔ_S
1789469448.435759,2170,2880,ɔ_S
1789469448.437781,2103,2879,ɔ_S
1789469448.4390862,2026,2879,ɔ_S
1789469448.4416451,1925,2878,ɔ_S
1789469448.44294,1838,2877,ɔ_S
1789469448.445007,1919,2878,ɔ_S
1789469448.447555,2151,2878,ɔ_S
1789469448.448722,2278,2880,ɔ_S
1789469448.451267,2311,2879,ɔ_S
1789469448.4525619,2110,2879,ɔ_S
1789469448.45487,1882,2878,ɔ_S
1789469448.457186,2053,2879,ɔ_S
1789469448.4595032,2068,2877,ɔ_S
1789469448.4607942,1925,2879,ɔ_S
1789469448.463094,2030,2879,ɔ_S
1789469448.465405,2093,2878,ɔ_S
1789469448.466571,2060,2879,ɔ_S
1789469448.470886,2072,2879,ɔ_S
1789469448.471626,2113,2879,ɔ_S
1789469448.4733078,2141,2880,ɔ_S
1789469448.475127,2197,2880,ɔ_S
1789469448.4780521,1789,2878,ɔ_S
1789469448.480166,1829,2879,ɔ_S
1789469448.482141,2177,2879,ɔ_S
1789469448.483448,2086,2877,ɔ_S
1789469448.4847429,1999,2879,ɔ_S
1789469448.4873002,2107,2879,ɔ_S
1789469448.489625,2038,2878,ɔ_S
1789469448.4909189,2099,2880,ɔ_S
1789469448.493232,2095,2878,ɔ_S
1789469448.495543,2009,2879,ɔ_S
1789469448.4968362,2076,2878,ɔ_S
1789469448.499382,2211,2879,ɔ_S
1789469448.5006762,2368,2880,ɔ_S
1789469448.502978,2136,2878,ɔ_S
1789469448.505289,1915,2879,ɔ_S
1789469448.5065799,1949,2878,ɔ_S
1789469448.509127,1774,2877,ɔ_S
1789469448.510494,1920,2879,ɔ_S
1789469448.514827,2326,2878,ɔ_S
1789469448.515648,2250,2881,ɔ_S
1789469448.517709,1780,2877,ɔ_S
1789469448.519179,1855,2879,ɔ_S
1789469448.521059,1949,2879,ɔ_S
1789469448.522748,2109,2878,ɔ_S
1789469448.524957,2058,2879,ɔ_S
1789469448.526769,2150,2878,ɔ_S
1789469448.5293598,2121,2879,ɔ_S
1789469448.530463,2046,2879,ɔ_S
1789469448.532788,1955,2877,ɔ_S
1789469448.53534,1988,2879,ɔ_S
1789469448.5366359,2069,2877,ɔ_S
1789469448.539074,2183,2879,ɔ_S
1789469448.5404658,1968,2879,ɔ_S
1789469448.5427809,1752,2878,ɔ_S
1789469448.5449522,1819,2878,ɔ_S
1789469448.547501,2205,2878,ɔ_S
1789469448.548553,2145,2879,ɔ_S
1789469448.550623,1920,2878,ɔ_S
1789469448.553167,1983,2878,ɔ_S
1789469448.554494,2175,2879,ɔ_S
1789469448.559402,2098,2880,ɔ_S
1789469448.5602,1881,2876,ɔ_S
1789469448.562064,2103,2879,ɔ_S
1789469448.563833,2154,2878,ɔ_S
1789469448.5656261,2014,2879,ɔ_S
1789469448.5689118,2100,2880,ɔ_S
1789469448.5690749,1937,2880,ɔ_S
1789469448.571072,1915,2879,ɔ_S
1789469448.572371,2388,2879,ɔ_S
1789469448.5749319,2175,2879,ɔ_S
1789469448.577187,1771,2878,ɔ_S
1789469448.579496,1993,2879,ɔ_S
1789469448.580786,2177,2879,ɔ_S
1789469448.582861,2084,2877,ɔ_S
1789469448.585408,2027,2879,ɔ_S
1789469448.586457,2096,2879,ɔ_S
1789469448.588761,2239,2878,ɔ_S
1789469448.591073,2066,2879,ɔ_S
1789469448.5933802,1777,2878,ɔ_S
1789469448.59443,1738,2878,ɔ_S
1789469448.59673,1990,2879,ɔ_S
1789469448.599031,1951,2878,ɔ_S
1789469448.60429,1829,2877,ɔ_S
1789469448.6044369,1946,2879,ɔ_S
1789469448.6048481,1894,2877,ɔ_S
1789469448.606705,2369,2880,ɔ_S
1789469448.609527,1925,2877,ɔ_S
1789469448.6115148,1668,2878,ɔ_S
1789469448.6137128,1748,2880,ɔ_S
1789469448.6155899,2006,2879,ɔ_S
1789469448.616888,2178,2881,ɔ_S
1789469448.619083,2035,2879,ɔ_S
1789469448.620373,1972,2879,ɔ_S
1789469448.622928,1698,2879,ɔ_S
1789469448.625162,1685,2877,ɔ_S
1789469448.626454,1466,2879,ɔ_S
1789469448.628762,2126,2879,ɔ_S
1789469448.631061,2485,2881,ɔ_S
1789469448.6333802,2244,2880,ɔ_S
1789469448.6346729,1853,2878,ɔ_S
1789469448.637221,1796,2878,ɔ_S
1789469448.6385121,1970,2879,ɔ_S
1789469448.64106,1970,2877,ɔ_S
1789469448.6433752,1832,2877,ɔ_S
1789469448.6446688,1861,2878,ɔ_S
1789469448.650403,1819,2879,ɔ_S
1789469448.650527,1968,2878,ɔ_S
1789469448.652229,1812,2877,ɔ_S
1789469448.652395,1840,2879,ɔ_S
1789469448.6554291,1975,2878,ɔ_S
1789469448.657527,2061,2879,ɔ_S
1789469448.659829,1976,2878,ɔ_S
1789469448.662084,1753,2879,ɔ_S
1789469448.6634,1663,2879,ɔ_S
1789469448.6646411,1785,2878,ɔ_S
1789469448.669685,1972,2877,ɔ_S
1789469448.670174,1870,2880,ɔ_S
1789469448.672489,2277,2880,ɔ_S
1789469448.672676,1489,2876,ɔ_S
1789469448.675686,1844,2877,ɔ_S
1789469448.67771,2017,2879,ɔ_S
1789469448.679905,1939,2879,ɔ_S
1789469448.682122,1923,2878,ɔ_S
1789469448.683433,1935,2878,ɔ_S
1789469448.68449,1928,2878,ɔ_S
1789469448.686574,1693,2876,ɔ_S
1789469448.68914,1945,2879,ɔ_S
1789469448.690443,2012,2879,ɔ_S
1789469448.692993,1683,2878,ɔ_S
1789469448.6943638,1571,2879,ɔ_S
1789469448.696807,2086,2879,ɔ_S
1789469448.699361,2169,2878,ɔ_S
1789469448.700425,2371,2879,ɔ_S
1789469448.702734,2199,2880,ɔ_S
1789469448.705133,1870,2879,ɔ_S
1789469448.706424,1972,2879,ɔ_S
1789469448.7088509,2005,2877,ɔ_S
1789469448.711404,1619,2877,ɔ_S
1789469448.712712,1860,2878,ɔ_S
1789469448.717103,2052,2878,ɔ_S
1789469448.717531,1835,2878,ɔ_S
1789469448.719517,1593,2875,ɔ_S
1789469448.721704,1699,2879,ɔ_S
1789469448.723306,2060,2879,ɔ_S
1789469448.725143,1888,2877,ɔ_S
1789469448.7273269,1872,2878,ɔ_S
1789469448.7294762,2015,2878,ɔ_S
1789469448.730784,2245,2879,ɔ_S
1789469448.733342,2020,2878,ɔ_S
1789469448.734477,1979,2879,ɔ_S
1789469448.737034,2272,2880,ɔ_S
1789469448.7391732,1817,2879,ɔ_S
1789469448.7404668,1851,2876,ɔ_S
1789469448.743016,1983,2877,ɔ_S
1789469448.744373,2035,2878,ɔ_S
1789469448.7466738,2061,2879,ɔ_S
1789469448.748974,2044,2878,ɔ_S
1789469448.751498,1928,2877,ɔ_S
1789469448.75279,1915,2878,ɔ_S
1789469448.75534,1939,2879,ɔ_S
1789469448.7563908,2066,2880,ɔ_S
1789469448.7587001,1897,2877,ɔ_S
1789469448.7644649,1759,2879,ɔ_S
1789469448.7648919,1862,2879,ɔ_S
1789469448.765347,2235,2878,ɔ_S
1789469448.7672808,2370,2881,ɔ_S
1789469448.769183,2037,2879,ɔ_S
1789469448.770777,2063,2879,ɔ_S
1789469448.772521,2387,2880,ɔ_S
1789469448.774911,1931,2877,ɔ_S
1789469448.7770061,1976,2879,ɔ_S
1789469448.778361,1984,2878,ɔ_S
1789469448.780923,1969,2879,ɔ_S
1789469448.783488,2082,2877,ɔ_S
1789469448.7847848,1991,2880,ɔ_S
1789469448.787332,1797,2879,ɔ_S
1789469448.788384,1923,2878,ɔ_S
1789469448.790935,2076,2879,ɔ_S
1789469448.793239,1813,2878,ɔ_S
1789469448.794334,2051,2880,ɔ_S
1789469448.7968051,2216,2878,ɔ_S
1789469448.7993531,2153,2879,ɔ_S
1789469448.8006442,1973,2879,ɔ_S
1789469448.8028748,1895,2879,ɔ_S
1789469448.80542,1957,2879,ɔ_S
1789469448.806659,2077,2878,ɔ_S
1789469448.810505,1959,2877,ɔ_S
1789469448.811265,1920,2880,ɔ_S
1789469448.813076,2478,2882,ɔ_S
1789469448.8147998,1687,2878,ɔ_S
1789469448.817896,1932,2879,ɔ_S
1789469448.8202,2107,2880,ɔ_S
1789469448.822119,2069,2879,ɔ_S
1789469448.8231711,2212,2879,ɔ_S
1789469448.824469,2030,2880,ɔ_S
1789469448.827029,1771,2877,ɔ_S
1789469448.8283489,2020,2878,ɔ_S
1789469448.8306649,2079,2879,ɔ_S
1789469448.8331258,2068,2878,ɔ_S
1789469448.8344162,1987,2880,ɔ_S
1789469448.836967,2036,2879,ɔ_S
1789469448.838346,2116,2878,ɔ_S
1789469448.840904,2113,2880,ɔ_S
1789469448.843453,1980,2878,ɔ_S
1789469448.844744,1886,2879,ɔ_S
1789469448.847291,2065,2878,ɔ_S
1789469448.848583,2210,2879,ɔ_S
1789469448.85411,2227,2880,ɔ_S
1789469448.854518,1967,2879,ɔ_S
1789469448.854943,1980,2878,ɔ_S
1789469448.856986,2049,2879,ɔ_S
1789469448.859926,1945,2877,ɔ_S
1789469448.8619719,1943,2878,ɔ_S
1789469448.864185,2359,2880,ɔ_S
1789469448.8658571,2031,2879,ɔ_S
1789469448.866975,2016,2877,ɔ_S
1789469448.868344,2039,2880,ɔ_S
1789469448.870896,2021,2879,ɔ_S
1789469448.873044,2411,2880,ɔ_S
1789469448.8743439,1770,2878,ɔ_S
1789469448.876718,1926,2878,ɔ_S
1789469448.879018,1945,2879,ɔ_S
1789469448.881323,2104,2879,ɔ_S
1789469448.882614,2260,2881,ɔ_S
1789469448.884919,2145,2879,ɔ_S
1789469448.887466,2064,2878,ɔ_S
1789469448.888758,2186,2879,ɔ_S
1789469448.8910642,2106,2880,ɔ_S
1789469448.8933709,1864,2878,ɔ_S
1789469448.89443,1866,2878,ɔ_S
1789469448.899055,2066,2879,ɔ_S
1789469448.899458,2181,2878,ɔ_S
1789469448.901829,2312,2879,ɔ_S
1789469448.903751,1838,2879,ɔ_S
1789469448.905521,1887,2880,ɔ_S
1789469448.9089952,2184,2879,ɔ_S
1789469448.9091048,2009,2878,ɔ_S
1789469448.911094,1952,2879,ɔ_S
1789469448.9134002,1964,2880,ɔ_S
1789469448.914693,2285,2878,ɔ_S
1789469448.917042,1856,2878,ɔ_S
1789469448.919181,2006,2879,ɔ_S
1789469448.9215062,1938,2878,ɔ_S
1789469448.922796,2112,2879,ɔ_S
1789469448.924921,2002,2880,ɔ_S
1789469448.927231,1935,2879,ɔ_S
1789469448.9285219,2019,2879,ɔ_S
1789469448.930593,2219,2878,ɔ_S
1789469448.933002,2000,2879,ɔ_S
1789469448.935314,2040,2879,ɔ_S
1789469448.936532,2049,2880,ɔ_S
1789469448.938833,2090,2878,ɔ_S
1789469448.941033,2154,2878,ɔ_S
1789469448.947335,2010,2878,ɔ_S
1789469448.9475148,2003,2878,ɔ_S
1789469448.9494069,1999,2880,ɔ_S
1789469448.949822,2215,2879,ɔ_S
1789469448.9514859,2107,2879,ɔ_S
1789469448.952838,2074,2878,ɔ_S
1789469448.955282,2071,2879,ɔ_S
1789469448.957474,2110,2879,ɔ_S
1789469448.958539,2004,2880,ɔ_S
1789469448.961099,1839,2878,ɔ_S
1789469448.962402,2058,2878,ɔ_S
1789469448.964727,2151,2880,ɔ_S
1789469448.967037,2162,2881,ɔ_S
1789469448.969341,1998,2879,ɔ_S
1789469448.970634,2152,2880,ɔ_S
1789469448.973183,2241,2880,ɔ_S
1789469448.974474,2047,2880,ɔ_S
1789469448.976777,1922,2878,ɔ_S
1789469448.979081,1957,2878,ɔ_S
1789469448.980374,2147,2880,ɔ_S
1789469448.98268,2187,2879,ɔ_S
1789469448.9851499,2236,2880,ɔ_S
1789469448.9864519,1832,2879,ɔ_S
1789469448.9921331,2084,2878,ɔ_S
1789469448.992964,2112,2879,ɔ_S
1789469448.993428,1905,2877,ɔ_S
1789469448.9949172,2115,2879,ɔ_S
1789469448.996583,2111,2880,ɔ_S
1789469449.000055,1976,2879,ɔ_S
1789469449.0024488,2230,2880,ɔ_S
1789469449.002679,2130,2879,ɔ_S
1789469449.004748,2015,2878,ɔ_S
1789469449.006918,2126,2879,ɔ_S
1789469449.009314,2028,2880,ɔ_S
1789469449.010544,1916,2879,ɔ_S
1789469449.0131001,2071,2878,ɔ_S
1789469449.0154219,2220,2879,ɔ_S
1789469449.016481,2169,2881,ɔ_S
1789469449.018788,2105,2879,ɔ_S
1789469449.021339,2043,2879,ɔ_S
1789469449.02251,2148,2879,ɔ_S
1789469449.024576,2063,2879,ɔ_S
1789469449.027122,1898,2878,ɔ_S
1789469449.0284128,1964,2878,ɔ_S
1789469449.030865,2173,2879,ɔ_S
1789469449.033279,2234,2879,ɔ_S
1789469449.0343418,2120,2879,ɔ_S
1789469449.0393112,2038,2879,ɔ_S
1789469449.039828,2116,2878,ɔ_S
1789469449.041932,2120,2879,ɔ_S
1789469449.043545,1891,2877,ɔ_S
1789469449.045485,1934,2878,ɔ_S
1789469449.047124,2154,2879,ɔ_S
1789469449.0495281,2236,2879,ɔ_S
1789469449.051284,2178,2880,ɔ_S
1789469449.052584,1978,2878,ɔ_S
1789469449.055134,2037,2879,ɔ_S
1789469449.056434,2162,2881,ɔ_S
1789469449.058995,2057,2880,ɔ_S
1789469449.06029,1956,2879,ɔ_S
1789469449.062838,2082,2879,ɔ_S
1789469449.06521,2170,2879,ɔ_S
1789469449.066266,2132,2881,ɔ_S
1789469449.0688121,2045,2878,ɔ_S
1789469449.071129,1970,2879,ɔ_S
1789469449.072237,2140,2879,ɔ_S
1789469449.074783,2029,2879,ɔ_S
1789469449.077146,1942,2878,ɔ_S
1789469449.078219,2029,2878,ɔ_S
1789469449.0805209,2179,2879,ɔ_S
1789469449.0856,2179,2878,ɔ_S
1789469449.086755,2109,2880,ɔ_S
1789469449.087174,2022,2879,ɔ_S
1789469449.089844,2096,2879,ɔ_S
1789469449.091649,2161,2879,ɔ_S
1789469449.0931919,1949,2878,ɔ_S
1789469449.0954618,1969,2879,ɔ_S
1789469449.097058,2140,2878,ɔ_S
1789469449.098228,2240,2880,ɔ_S
1789469449.1003258,2228,2880,ɔ_S
1789469449.102747,2087,2879,ɔ_S
1789469449.105304,2093,2879,ɔ_S
1789469449.1066098,2222,2880,ɔ_S
1789469449.109163,2049,2880,ɔ_S
1789469449.110464,1877,2878,ɔ_S
1789469449.113013,2099,2880,ɔ_S
1789469449.1153212,2186,2879,ɔ_S
1789469449.1166148,2191,2881,ɔ_S
1789469449.1191628,2072,2879,ɔ_S
1789469449.120262,2002,2878,ɔ_S
1789469449.122692,2203,2879,ɔ_S
1789469449.124768,2109,2879,ɔ_S
1789469449.127073,1919,2877,ɔ_S
1789469449.131082,1968,2879,ɔ_S
1789469449.131168,2128,2878,ɔ_S
1789469449.132479,2225,2880,ɔ_S
1789469449.1355588,2044,2879,ɔ_S
1789469449.137161,2021,2879,ɔ_S
1789469449.14112,2033,2879,ɔ_S
1789469449.141289,2265,2880,ɔ_S
1789469449.1432672,1985,2877,ɔ_S
1789469449.1445708,1906,2878,ɔ_S
1789469449.147122,2164,2879,ɔ_S
1789469449.1484249,2222,2878,ɔ_S
1789469449.150984,2160,2879,ɔ_S
1789469449.153067,1979,2879,ɔ_S
1789469449.15436,1971,2878,ɔ_S
1789469449.156906,2173,2879,ɔ_S
1789469449.159219,2101,2880,ɔ_S
1789469449.1602602,1967,2879,ɔ_S
1789469449.162337,2082,2879,ɔ_S
1789469449.164642,2237,2879,ɔ_S
1789469449.16719,2253,2881,ɔ_S
1789469449.16848,2100,2878,ɔ_S
1789469449.170548,2113,2879,ɔ_S
1789469449.177475,2207,2880,ɔ_S
1789469449.177974,2143,2879,ɔ_S
1789469449.17808,1980,2878,ɔ_S
1789469449.179282,2097,2879,ɔ_S
1789469449.1807659,2165,2878,ɔ_S
1789469449.1825469,2218,2880,ɔ_S
1789469449.186393,2097,2881,ɔ_S
1789469449.186666,2007,2878,ɔ_S
1789469449.18853,2100,2880,ɔ_S
1789469449.1910899,2177,2879,ɔ_S
1789469449.1923819,1942,2878,ɔ_S
1789469449.194699,1924,2879,ɔ_S
1789469449.197248,2132,2880,ɔ_S
1789469449.198292,2205,2880,ɔ_S
1789469449.217967,2252,2879,ɔ_S
1789469449.2393138,2042,2879,ɔ_S
1789469449.239661,2105,2879,ɔ_S
1789469449.254671,2180,2879,ɔ_S
1789469449.256327,2224,2881,ɔ_S
1789469449.256454,2116,2878,ɔ_S
1789469449.256899,2150,2879,ɔ_S
1789469449.257071,2283,2879,ɔ_S
1789469449.25711,2276,2880,ɔ_S
1789469449.2571452,2167,2879,ɔ_S
1789469449.2571788,2164,2879,ɔ_S
1789469449.2572129,2254,2879,ɔ_S
1789469449.257246,2106,2879,ɔ_S
1789469449.257279,1986,2878,ɔ_S
1789469449.257314,2225,2880,ɔ_S
1789469449.257348,2238,2879,ɔ_S
1789469449.257382,2211,2878,ɔ_S
1789469449.257416,2261,2880,ɔ_S
1789469449.257451,2245,2879,ɔ_S
1789469449.257503,2273,2879,ɔ_S
1789469449.257542,2357,2880,ɔ_S
1789469449.257578,2157,2880,ɔ_S
1789469449.257612,2055,2879,ɔ_S
1789469449.257647,2361,2879,ɔ_S
1789469449.25768,2364,2881,ɔ_S
1789469449.257715,2368,2881,ɔ_S
1789469449.257748,2318,2879,ɔ_S
1789469449.257783,2191,2879,ɔ_S
1789469449.2578151,2493,2880,ɔ_S
1789469449.259113,2395,2879,ɔ_S
1789469449.26041,2259,2880,ɔ_S
1789469449.262974,2312,2878,ɔ_S
1789469449.264269,2408,2878,ɔ_S
1789469449.266764,2325,2880,ɔ_S
1789469449.269313,2277,2880,ɔ_S
1789469449.270622,2246,2880,ɔ_S
1789469449.272932,2400,2880,ɔ_S
1789469449.275247,2282,2879,ɔ_S
1789469449.276545,2078,2878,ɔ_S
1789469449.2788658,2193,2878,ɔ_S
1789469449.2802088,2328,2879,ɔ_S
1789469449.2827609,2359,2880,ɔ_S
1789469449.2850199,2287,2880,ɔ_S
1789469449.286313,2249,2879,ɔ_S
1789469449.292395,2158,2878,ɔ_S
1789469449.292845,2213,2878,ɔ_S
1789469449.2933629,2096,2880,ɔ_S
1789469449.295574,2022,2880,ɔ_S
1789469449.297513,2121,2879,ɔ_S
1789469449.299108,2351,2878,ɔ_S
1789469449.300856,2292,2880,ɔ_S
1789469449.303345,2184,2879,ɔ_S
1789469449.305469,2197,2880,ɔ_S
1789469449.306772,2342,2880,ɔ_S
1789469449.3122911,2132,2879,ɔ_S
1789469449.313007,2068,2878,ɔ_S
1789469449.313115,2145,2879,ɔ_S
1789469449.315219,2292,2879,ɔ_S
1789469449.317164,2277,2881,ɔ_S
1789469449.320318,2222,2879,ɔ_S
1789469449.320457,2125,2878,ɔ_S
1789469449.3228722,2143,2878,ɔ_S
1789469449.3249412,2158,2880,ɔ_S
1789469449.326256,2029,2877,ɔ_S
1789469449.3288162,2085,2880,ɔ_S
1789469449.331139,2232,2878,ɔ_S
1789469449.332445,2266,2879,ɔ_S
1789469449.334731,2129,2880,ɔ_S
1789469449.337286,1978,2878,ɔ_S
1789469449.338579,2087,2879,ɔ_S
1789469449.341134,2239,2878,ɔ_S
1789469449.3422358,2048,2880,ɔ_S
1789469449.344789,2047,2878,ɔ_S
1789469449.346862,2193,2879,ɔ_S
1789469449.348154,2240,2878,ɔ_S
1789469449.350463,2199,2880,ɔ_S
1789469449.353014,2133,2879,ɔ_S
1789469449.355343,2066,2878,ɔ_S
1789469449.359999,2239,2878,ɔ_S
1789469449.36042,2195,2879,ɔ_S
1789469449.361202,1989,2877,ɔ_S
1789469449.363831,2175,2878,ɔ_S
1789469449.3654652,2252,2880,ɔ_S
1789469449.367427,2300,2881,ɔ_S
1789469449.369817,2191,2879,ɔ_S
1789469449.371959,2146,2877,ɔ_S
1789469449.3732631,2234,2879,ɔ_S
1789469449.374563,2222,2879,ɔ_S
1789469449.376899,2011,2878,ɔ_S
1789469449.3782122,2076,2878,ɔ_S
1789469449.3805199,2256,2879,ɔ_S
1789469449.382828,2263,2878,ɔ_S
1789469449.385393,2197,2879,ɔ_S
1789469449.386452,2103,2878,ɔ_S
1789469449.388886,2099,2879,ɔ_S
1789469449.390184,2129,2880,ɔ_S
1789469449.39225,1976,2878,ɔ_S
1789469449.394558,1933,2880,ɔ_S
1789469449.397111,2072,2879,ɔ_S
1789469449.3984032,2144,2879,ɔ_S
1789469449.400705,2185,2879,ɔ_S
1789469449.403024,2174,2880,ɔ_S
1789469449.4068952,2069,2879,ɔ_S
1789469449.407358,2164,2879,ɔ_S
1789469449.409508,2060,2879,ɔ_S
1789469449.411435,1932,2878,ɔ_S
1789469449.413013,2068,2879,ɔ_S
1789469449.414884,2163,2878,ɔ_S
1789469449.417422,2206,2880,ɔ_S
1789469449.419509,2160,2880,ɔ_S
1789469449.420813,2059,2878,ɔ_S
1789469449.4231849,2138,2879,ɔ_S
1789469449.426961,2103,2879,ɔ_S
1789469449.427835,2034,2879,ɔ_S
1789469449.429707,2028,2879,ɔ_S
1789469449.431575,2200,2879,ɔ_S
1789469449.433003,2228,2878,ɔ_S
1789469449.434731,2183,2879,ɔ_S
1789469449.437102,2062,2878,ɔ_S
1789469449.439334,2128,2879,ɔ_S
1789469449.440635,2201,2878,ɔ_S
1789469449.44319,2078,2879,ɔ_S
1789469449.44449,2012,2879,ɔ_S
1789469449.447053,2072,2879,ɔ_S
1789469449.448352,2175,2879,ɔ_S
1789469449.450667,2102,2880,ɔ_S
1789469449.453121,2013,2879,ɔ_S
1789469449.4544158,2023,2879,ɔ_S
1789469449.4569652,2151,2879,ɔ_S
1789469449.458257,2085,2880,ɔ_S
1789469449.460742,2004,2878,ɔ_S
1789469449.463047,2045,2879,ɔ_S
1789469449.46434,2195,2878,ɔ_S
1789469449.46647,2232,2881,ɔ_S
1789469449.469046,2138,2880,ɔ_S
1789469449.473672,2041,2881,ɔ_S
1789469449.4737768,2086,2880,ɔ_S
1789469449.476158,2108,2880,ɔ_S
1789469449.4762702,2002,2878,ɔ_S
1789469449.479061,2064,2880,ɔ_S
1789469449.481336,2174,2879,ɔ_S
1789469449.4836538,2196,2879,ɔ_S
1789469449.485452,2174,2879,ɔ_S
1789469449.486507,2127,2879,ɔ_S
1789469449.4890602,2143,2879,ɔ_S
1789469449.49012,2219,2879,ɔ_S
1789469449.492438,2046,2880,ɔ_S
1789469449.4949918,1980,2879,ɔ_S
1789469449.496285,2096,2879,ɔ_S
1789469449.4985971,2158,2880,ɔ_S
1789469449.501014,2111,2881,ɔ_S
1789469449.502306,1997,2879,ɔ_S
1789469449.5048609,2015,2879,ɔ_S
1789469449.507107,2175,2879,ɔ_S
1789469449.508169,2081,2880,ɔ_S
1789469449.510721,1954,2878,ɔ_S
1789469449.51279,2039,2878,ɔ_S
1789469449.515109,2167,2878,ɔ_S
1789469449.516403,2154,2879,ɔ_S
1789469449.521207,2091,2881,ɔ_S
1789469449.5216992,2018,2879,ɔ_S
1789469449.523668,2082,2879,ɔ_S
1789469449.5255182,2135,2880,ɔ_S
1789469449.526767,2032,2877,ɔ_S
1789469449.5288792,2004,2879,ɔ_S
1789469449.53129,2157,2879,ɔ_S
1789469449.5330188,2206,2879,ɔ_S
1789469449.534108,2117,2880,ɔ_S
1789469449.536663,2060,2879,ɔ_S
1789469449.5408,2094,2878,ɔ_S
1789469449.541281,2169,2879,ɔ_S
1789469449.5434382,2013,2880,ɔ_S
1789469449.5450041,1932,2878,ɔ_S
1789469449.546578,2042,2881,ɔ_S
1789469449.548573,2178,2879,ɔ_S
1789469449.550996,2179,2880,ɔ_S
1789469449.552993,2079,2878,ɔ_S
1789469449.554291,2047,2879,ɔ_S
1789469449.556844,2132,2879,ɔ_S
1789469449.5581398,2057,2879,ɔ_S
1789469449.560451,1975,2878,ɔ_S
1789469449.563002,2022,2879,ɔ_S
1789469449.5642948,2152,2878,ɔ_S
1789469449.566844,2160,2878,ɔ_S
1789469449.568136,2116,2880,ɔ_S
1789469449.5706618,2070,2879,ɔ_S
1789469449.573218,2114,2879,ɔ_S
1789469449.574516,2139,2878,ɔ_S
1789469449.57707,1979,2878,ɔ_S
1789469449.578121,1977,2878,ɔ_S
1789469449.5806699,2132,2879,ɔ_S
1789469449.583012,2213,2879,ɔ_S
1789469449.587242,2144,2880,ɔ_S
1789469449.58772,2029,2878,ɔ_S
1789469449.589918,2039,2879,ɔ_S
1789469449.591597,2201,2879,ɔ_S
1789469449.593237,2098,2880,ɔ_S
1789469449.5951831,2005,2879,ɔ_S
1789469449.5975082,2079,2879,ɔ_S
1789469449.599222,2213,2880,ɔ_S
1789469449.600518,2197,2880,ɔ_S
1789469449.602727,2099,2880,ɔ_S
1789469449.605143,2066,2878,ɔ_S
1789469449.6064498,2146,2879,ɔ_S
1789469449.609004,2050,2879,ɔ_S
1789469449.610135,1920,2877,ɔ_S
1789469449.612694,1979,2878,ɔ_S
1789469449.615247,2154,2879,ɔ_S
1789469449.6165419,2177,2878,ɔ_S
1789469449.6188521,2089,2879,ɔ_S
1789469449.6201448,2042,2878,ɔ_S
1789469449.622696,2102,2879,ɔ_S
1789469449.624105,2131,2879,ɔ_S
1789469449.62642,1981,2878,ɔ_S
1789469449.628733,1985,2880,ɔ_S
1789469449.6342888,2118,2879,ɔ_S
1789469449.634741,2174,2879,ɔ_S
1789469449.635247,2134,2879,ɔ_S
1789469449.639217,2040,2879,ɔ_S
1789469449.639348,2042,2880,ɔ_S
1789469449.641643,2121,2880,ɔ_S
1789469449.643122,1976,2877,ɔ_S
1789469449.645491,1938,2880,ɔ_S
1789469449.647634,2067,2878,ɔ_S
1789469449.648937,2233,2878,ɔ_S
1789469449.6502311,2163,2881,ɔ_S
1789469449.65511,2116,2879,ɔ_S
1789469449.655957,2062,2878,ɔ_S
1789469449.656733,2195,2879,ɔ_S
1789469449.6601112,2164,2880,ɔ_S
1789469449.6605709,1996,2877,ɔ_S
1789469449.663263,2018,2879,ɔ_S
1789469449.665591,2204,2878,ɔ_S
1789469449.667684,2202,2877,ɔ_S
1789469449.66899,2131,2879,ɔ_S
1789469449.670283,2066,2879,ɔ_S
1789469449.672349,2101,2878,ɔ_S
1789469449.674664,2128,2879,ɔ_S
1789469449.677214,2020,2878,ɔ_S
1789469449.678331,1975,2878,ɔ_S
1789469449.680882,2109,2881,ɔ_S
1789469449.6831932,2176,2879,ɔ_S
1789469449.684248,2119,2880,ɔ_S
1789469449.6865652,2041,2879,ɔ_S
1789469449.6891189,2062,2880,ɔ_S
1789469449.690177,2151,2878,ɔ_S
1789469449.692493,2036,2878,ɔ_S
1789469449.694939,1930,2880,ɔ_S
1789469449.696233,2072,2879,ɔ_S
1789469449.6987698,2196,2879,ɔ_S
1789469449.703444,2169,2881,ɔ_S
1789469449.7035022,2055,2878,ɔ_S
1789469449.705426,2036,2879,ɔ_S
1789469449.707712,2145,2880,ɔ_S
1789469449.710735,2110,2880,ɔ_S
1789469449.710932,1997,2878,ɔ_S
1789469449.7131531,2056,2880,ɔ_S
1789469449.715369,2198,2878,ɔ_S
1789469449.716668,2170,2879,ɔ_S
1789469449.719153,2110,2878,ɔ_S
1789469449.7232761,2032,2878,ɔ_S
1789469449.723632,2108,2879,ɔ_S
1789469449.7255092,2146,2879,ɔ_S
1789469449.7272809,1993,2877,ɔ_S
1789469449.72855,1973,2879,ɔ_S
1789469449.730463,2092,2880,ɔ_S
1789469449.732587,2186,2878,ɔ_S
1789469449.734405,2134,2880,ɔ_S
1789469449.7364721,2055,2879,ɔ_S
1789469449.7390301,2082,2879,ɔ_S
1789469449.740339,2159,2879,ɔ_S
1789469449.7427928,2007,2879,ɔ_S
1789469449.7440882,1963,2877,ɔ_S
1789469449.746639,2044,2880,ɔ_S
1789469449.749065,2141,2880,ɔ_S
1789469449.750359,2186,2880,ɔ_S
1789469449.752823,2092,2880,ɔ_S
1789469449.7551339,2059,2879,ɔ_S
1789469449.756186,2109,2879,ɔ_S
1789469449.7587368,2066,2878,ɔ_S
1789469449.760114,1970,2877,ɔ_S
1789469449.7624261,2023,2878,ɔ_S
1789469449.764732,2122,2879,ɔ_S
1789469449.769053,2161,2877,ɔ_S
1789469449.769444,2111,2880,ɔ_S
1789469449.7715359,2057,2879,ɔ_S
1789469449.7734468,2086,2879,ɔ_S
1789469449.774633,2126,2880,ɔ_S
1789469449.776535,2001,2878,ɔ_S
1789469449.778801,2011,2879,ɔ_S
1789469449.7809432,2077,2879,ɔ_S
1789469449.7822452,2162,2880,ɔ_S
1789469449.784557,2135,2878,ɔ_S
1789469449.7866209,2027,2878,ɔ_S
1789469449.788945,2025,2879,ɔ_S
1789469449.790138,2121,2879,ɔ_S
1789469449.7924569,2025,2879,ɔ_S
1789469449.7950149,1914,2878,ɔ_S
1789469449.796312,2041,2879,ɔ_S
1789469449.7988632,2205,2878,ɔ_S
1789469449.800155,2225,2881,ɔ_S
1789469449.802471,2171,2880,ɔ_S
1789469449.805019,2091,2878,ɔ_S
1789469449.806313,2113,2879,ɔ_S
1789469449.808791,2070,2880,ɔ_S
1789469449.810087,1971,2878,ɔ_S
1789469449.8157282,2015,2878,ɔ_S
1789469449.816287,2145,2878,ɔ_S
1789469449.817111,2176,2879,ɔ_S
1789469449.8187368,2080,2880,ɔ_S
1789469449.820549,2059,2879,ɔ_S
1789469449.823594,2095,2879,ɔ_S
1789469449.825609,2135,2878,ɔ_S
1789469449.827529,1972,2877,ɔ_S
1789469449.828824,1948,2879,ɔ_S
1789469449.831264,2120,2879,ɔ_S
1789469449.8325582,2181,2880,ɔ_S
1789469449.8348732,2058,2880,ɔ_S
1789469449.8370051,2051,2880,ɔ_S
1789469449.838167,2046,2879,ɔ_S
1789469449.840717,2224,2879,ɔ_S
1789469449.843015,2066,2881,ɔ_S
1789469449.844061,1981,2878,ɔ_S
1789469449.846373,2039,2880,ɔ_S
1789469449.848684,2169,2879,ɔ_S
1789469449.850987,2212,2881,ɔ_S
1789469449.853288,2069,2879,ɔ_S
1789469449.854462,1987,2879,ɔ_S
1789469449.860682,2145,2879,ɔ_S
1789469449.8607512,2088,2880,ɔ_S
1789469449.860873,1996,2878,ɔ_S
1789469449.8629608,2038,2878,ɔ_S
1789469449.86482,2136,2878,ɔ_S
1789469449.866671,2209,2877,ɔ_S
1789469449.869832,2091,2880,ɔ_S
1789469449.871841,1985,2878,ɔ_S
1789469449.87302,2057,2878,ɔ_S
1789469449.874309,2174,2879,ɔ_S
1789469449.87662,1929,2877,ɔ_S
1789469449.8789508,2004,2879,ɔ_S
1789469449.880243,2112,2879,ɔ_S
1789469449.882549,2157,2879,ɔ_S
1789469449.885098,2116,2879,ɔ_S
1789469449.886386,2047,2879,ɔ_S
1789469449.888696,2038,2879,ɔ_S
1789469449.8907561,2178,2879,ɔ_S
1789469449.892053,2054,2880,ɔ_S
1789469449.894597,2014,2879,ɔ_S
1789469449.8960378,2145,2880,ɔ_S
1789469449.898356,2178,2878,ɔ_S
1789469449.904788,2116,2878,ɔ_S
1789469449.905175,2172,2879,ɔ_S
1789469449.9052851,1990,2878,ɔ_S
1789469449.907061,2093,2879,ɔ_S
1789469449.909185,2170,2879,ɔ_S
1789469449.9119208,1889,2877,ɔ_S
1789469449.913831,1871,2879,ɔ_S
1789469449.915753,2126,2878,ɔ_S
1789469449.916842,2182,2878,ɔ_S
1789469449.918904,2148,2880,ɔ_S
1789469449.92021,1993,2878,ɔ_S
1789469449.922533,2023,2878,ɔ_S
1789469449.925092,2233,2879,ɔ_S
1789469449.926385,2112,2879,ɔ_S
1789469449.9289339,1764,2877,ɔ_S
1789469449.930225,2031,2878,ɔ_S
1789469449.932296,2261,2879,ɔ_S
1789469449.934815,2110,2880,ɔ_S
1789469449.937116,1965,2879,ɔ_S
1789469449.9384089,1916,2878,ɔ_S
1789469449.940716,2158,2879,ɔ_S
1789469449.942781,1979,2879,ɔ_S
1789469449.9440582,1883,2877,ɔ_S
1789469449.9492009,2039,2879,ɔ_S
1789469449.949627,2240,2878,ɔ_S
1789469449.951869,2198,2880,ɔ_S
1789469449.953315,1999,2879,ɔ_S
1789469449.95542,1964,2879,ɔ_S
1789469449.957398,2240,2879,ɔ_S
1789469449.959525,2096,2879,ɔ_S
1789469449.96122,2017,2878,ɔ_S
1789469449.9625201,1773,2879,ɔ_S
1789469449.965106,2009,2878,ɔ_S
1789469449.9662201,2236,2879,ɔ_S
1789469449.9687831,2211,2879,ɔ_S
1789469449.970078,2031,2878,ɔ_S
1789469449.972384,2110,2879,ɔ_S
1789469449.9749398,2331,2880,ɔ_S
1789469449.9759948,1838,2877,ɔ_S
1789469449.9783812,1765,2879,ɔ_S
1789469449.980875,1933,2878,ɔ_S
1789469449.981992,2137,2879,ɔ_S
1789469449.984299,2249,2881,ɔ_S
1789469449.986603,2166,2879,ɔ_S
1789469449.987975,1727,2879,ɔ_S
1789469449.990289,1938,2878,ɔ_S
1789469449.996307,1998,2876,ɔ_S
1789469449.997119,2091,2879,ɔ_S
1789469449.997608,2149,2879,ɔ_S
1789469449.9991522,2118,2878,ɔ_S
1789469450.000839,2095,2879,ɔ_S
1789469450.002272,1864,2877,ɔ_S
1789469450.0058181,2052,2879,ɔ_S
1789469450.007791,2184,2878,ɔ_S
1789469450.009086,1994,2879,ɔ_S
1789469450.010138,1921,2878,ɔ_S
1789469450.012449,1885,2879,ɔ_S
1789469450.014533,2026,2878,ɔ_S
1789469450.0170891,2123,2878,ɔ_S
1789469450.018143,2182,2880,ɔ_S
1789469450.020442,2149,2879,ɔ_S
1789469450.022885,2042,2878,ɔ_S
1789469450.0239959,2114,2879,ɔ_S
1789469450.026113,1883,2878,ɔ_S
1789469450.0284219,1603,2878,ɔ_S
1789469450.0305338,2041,2878,ɔ_S
1789469450.0326889,2422,2881,ɔ_S
1789469450.033997,2218,2880,ɔ_S
1789469450.0404859,2071,2879,ɔ_S
1789469450.040573,1797,2879,ɔ_S
1789469450.041363,2058,2878,ɔ_S
1789469450.042973,1852,2878,ɔ_S
1789469450.044779,2027,2879,ɔ_S
1789469450.0478652,2023,2879,ɔ_S
1789469450.0499148,2255,2879,ɔ_S
1789469450.050056,2279,2879,ɔ_S
1789469450.052885,1860,2879,ɔ_S
1789469450.053984,2158,2878,ɔ_S
1789469450.056533,2185,2878,ɔ_S
1789469450.058859,2055,2879,ɔ_S
1789469450.0600882,1952,2878,ɔ_S
1789469450.062635,1868,2878,ɔ_S
1789469450.0640159,1899,2880,ɔ_S
1789469450.066326,2055,2878,ɔ_S
1789469450.068851,1781,2876,ɔ_S
1789469450.0699708,1982,2878,ɔ_S
1789469450.072524,1928,2879,ɔ_S
1789469450.0750778,2071,2880,ɔ_S
1789469450.0763688,1978,2877,ɔ_S
1789469450.078677,1841,2878,ɔ_S
1789469450.0807328,2118,2879,ɔ_S
1789469450.085309,2425,2881,ɔ_S
1789469450.0857432,2258,2880,ɔ_S
1789469450.087775,1988,2879,ɔ_S
1789469450.0896268,1759,2878,ɔ_S
1789469450.0912,1879,2880,ɔ_S
1789469450.092742,1990,2878,ɔ_S
1789469450.094784,2064,2878,ɔ_S
1789469450.096718,1937,2879,ɔ_S
1789469450.098018,2136,2879,ɔ_S
1789469450.100312,1857,2877,ɔ_S
1789469450.102776,1953,2879,ɔ_S
1789469450.105144,1771,2878,ɔ_S
1789469450.1064372,1748,2877,ɔ_S
1789469450.1087549,2201,2880,ɔ_S
1789469450.1100512,2063,2877,ɔ_S
1789469450.1126,2445,2881,ɔ_S
1789469450.114839,2033,2878,ɔ_S
1789469450.117148,1983,2877,ɔ_S
1789469450.118438,2086,2880,ɔ_S
1789469450.120745,1961,2878,ɔ_S
1789469450.12306,1980,2879,ɔ_S
1789469450.1243541,2022,2879,ɔ_S
1789469450.1307478,1700,2877,ɔ_S
1789469450.132014,1726,2878,ɔ_S
1789469450.133375,1881,2878,ɔ_S
1789469450.133537,2048,2878,ɔ_S
1789469450.135093,1747,2877,ɔ_S
1789469450.137113,2354,2879,ɔ_S
1789469450.1389482,2095,2879,ɔ_S
1789469450.141103,2391,2879,ɔ_S
1789469450.142826,1973,2878,ɔ_S
1789469450.143975,1655,2880,ɔ_S
1789469450.146294,1725,2879,ɔ_S
1789469450.150646,2293,2879,ɔ_S
1789469450.151042,1520,2877,ɔ_S
1789469450.153606,1604,2877,ɔ_S
1789469450.1554198,2025,2878,ɔ_S
1789469450.156798,2198,2880,ɔ_S
1789469450.158922,2014,2878,ɔ_S
1789469450.161058,1571,2878,ɔ_S
1789469450.163305,1540,2879,ɔ_S
1789469450.164602,1911,2878,ɔ_S
1789469450.167159,1894,2879,ɔ_S
1789469450.168227,1776,2877,ɔ_S
1789469450.1705458,1642,2877,ɔ_S
1789469450.172868,1638,2879,ɔ_S
1789469450.174164,1653,2876,ɔ_S
1789469450.176277,1764,2877,ɔ_S
1789469450.178827,1785,2877,ɔ_S
1789469450.18012,1745,2879,ɔ_S
1789469450.182431,1992,2878,ɔ_S
1789469450.18474,2129,2880,ɔ_S
1789469450.1860301,1885,2880,ɔ_S
1789469450.188223,1600,2875,ɔ_S
1789469450.19077,1839,2879,ɔ_S
1789469450.192065,1900,2877,ɔ_S
1789469450.197624,1687,2879,ɔ_S
1789469450.197713,1825,2877,ɔ_S
1789469450.199413,2126,2878,ɔ_S
1789469450.2008991,2279,2881,ɔ_S
1789469450.202743,2004,2880,ɔ_S
1789469450.204433,1801,2878,ɔ_S
1789469450.206526,2098,2879,ɔ_S
1789469450.20824,1975,2880,ɔ_S
1789469450.210558,1797,2877,ɔ_S
1789469450.213114,1804,2879,ɔ_S
1789469450.214178,1924,2879,ɔ_S
1789469450.216489,2000,2878,ɔ_S
1789469450.2186859,2047,2879,ɔ_S
1789469450.2209868,1909,2879,ɔ_S
1789469450.2225122,1820,2879,ɔ_S
1789469450.224146,2022,2880,ɔ_S
1789469450.226849,1927,2878,ɔ_S
1789469450.2281659,2157,2879,ɔ_S
1789469450.230728,2176,2878,ɔ_S
1789469450.233035,2137,2878,ɔ_S
1789469450.2343318,2019,2877,ɔ_S
1789469450.236402,2015,2879,ɔ_S
1789469450.242218,2148,2879,ɔ_S
1789469450.2439969,2081,2879,ɔ_S
1789469450.245306,1994,2879,ɔ_S
1789469450.245486,1826,2878,ɔ_S
1789469450.2472022,1885,2878,ɔ_S
1789469450.248516,2018,2880,ɔ_S
1789469450.250741,2141,2878,ɔ_S
1789469450.2531211,2132,2880,ɔ_S
1789469450.2554398,2065,2879,ɔ_S
1789469450.256746,1907,2879,ɔ_S
1789469450.2588758,2100,2879,ɔ_S
1789469450.263613,2148,2877,ɔ_S
1789469450.2644632,1908,2878,ɔ_S
1789469450.2648761,2117,2879,ɔ_S
1789469450.268197,2200,2878,ɔ_S
1789469450.268655,1995,2880,ɔ_S
1789469450.271298,1976,2879,ɔ_S
1789469450.2735739,2058,2878,ɔ_S
1789469450.275578,2153,2879,ɔ_S
1789469450.276879,1796,2878,ɔ_S
1789469450.2781749,2126,2879,ɔ_S
1789469450.28025,2040,2879,ɔ_S
1789469450.282808,2237,2878,ɔ_S
1789469450.284105,2141,2880,ɔ_S
1789469450.2862442,2137,2878,ɔ_S
1789469450.288803,1988,2879,ɔ_S
1789469450.290097,2352,2880,ɔ_S
1789469450.292156,2075,2879,ɔ_S
1789469450.294213,2012,2879,ɔ_S
1789469450.2967649,1975,2879,ɔ_S
1789469450.298058,2223,2879,ɔ_S
1789469450.300363,2103,2878,ɔ_S
1789469450.3029099,2119,2879,ɔ_S
1789469450.3042061,1919,2878,ɔ_S
1789469450.310176,2190,2879,ɔ_S
1789469450.3109682,2301,2879,ɔ_S
1789469450.311471,1917,2878,ɔ_S
1789469450.313012,1886,2879,ɔ_S
1789469450.314532,2050,2880,ɔ_S
1789469450.3180642,2196,2879,ɔ_S
1789469450.318181,2123,2881,ɔ_S
1789469450.320606,2030,2878,ɔ_S
1789469450.3227131,2122,2878,ɔ_S
1789469450.3240142,2077,2880,ɔ_S
1789469450.330494,2152,2879,ɔ_S
1789469450.330891,1752,2876,ɔ_S
1789469450.331659,2075,2879,ɔ_S
1789469450.3341708,2095,2879,ɔ_S
1789469450.3345659,1990,2877,ɔ_S
1789469450.336551,1962,2880,ɔ_S
1789469450.338318,2131,2880,ɔ_S
1789469450.340569,2018,2878,ɔ_S
1789469450.3426728,2167,2881,ɔ_S
1789469450.3450282,1780,2878,ɔ_S
1789469450.346327,1977,2878,ɔ_S
1789469450.3486469,2147,2880,ɔ_S
1789469450.349941,2222,2878,ɔ_S
1789469450.352248,1990,2880,ɔ_S
1789469450.354644,1902,2879,ɔ_S
1789469450.3559418,2105,2877,ɔ_S
1789469450.358494,2121,2879,ɔ_S
1789469450.3610601,1890,2878,ɔ_S
1789469450.362358,1973,2878,ɔ_S
1789469450.364664,2118,2879,ɔ_S
1789469450.365957,2301,2879,ɔ_S
1789469450.368405,2280,2880,ɔ_S
1789469450.370954,2053,2879,ɔ_S
1789469450.372246,1989,2878,ɔ_S
1789469450.377707,2195,2879,ɔ_S
1789469450.378558,2135,2880,ɔ_S
1789469450.37896,1923,2878,ɔ_S
1789469450.380338,2053,2879,ɔ_S
1789469450.3819368,2231,2878,ɔ_S
1789469450.3853068,2171,2881,ɔ_S
1789469450.387462,2087,2880,ɔ_S
1789469450.3891819,1926,2879,ɔ_S
1789469450.390257,2206,2880,ɔ_S
1789469450.392462,2018,2879,ɔ_S
1789469450.3947861,1910,2877,ɔ_S
1789469450.396078,2008,2878,ɔ_S
1789469450.398378,2284,2879,ɔ_S
1789469450.400573,2465,2882,ɔ_S
1789469450.402881,1803,2877,ɔ_S
1789469450.403929,2086,2879,ɔ_S
1789469450.406475,2133,2878,ɔ_S
1789469450.4085429,2178,2880,ɔ_S
1789469450.409881,1944,2877,ɔ_S
1789469450.4124422,2000,2878,ɔ_S
1789469450.415207,2063,2879,ɔ_S
1789469450.4164999,2211,2879,ɔ_S
1789469450.421969,2041,2879,ɔ_S
1789469450.4224708,2012,2878,ɔ_S
1789469450.423316,1986,2878,ɔ_S
1789469450.425219,2082,2879,ɔ_S
1789469450.43676,2171,2880,ɔ_S
1789469450.4368021,1900,2878,ɔ_S
1789469450.436836,2276,2879,ɔ_S
1789469450.4368682,2055,2878,ɔ_S
1789469450.4369001,2179,2880,ɔ_S
1789469450.436934,2072,2880,ɔ_S
1789469450.440716,2232,2880,ɔ_S
1789469450.440813,2069,2879,ɔ_S
1789469450.442202,1953,2880,ɔ_S
1789469450.457458,1862,2877,ɔ_S
1789469450.457505,1973,2880,ɔ_S
1789469450.45754,2199,2878,ɔ_S
1789469450.457576,2241,2880,ɔ_S
1789469450.457609,2113,2880,ɔ_S
1789469450.457641,2068,2879,ɔ_S
1789469450.457673,2201,2879,ɔ_S
1789469450.4844558,2298,2879,ɔ_S
1789469450.4845939,1816,2877,ɔ_S
1789469450.484642,1953,2878,ɔ_S
1789469450.4846778,2113,2879,ɔ_S
1789469450.484712,2192,2878,ɔ_S
1789469450.484745,2126,2878,ɔ_S
1789469450.484777,2075,2879,ɔ_S
1789469450.4848099,2049,2878,ɔ_S
1789469450.4848409,2160,2878,ɔ_S
1789469450.484873,1958,2877,ɔ_S
1789469450.484904,1908,2878,ɔ_S
1789469450.484936,2152,2878,ɔ_S
1789469450.484968,2196,2878,ɔ_S
1789469450.485,2099,2878,ɔ_S
1789469450.4860852,2118,2878,ɔ_S
1789469450.488717,1842,2878,ɔ_S
1789469450.490007,2259,2879,ɔ_S
1789469450.492192,2024,2879,ɔ_S
1789469450.4950662,1935,2878,ɔ_S
1789469450.500324,2264,2879,ɔ_S
1789469450.500366,1844,2878,ɔ_S
1789469450.500402,2232,2878,ɔ_S
1789469450.506811,2181,2879,ɔ_S
1789469450.507082,1959,2878,ɔ_S
1789469450.507201,2153,2879,ɔ_S
1789469450.508532,2106,2879,ɔ_S
1789469450.509857,1957,2877,ɔ_S
1789469450.512275,2014,2879,ɔ_S
1789469450.514852,2144,2879,ɔ_S
1789469450.520373,2177,2879,ɔ_S
1789469450.521418,2179,2880,ɔ_S
1789469450.522012,2024,2878,ɔ_S
1789469450.522618,2128,2879,ɔ_S
1789469450.523965,2124,2879,ɔ_S
1789469450.52764,2057,2879,ɔ_S
1789469450.52952,1891,2878,ɔ_S
1789469450.5322108,2051,2878,ɔ_S
1789469450.5324202,2103,2878,ɔ_S
1789469450.534768,2151,2880,ɔ_S
1789469450.5360708,2022,2878,ɔ_S
1789469450.5384982,1986,2878,ɔ_S
1789469450.5438342,2206,2878,ɔ_S
1789469450.544371,2181,2880,ɔ_S
1789469450.54613,1888,2877,ɔ_S
1789469450.5463738,1940,2878,ɔ_S
1789469450.548332,2160,2878,ɔ_S
1789469450.550394,2233,2878,ɔ_S
1789469450.552261,2114,2879,ɔ_S
1789469450.555001,1990,2879,ɔ_S
1789469450.557413,2079,2879,ɔ_S
1789469450.558485,2105,2879,ɔ_S
1789469450.559874,1915,2878,ɔ_S
1789469450.56246,1889,2878,ɔ_S
1789469450.5650828,2103,2879,ɔ_S
1789469450.5663989,2313,2879,ɔ_S
1789469450.568726,2483,2880,ɔ_S
1789469450.5698361,1915,2879,ɔ_S
1789469450.572408,2119,2878,ɔ_S
1789469450.5747259,2265,2879,ɔ_S
1789469450.575778,2050,2880,ɔ_S
1789469450.578105,1897,2878,ɔ_S
1789469450.580672,2013,2881,ɔ_S
1789469450.582996,2273,2879,ɔ_S
1789469450.5842948,2064,2879,ɔ_S
1789469450.586889,2025,2880,ɔ_S
1789469450.587948,1955,2878,ɔ_S
1789469450.591253,2191,2878,ɔ_S
1789469450.595971,2130,2880,ɔ_S
1789469450.5966022,1968,2878,ɔ_S
1789469450.598457,1999,2878,ɔ_S
1789469450.5986938,2008,2879,ɔ_S
1789469450.600906,2141,2878,ɔ_S
1789469450.60214,2081,2879,ɔ_S
1789469450.604702,2010,2878,ɔ_S
1789469450.607401,2017,2879,ɔ_S
1789469450.609888,2124,2879,ɔ_S
1789469450.6099288,2001,2877,ɔ_S
1789469450.6123352,2058,2879,ɔ_S
1789469450.6182761,2075,2879,ɔ_S
1789469450.618403,2270,2879,ɔ_S
1789469450.6189399,2117,2881,ɔ_S
1789469450.6211379,2073,2878,ɔ_S
1789469450.62321,2028,2878,ɔ_S
1789469450.625178,2169,2879,ɔ_S
1789469450.626744,2123,2879,ɔ_S
1789469450.629566,1916,2877,ɔ_S
1789469450.629809,2017,2878,ɔ_S
1789469450.632391,2125,2879,ɔ_S
1789469450.6337569,2175,2877,ɔ_S
1789469450.636271,2082,2880,ɔ_S
1789469450.638837,2071,2879,ɔ_S
1789469450.640173,2154,2879,ɔ_S
1789469450.64226,2075,2878,ɔ_S
1789469450.644716,1936,2877,ɔ_S
1789469450.645764,2062,2879,ɔ_S
1789469450.64832,2165,2878,ɔ_S
1789469450.650644,2205,2878,ɔ_S
1789469450.65194,2099,2879,ɔ_S
1789469450.654507,1999,2879,ɔ_S
1789469450.656831,2046,2878,ɔ_S
1789469450.657896,2097,2879,ɔ_S
1789469450.6604538,1909,2877,ɔ_S
1789469450.6625159,1896,2879,ɔ_S
1789469450.663789,2128,2879,ɔ_S
1789469450.668421,2205,2879,ɔ_S
1789469450.668583,2153,2879,ɔ_S
1789469450.671587,2073,2878,ɔ_S
1789469450.671815,2019,2879,ɔ_S
1789469450.6750998,2163,2879,ɔ_S
1789469450.677409,2028,2879,ɔ_S
1789469450.68001,1923,2878,ɔ_S
1789469450.680277,2050,2879,ɔ_S
1789469450.68256,2170,2879,ɔ_S
1789469450.683864,2212,2880,ɔ_S
1789469450.6864698,2137,2879,ɔ_S
1789469450.691006,2003,2878,ɔ_S
1789469450.691458,2110,2879,ɔ_S
1789469450.693538,2126,2879,ɔ_S
1789469450.695253,1944,2877,ɔ_S
1789469450.6965601,2018,2879,ɔ_S
1789469450.699214,2124,2879,ɔ_S
1789469450.7016802,2197,2879,ɔ_S
1789469450.7020018,2098,2879,ɔ_S
1789469450.7038531,1995,2879,ɔ_S
1789469450.706424,2109,2879,ɔ_S
1789469450.707774,2186,2880,ɔ_S
1789469450.710079,1966,2877,ɔ_S
1789469450.71242,1977,2878,ɔ_S
1789469450.7137642,2111,2879,ɔ_S
1789469450.716318,2189,2879,ɔ_S
1789469450.7186408,2124,2879,ɔ_S
1789469450.7199419,2019,2879,ɔ_S
1789469450.722016,2066,2879,ɔ_S
1789469450.7245,2209,2879,ɔ_S
1789469450.725798,2051,2879,ɔ_S
1789469450.728352,1926,2877,ɔ_S
1789469450.730429,2119,2880,ɔ_S
1789469450.731765,2258,2878,ɔ_S
1789469450.7343192,2246,2880,ɔ_S
1789469450.736607,2135,2879,ɔ_S
1789469450.741635,2030,2878,ɔ_S
1789469450.741756,2125,2878,ɔ_S
1789469450.7422888,2090,2879,ɔ_S
1789469450.744668,1902,2877,ɔ_S
1789469450.746349,2035,2878,ɔ_S
1789469450.748428,2204,2879,ɔ_S
1789469450.750352,2241,2881,ɔ_S
1789469450.753078,2144,2879,ɔ_S
1789469450.755554,2065,2878,ɔ_S
1789469450.7568572,2107,2878,ɔ_S
1789469450.7579079,2159,2879,ɔ_S
1789469450.763329,1954,2878,ɔ_S
1789469450.763795,1891,2878,ɔ_S
1789469450.764308,2050,2879,ɔ_S
1789469450.765959,2136,2878,ɔ_S
1789469450.7694788,2079,2880,ɔ_S
1789469450.77146,2008,2878,ɔ_S
1789469450.773949,1996,2880,ɔ_S
1789469450.774108,2148,2879,ɔ_S
1789469450.776271,2018,2879,ɔ_S
1789469450.778348,1847,2877,ɔ_S
1789469450.779735,1995,2879,ɔ_S
1789469450.782059,2157,2878,ɔ_S
1789469450.784202,2154,2880,ɔ_S
1789469450.7865548,2056,2879,ɔ_S
1789469450.787732,1976,2878,ɔ_S
1789469450.790284,2130,2879,ɔ_S
1789469450.792598,2125,2880,ɔ_S
1789469450.7938921,1899,2879,ɔ_S
1789469450.7964501,1917,2880,ɔ_S
1789469450.798768,2110,2879,ɔ_S
1789469450.800064,2230,2877,ɔ_S
1789469450.802617,2067,2878,ɔ_S
1789469450.8037279,2050,2879,ɔ_S
1789469450.806289,2081,2878,ɔ_S
1789469450.8131268,2208,2879,ɔ_S
1789469450.8132632,2000,2878,ɔ_S
1789469450.813716,1981,2879,ɔ_S
1789469450.814158,2283,2879,ɔ_S
1789469450.815893,2266,2878,ɔ_S
1789469450.819173,2196,2881,ɔ_S
1789469450.823879,2089,2879,ɔ_S
1789469450.824053,2058,2877,ɔ_S
1789469450.824196,2207,2878,ɔ_S
1789469450.826575,2146,2878,ɔ_S
1789469450.82788,1915,2878,ɔ_S
1789469450.829955,2022,2879,ɔ_S
1789469450.834573,2221,2879,ɔ_S
1789469450.835087,2332,2881,ɔ_S
1789469450.837404,2206,2879,ɔ_S
1789469450.839366,2019,2879,ɔ_S
1789469450.84128,2150,2879,ɔ_S
1789469450.8426502,2265,2879,ɔ_S
1789469450.845081,2032,2879,ɔ_S
1789469450.847393,2066,2878,ɔ_S
1789469450.8484511,2207,2879,ɔ_S
1789469450.8497548,2277,2881,ɔ_S
1789469450.852323,2180,2878,ɔ_S
1789469450.854644,2018,2879,ɔ_S
1789469450.8557281,2029,2879,ɔ_S
1789469450.85828,2186,2880,ɔ_S
1789469450.860595,2065,2877,ɔ_S
1789469450.86189,2116,2879,ɔ_S
1789469450.864437,2132,2878,ɔ_S
1789469450.866751,2184,2877,ɔ_S
1789469450.867797,2191,2880,ɔ_S
1789469450.870096,2310,2879,ɔ_S
1789469450.8726451,2259,2878,ɔ_S
1789469450.8739378,2238,2879,ɔ_S
1789469450.876491,2164,2879,ɔ_S
1789469450.877915,2073,2879,ɔ_S
1789469450.881557,2203,2880,ɔ_S
1789469450.884264,2295,2878,ɔ_S
1789469450.884445,2282,2880,ɔ_S
1789469450.8862772,2131,2879,ɔ_S
1789469450.889556,2113,2878,ɔ_S
1789469450.891964,2225,2879,ɔ_S
1789469450.892128,2165,2878,ɔ_S
1789469450.8943229,2001,2878,ɔ_S
1789469450.896745,2129,2879,ɔ_S
1789469450.897811,2297,2878,ɔ_S
1789469450.900136,2257,2877,ɔ_S
1789469450.902692,2249,2879,ɔ_S
1789469450.903986,2128,2879,ɔ_S
1789469450.906535,2241,2878,ɔ_S
1789469450.907827,2233,2878,ɔ_S
1789469450.9103801,2076,2881,ɔ_S
1789469450.9117272,2070,2878,ɔ_S
1789469450.914033,2214,2879,ɔ_S
1789469450.916585,2293,2879,ɔ_S
1789469450.9177139,2317,2880,ɔ_S
1789469450.920265,2132,2878,ɔ_S
1789469450.922326,2105,2879,ɔ_S
1789469450.92867,2228,2878,ɔ_S
1789469450.928771,2132,2879,ɔ_S
1789469450.929239,2030,2878,ɔ_S
1789469450.931426,2110,2878,ɔ_S
1789469450.9333088,2300,2878,ɔ_S
1789469450.934614,2279,2881,ɔ_S
1789469450.93667,2172,2879,ɔ_S
1789469450.9392068,2146,2878,ɔ_S
1789469450.941233,2229,2878,ɔ_S
1789469450.9425359,2270,2879,ɔ_S
1789469450.943836,1955,2878,ɔ_S
1789469450.948828,1978,2877,ɔ_S
1789469450.949685,2125,2879,ɔ_S
1789469450.9500601,2262,2878,ɔ_S
1789469450.953742,2246,2880,ɔ_S
1789469450.954138,2090,2879,ɔ_S
1789469450.956702,2158,2879,ɔ_S
1789469450.959317,2279,2879,ɔ_S
1789469450.961254,2165,2881,ɔ_S
1789469450.962551,2044,2878,ɔ_S
1789469450.963845,2249,2879,ɔ_S
1789469450.966403,2238,2878,ɔ_S
1789469450.967755,2177,2880,ɔ_S
1789469450.9700701,2048,2879,ɔ_S
1789469450.9726238,2069,2877,ɔ_S
1789469450.9737191,2224,2880,ɔ_S
1789469450.976275,2191,2879,ɔ_S
1789469450.9783401,2033,2878,ɔ_S
1789469450.980729,2123,2880,ɔ_S
1789469450.9820218,2222,2879,ɔ_S
1789469450.9841862,2261,2879,ɔ_S
1789469450.9867399,2134,2880,ɔ_S
1789469450.988033,2045,2879,ɔ_S
1789469450.99058,2146,2879,ɔ_S
1789469450.995452,2153,2879,ɔ_S
1789469450.995893,2006,2878,ɔ_S
1789469450.996368,2029,2878,ɔ_S
1789469450.998535,2186,2879,ɔ_S
1789469451.0003898,2267,2879,ɔ_S
1789469451.00194,2214,2879,ɔ_S
1789469451.005911,2077,2878,ɔ_S
1789469451.006023,2107,2879,ɔ_S
1789469451.008189,2189,2879,ɔ_S
1789469451.01051,2043,2879,ɔ_S
1789469451.011691,2001,2878,ɔ_S
1789469451.014247,2104,2880,ɔ_S
1789469451.0165691,2173,2878,ɔ_S
1789469451.017811,2162,2881,ɔ_S
1789469451.020127,2087,2879,ɔ_S
1789469451.022676,2083,2878,ɔ_S
1789469451.023967,2156,2878,ɔ_S
1789469451.02652,2042,2879,ɔ_S
1789469451.0278149,1929,2878,ɔ_S
1789469451.030127,2085,2880,ɔ_S
1789469451.032676,2234,2879,ɔ_S
1789469451.033976,2222,2880,ɔ_S
1789469451.036531,2140,2880,ɔ_S
1789469451.037618,2048,2879,ɔ_S
1789469451.042559,2154,2878,ɔ_S
1789469451.043096,2206,2881,ɔ_S
1789469451.0448918,2004,2878,ɔ_S
1789469451.046614,2021,2879,ɔ_S
1789469451.0478988,2203,2879,ɔ_S
1789469451.052019,2262,2878,ɔ_S
1789469451.052702,2190,2881,ɔ_S
1789469451.054435,2062,2877,ɔ_S
1789469451.05676,2045,2878,ɔ_S
1789469451.058063,2197,2879,ɔ_S
1789469451.0625448,2033,2880,ɔ_S
1789469451.062986,1989,2879,ɔ_S
1789469451.0650911,2070,2878,ɔ_S
1789469451.066808,2183,2879,ɔ_S
1789469451.068347,2123,2880,ɔ_S
1789469451.072385,2067,2880,ɔ_S
1789469451.072501,2078,2879,ɔ_S
1789469451.074594,2193,2879,ɔ_S
1789469451.0758998,2154,2880,ɔ_S
1789469451.077971,1962,2877,ɔ_S
1789469451.080287,2024,2879,ɔ_S
1789469451.082546,2183,2879,ɔ_S
1789469451.0838,2200,2878,ɔ_S
1789469451.086114,2118,2879,ɔ_S
1789469451.0882392,2027,2878,ɔ_S
1789469451.090552,2105,2879,ɔ_S
1789469451.0916018,2126,2879,ɔ_S
1789469451.094155,1917,2878,ɔ_S
1789469451.096704,1943,2878,ɔ_S
1789469451.097753,2113,2878,ɔ_S
1789469451.09983,2234,2879,ɔ_S
1789469451.102381,2150,2880,ɔ_S
1789469451.104689,2014,2878,ɔ_S
1789469451.109121,2067,2878,ɔ_S
1789469451.109521,2135,2879,ɔ_S
1789469451.110417,2056,2879,ɔ_S
1789469451.112368,1952,2878,ɔ_S
1789469451.114176,2090,2879,ɔ_S
1789469451.117213,2223,2879,ɔ_S
1789469451.119599,2210,2881,ɔ_S
1789469451.119752,2077,2878,ɔ_S
1789469451.122436,2042,2879,ɔ_S
1789469451.1236212,2136,2878,ɔ_S
1789469451.1259441,2111,2879,ɔ_S
1789469451.128504,1998,2877,ɔ_S
1789469451.1297998,2043,2879,ɔ_S
1789469451.132106,2163,2878,ɔ_S
1789469451.134413,2188,2878,ɔ_S
1789469451.1357079,2068,2880,ɔ_S
1789469451.1380212,1984,2879,ɔ_S
1789469451.140321,2066,2880,ɔ_S
1789469451.1426308,2103,2879,ɔ_S
1789469451.143927,1927,2877,ɔ_S
1789469451.1460412,1928,2879,ɔ_S
1789469451.1481469,2049,2879,ɔ_S
1789469451.150698,2189,2878,ɔ_S
1789469451.151884,2116,2880,ɔ_S
1789469451.1561139,2094,2878,ɔ_S
1789469451.1565802,2123,2879,ɔ_S
1789469451.158866,2191,2878,ɔ_S
1789469451.160355,2073,2879,ɔ_S
1789469451.161904,1985,2878,ɔ_S
1789469451.1639109,2074,2879,ɔ_S
1789469451.16627,2157,2879,ɔ_S
1789469451.168418,2216,2880,ɔ_S
1789469451.169729,2126,2878,ɔ_S
1789469451.1720362,2036,2879,ɔ_S
1789469451.174434,2161,2880,ɔ_S
1789469451.175607,2092,2879,ɔ_S
1789469451.177929,1957,2876,ɔ_S
1789469451.1804779,2036,2880,ɔ_S
1789469451.1826031,2145,2880,ɔ_S
1789469451.183657,2186,2878,ɔ_S
1789469451.186211,2103,2880,ɔ_S
1789469451.18878,1990,2879,ɔ_S
1789469451.1898298,2057,2879,ɔ_S
1789469451.1923,2104,2880,ɔ_S
1789469451.193644,1931,2878,ɔ_S
1789469451.196193,1950,2878,ɔ_S
1789469451.198299,2135,2878,ɔ_S
1789469451.203161,2194,2879,ɔ_S
1789469451.2032661,2123,2879,ɔ_S
1789469451.206029,2012,2879,ɔ_S
1789469451.207978,2031,2878,ɔ_S
1789469451.208662,2117,2879,ɔ_S
1789469451.211434,2004,2878,ɔ_S
1789469451.213672,2029,2878,ɔ_S
1789469451.2138822,2095,2880,ɔ_S
1789469451.216768,2205,2878,ɔ_S
1789469451.218007,2157,2880,ɔ_S
1789469451.223444,2062,2878,ɔ_S
1789469451.22386,2039,2879,ɔ_S
1789469451.224309,2166,2879,ɔ_S
1789469451.226154,2092,2880,ɔ_S
1789469451.227714,1977,2878,ɔ_S
1789469451.230975,2024,2878,ɔ_S
1789469451.233189,2137,2879,ɔ_S
1789469451.23492,2228,2880,ɔ_S
1789469451.236228,2150,2880,ɔ_S
1789469451.237608,2063,2878,ɔ_S
1789469451.240174,2084,2878,ɔ_S
1789469451.242728,2139,2879,ɔ_S
1789469451.243788,1951,2878,ɔ_S
1789469451.246337,1964,2878,ɔ_S
1789469451.2476292,2120,2879,ɔ_S
1789469451.250071,2220,2878,ɔ_S
1789469451.252625,2149,2878,ɔ_S
1789469451.2538,2042,2878,ɔ_S
1789469451.256104,2008,2878,ɔ_S
1789469451.258653,2189,2879,ɔ_S
1789469451.259715,2069,2879,ɔ_S
1789469451.262269,1966,2877,ɔ_S
1789469451.264578,2077,2879,ɔ_S
1789469451.2658172,2158,2878,ɔ_S
1789469451.270134,2139,2880,ɔ_S
1789469451.270945,2066,2880,ɔ_S
1789469451.272691,2025,2878,ɔ_S
1789469451.274605,2130,2879,ɔ_S
1789469451.2764642,2087,2880,ɔ_S
1789469451.277892,1945,2878,ɔ_S
1789469451.280184,1988,2879,ɔ_S
1789469451.281931,2136,2878,ɔ_S
1789469451.28425,2179,2879,ɔ_S
1789469451.286874,2085,2879,ɔ_S
1789469451.288175,2047,2878,ɔ_S
1789469451.290486,2121,2879,ɔ_S
1789469451.29161,2160,2880,ɔ_S
1789469451.2940469,2010,2876,ɔ_S
1789469451.2965949,1946,2879,ɔ_S
1789469451.297655,2097,2879,ɔ_S
1789469451.299962,2232,2878,ɔ_S
1789469451.302274,2146,2880,ɔ_S
1789469451.303597,2042,2878,ɔ_S
1789469451.306149,2066,2879,ɔ_S
1789469451.308461,2186,2879,ɔ_S
1789469451.309757,2060,2880,ɔ_S
1789469451.312073,1951,2879,ɔ_S
1789469451.317178,2059,2879,ɔ_S
1789469451.317666,2158,2878,ɔ_S
1789469451.318154,2133,2880,ɔ_S
1789469451.320013,2056,2879,ɔ_S
1789469451.323781,2011,2878,ɔ_S
1789469451.32527,2137,2879,ɔ_S
1789469451.327352,2128,2878,ɔ_S
1789469451.3296158,1976,2878,ɔ_S
1789469451.329663,1967,2878,ɔ_S
1789469451.332215,2176,2878,ɔ_S
1789469451.334782,2139,2879,ɔ_S
1789469451.33584,2070,2879,ɔ_S
1789469451.3383942,2009,2878,ɔ_S
1789469451.339692,2078,2880,ɔ_S
1789469451.341776,2138,2879,ɔ_S
1789469451.3438442,1999,2876,ɔ_S
1789469451.346158,1964,2878,ɔ_S
1789469451.348434,2103,2880,ɔ_S
1789469451.349731,2192,2879,ɔ_S
1789469451.352279,2186,2880,ɔ_S
1789469451.354647,2094,2879,ɔ_S
1789469451.355695,2059,2879,ɔ_S
1789469451.3582468,2101,2878,ɔ_S
1789469451.36036,2003,2879,ɔ_S
1789469451.365067,1914,2878,ɔ_S
1789469451.365506,2080,2878,ɔ_S
1789469451.367722,2213,2879,ɔ_S
1789469451.3678348,2177,2879,ɔ_S
1789469451.370278,2075,2879,ɔ_S
1789469451.373069,2055,2879,ɔ_S
1789469451.375243,2179,2878,ɔ_S
1789469451.3773482,2131,2879,ɔ_S
1789469451.378616,1969,2879,ɔ_S
1789469451.379912,2012,2878,ɔ_S
1789469451.382467,2175,2879,ɔ_S
1789469451.384832,2215,2878,ɔ_S
1789469451.3858922,2125,2879,ɔ_S
1789469451.3882098,2061,2879,ɔ_S
1789469451.3905249,2072,2879,ɔ_S
1789469451.391828,2113,2879,ɔ_S
1789469451.393909,2002,2878,ɔ_S
1789469451.3964632,1957,2880,ɔ_S
1789469451.3977668,2062,2878,ɔ_S
1789469451.400084,2137,2879,ɔ_S
1789469451.4024,2075,2881,ɔ_S
1789469451.4036942,2010,2878,ɔ_S
1789469451.4062421,2057,2879,ɔ_S
1789469451.412436,2179,2879,ɔ_S
1789469451.4129028,2052,2879,ɔ_S
1789469451.413696,2013,2878,ɔ_S
1789469451.4152288,2071,2879,ɔ_S
1789469451.416862,2164,2878,ɔ_S
1789469451.418446,2168,2878,ɔ_S
1789469451.420395,2049,2879,ɔ_S
1789469451.4225202,2010,2879,ɔ_S
1789469451.424164,2113,2880,ɔ_S
1789469451.426719,2112,2878,ɔ_S
1789469451.427768,2119,2879,ɔ_S
1789469451.430013,1840,2878,ɔ_S
1789469451.432565,2010,2880,ɔ_S
1789469451.433856,2223,2880,ɔ_S
1789469451.436406,2225,2880,ɔ_S
1789469451.437697,2111,2879,ɔ_S
1789469451.440243,2084,2878,ɔ_S
1789469451.442394,2124,2878,ɔ_S
1789469451.4447181,2011,2877,ɔ_S
1789469451.4460108,1947,2879,ɔ_S
1789469451.4485602,2228,2879,ɔ_S
1789469451.44963,2097,2879,ɔ_S
1789469451.45195,2104,2880,ɔ_S
1789469451.457042,2078,2878,ɔ_S
1789469451.45749,2010,2879,ɔ_S
1789469451.458302,2146,2878,ɔ_S
1789469451.461022,2046,2879,ɔ_S
1789469451.462603,1952,2879,ɔ_S
1789469451.464243,2052,2878,ɔ_S
1789469451.466203,2180,2879,ɔ_S
1789469451.4682932,2149,2878,ɔ_S
1789469451.4703512,2088,2879,ɔ_S
1789469451.471649,2142,2878,ɔ_S
1789469451.474129,2202,2879,ɔ_S
1789469451.476567,1893,2879,ɔ_S
1789469451.4778612,1870,2877,ɔ_S
1789469451.4804091,2030,2879,ɔ_S
1789469451.481699,2262,2878,ɔ_S
1789469451.484246,2204,2878,ɔ_S
1789469451.486634,2154,2880,ɔ_S
1789469451.4879239,1969,2878,ɔ_S
1789469451.4904718,1973,2878,ɔ_S
1789469451.491762,2164,2879,ɔ_S
1789469451.494307,2018,2878,ɔ_S
1789469451.495598,2069,2879,ɔ_S
1789469451.500971,2059,2878,ɔ_S
1789469451.5014222,2085,2879,ɔ_S
1789469451.503386,2108,2881,ɔ_S
1789469451.504937,2038,2878,ɔ_S
1789469451.50652,2067,2879,ɔ_S
1789469451.5084832,2192,2878,ɔ_S
1789469451.510435,2104,2879,ɔ_S
1789469451.5124831,1990,2878,ɔ_S
1789469451.5137851,1920,2878,ɔ_S
1789469451.516107,2033,2878,ɔ_S
1789469451.5182168,2182,2877,ɔ_S
1789469451.5195131,2114,2880,ɔ_S
1789469451.521822,2057,2879,ɔ_S
1789469451.526585,2144,2878,ɔ_S
1789469451.527628,2065,2880,ɔ_S
1789469451.5288801,1891,2878,ɔ_S
1789469451.529931,1963,2879,ɔ_S
1789469451.532043,2145,2878,ɔ_S
1789469451.534606,2225,2878,ɔ_S
1789469451.535903,2147,2879,ɔ_S
1789469451.5381708,2107,2878,ɔ_S
1789469451.5404868,2028,2878,ɔ_S
1789469451.541781,2114,2879,ɔ_S
1789469451.544089,1928,2877,ɔ_S
1789469451.5488799,1934,2878,ɔ_S
1789469451.549332,2073,2879,ɔ_S
1789469451.551476,2235,2878,ɔ_S
1789469451.553802,2159,2880,ɔ_S
1789469451.554174,1992,2879,ɔ_S
1789469451.556736,1962,2879,ɔ_S
1789469451.558793,2167,2879,ɔ_S
1789469451.56104,2152,2880,ɔ_S
1789469451.5623412,2128,2878,ɔ_S
1789469451.564667,1991,2879,ɔ_S
1789469451.565974,2010,2879,ɔ_S
1789469451.568546,2063,2878,ɔ_S
1789469451.5695932,2035,2880,ɔ_S
1789469451.571676,1872,2879,ɔ_S
1789469451.57423,2026,2878,ɔ_S
1789469451.576552,2115,2880,ɔ_S
1789469451.577611,2018,2878,ɔ_S
1789469451.580172,2133,2879,ɔ_S
1789469451.5815098,2143,2879,ɔ_S
1789469451.583817,2126,2879,ɔ_S
1789469451.586368,2214,2880,ɔ_S
1789469451.587529,2225,2880,ɔ_S
1789469451.589851,2133,2879,ɔ_S
1789469451.596138,2023,2880,ɔ_S
1789469451.596597,1752,2876,ɔ_S
1789469451.5970821,1801,2878,ɔ_S
1789469451.599048,2066,2879,ɔ_S
1789469451.600585,2235,2878,ɔ_S
1789469451.6023948,2203,2880,ɔ_S
1789469451.6040251,1921,2878,ɔ_S
1789469451.606058,1982,2877,ɔ_S
1789469451.6082041,2061,2879,ɔ_S
1789469451.609501,1868,2878,ɔ_S
1789469451.612048,1973,2878,ɔ_S
1789469451.614439,2273,2880,ɔ_S
1789469451.615733,2259,2878,ɔ_S
1789469451.618048,1975,2878,ɔ_S
1789469451.620665,2051,2879,ɔ_S
1789469451.621717,1921,2878,ɔ_S
1789469451.6240268,1995,2880,ɔ_S
1789469451.626199,2055,2879,ɔ_S
1789469451.628503,2204,2881,ɔ_S
1789469451.629792,2254,2882,ɔ_S
1789469451.632025,2090,2878,ɔ_S
1789469451.634571,1801,2879,ɔ_S
1789469451.635861,1935,2879,ɔ_S
1789469451.6407738,1944,2879,ɔ_S
1789469451.6412292,2042,2878,ɔ_S
1789469451.64384,1995,2878,ɔ_S
1789469451.6441028,2014,2880,ɔ_S
1789469451.645615,1716,2879,ɔ_S
1789469451.649049,2029,2878,ɔ_S
1789469451.651087,2236,2879,ɔ_S
1789469451.653132,2135,2879,ɔ_S
1789469451.6544251,2065,2878,ɔ_S
1789469451.655506,1972,2878,ɔ_S
1789469451.657845,2105,2878,ɔ_S
1789469451.660404,1891,2876,ɔ_S
1789469451.661697,1693,2878,ɔ_S
1789469451.663997,1895,2878,ɔ_S
1789469451.666543,2216,2878,ɔ_S
1789469451.667833,2285,2881,ɔ_S
1789469451.670382,2040,2880,ɔ_S
1789469451.6716712,1853,2879,ɔ_S
1789469451.673975,2144,2879,ɔ_S
1789469451.676288,2111,2880,ɔ_S
1789469451.677581,1843,2879,ɔ_S
1789469451.6798232,1869,2878,ɔ_S
1789469451.682142,2016,2879,ɔ_S
1789469451.687179,2163,2880,ɔ_S
1789469451.687985,2245,2879,ɔ_S
1789469451.689292,2058,2878,ɔ_S
1789469451.691508,2190,2879,ɔ_S
1789469451.6919732,2189,2880,ɔ_S
1789469451.694632,1896,2877,ɔ_S
1789469451.6967921,1789,2878,ɔ_S
1789469451.6985102,2124,2879,ɔ_S
1789469451.69957,2195,2878,ɔ_S
1789469451.7017548,1951,2877,ɔ_S
1789469451.7038221,1882,2880,ɔ_S
1789469451.70613,1986,2878,ɔ_S
1789469451.708288,2108,2880,ɔ_S
1789469451.709582,1953,2877,ɔ_S
1789469451.711893,1908,2878,ɔ_S
1789469451.714444,1986,2878,ɔ_S
1789469451.715604,1944,2879,ɔ_S
1789469451.717918,2024,2878,ɔ_S
1789469451.720464,1893,2880,ɔ_S
1789469451.721618,1965,2878,ɔ_S
1789469451.723673,2037,2880,ɔ_S
1789469451.725791,2098,2880,ɔ_S
1789469451.731192,1970,2878,ɔ_S
1789469451.731633,1939,2880,ɔ_S
1789469451.732086,2059,2879,ɔ_S
1789469451.733838,2006,2879,ɔ_S
1789469451.738642,2013,2879,ɔ_S
1789469451.7388318,1979,2879,ɔ_S
1789469451.740768,1998,2878,ɔ_S
1789469451.74275,2183,2878,ɔ_S
1789469451.744054,1888,2878,ɔ_S
1789469451.7461429,1722,2878,ɔ_S
1789469451.7474802,1891,2879,ɔ_S
1789469451.749558,2043,2879,ɔ_S
1789469451.751869,2137,2880,ɔ_S
1789469451.7544188,2050,2878,ɔ_S
1789469451.755594,2128,2878,ɔ_S
1789469451.757896,2103,2878,ɔ_S
1789469451.760216,2010,2879,ɔ_S
1789469451.762275,1905,2877,ɔ_S
1789469451.763566,1925,2877,ɔ_S
1789469451.766112,2037,2879,ɔ_S
1789469451.7683468,2091,2877,ɔ_S
1789469451.769641,2072,2880,ɔ_S
1789469451.771968,1948,2878,ɔ_S
1789469451.776779,2054,2879,ɔ_S
1789469451.776891,2067,2880,ɔ_S
1789469451.778234,1939,2878,ɔ_S
1789469451.780264,1937,2878,ɔ_S
1789469451.7830012,2109,2879,ɔ_S
1789469451.7850409,2123,2879,ɔ_S
1789469451.787016,2021,2880,ɔ_S
1789469451.788318,1895,2879,ɔ_S
1789469451.789611,1971,2878,ɔ_S
1789469451.792189,1997,2878,ɔ_S
1789469451.793515,1905,2877,ɔ_S
1789469451.795827,1835,2879,ɔ_S
1789469451.798377,1933,2878,ɔ_S
1789469451.79967,2073,2879,ɔ_S
1789469451.802219,1990,2877,ɔ_S
1789469451.803522,1905,2879,ɔ_S
1789469451.80607,1922,2879,ɔ_S
1789469451.808141,2062,2880,ɔ_S
1789469451.810444,2058,2879,ɔ_S
1789469451.811734,1992,2878,ɔ_S
1789469451.8142788,2038,2879,ɔ_S
1789469451.8155708,2188,2878,ɔ_S
1789469451.820075,2227,2880,ɔ_S
1789469451.8208158,2113,2879,ɔ_S
1789469451.82254,2032,2878,ɔ_S
1789469451.82407,2133,2878,ɔ_S
1789469451.825739,2110,2880,ɔ_S
1789469451.827678,1914,2879,ɔ_S
1789469451.8296509,1995,2879,ɔ_S
1789469451.832463,2196,2879,ɔ_S
1789469451.833756,2202,2879,ɔ_S
1789469451.836061,2134,2880,ɔ_S
1789469451.8384042,2047,2879,ɔ_S
1789469451.839586,2065,2878,ɔ_S
1789469451.842135,2155,2878,ɔ_S
1789469451.8434649,1989,2877,ɔ_S
1789469451.845783,1935,2878,ɔ_S
1789469451.847862,2083,2878,ɔ_S
1789469451.850167,2248,2879,ɔ_S
1789469451.8515148,2194,2880,ɔ_S
1789469451.8538802,2119,2879,ɔ_S
1789469451.856456,2025,2877,ɔ_S
1789469451.857753,2211,2880,ɔ_S
1789469451.860065,2166,2879,ɔ_S
1789469451.865309,2050,2877,ɔ_S
1789469451.8659148,1987,2878,ɔ_S
1789469451.866035,2128,2879,ɔ_S
1789469451.8680189,2184,2877,ɔ_S
1789469451.8711529,2067,2879,ɔ_S
1789469451.875363,2029,2880,ɔ_S
1789469451.875574,2086,2879,ɔ_S
1789469451.8758469,2107,2878,ɔ_S
1789469451.8778722,1992,2877,ɔ_S
1789469451.880206,1940,2878,ɔ_S
1789469451.88551,2117,2880,ɔ_S
1789469451.88627,2278,2878,ɔ_S
1789469451.886692,2263,2880,ɔ_S
1789469451.888016,2095,2878,ɔ_S
1789469451.8901818,2059,2877,ɔ_S
1789469451.8917718,2233,2879,ɔ_S
1789469451.895201,2048,2879,ɔ_S
1789469451.897354,2053,2879,ɔ_S
1789469451.8987038,2203,2880,ɔ_S
1789469451.9000409,2215,2879,ɔ_S
1789469451.902136,2187,2880,ɔ_S
1789469451.9042041,2153,2880,ɔ_S
1789469451.9065769,2060,2878,ɔ_S
1789469451.907873,2205,2878,ɔ_S
1789469451.909945,2159,2879,ɔ_S
1789469451.9124951,2002,2878,ɔ_S
1789469451.913787,2015,2878,ɔ_S
1789469451.9161081,2097,2880,ɔ_S
1789469451.91818,2175,2878,ɔ_S
1789469451.920495,2031,2879,ɔ_S
1789469451.9215412,2011,2880,ɔ_S
1789469451.923844,2065,2879,ɔ_S
1789469451.9263942,2259,2880,ɔ_S
1789469451.927646,1887,2878,ɔ_S
1789469451.932275,1854,2878,ɔ_S
1789469451.9327621,2137,2879,ɔ_S
1789469451.9349902,2283,2879,ɔ_S
1789469451.937013,2236,2879,ɔ_S
1789469451.938915,1903,2878,ɔ_S
1789469451.940407,2108,2880,ɔ_S
1789469451.9425092,2266,2879,ɔ_S
1789469451.944764,2104,2880,ɔ_S
1789469451.946068,1965,2879,ɔ_S
1789469451.9486258,2118,2879,ɔ_S
1789469451.949687,2229,2879,ɔ_S
1789469451.9521658,2202,2880,ɔ_S
1789469451.95346,2047,2879,ɔ_S
1789469451.955775,1987,2879,ɔ_S
1789469451.9580832,2113,2879,ɔ_S
1789469451.960383,2153,2880,ɔ_S
1789469451.9614341,1960,2878,ɔ_S
1789469451.9638028,2036,2879,ɔ_S
1789469451.9661062,2150,2879,ɔ_S
1789469451.967405,2214,2877,ɔ_S
1789469451.969501,2166,2880,ɔ_S
1789469451.972049,2042,2877,ɔ_S
1789469451.9743629,2089,2878,ɔ_S
1789469451.9792798,2126,2879,ɔ_S
1789469451.9800918,1897,2877,ɔ_S
1789469451.980217,1919,2878,ɔ_S
1789469451.982163,2090,2880,ɔ_S
1789469451.984224,2107,2879,ɔ_S
1789469451.9858072,2154,2880,ɔ_S
1789469451.987495,2070,2880,ɔ_S
1789469451.989686,2062,2879,ɔ_S
1789469451.991771,2199,2878,ɔ_S
1789469451.993841,2073,2880,ɔ_S
1789469451.996166,1995,2877,ɔ_S
1789469451.997474,2052,2879,ɔ_S
1789469452.000028,2194,2879,ɔ_S
1789469452.002342,2228,2880,ɔ_S
1789469452.003635,1957,2879,ɔ_S
1789469452.0059369,2024,2878,ɔ_S
1789469452.008279,2144,2879,ɔ_S
1789469452.009578,2088,2879,ɔ_S
1789469452.018133,1953,2879,ɔ_S
1789469452.018187,1978,2879,ɔ_S
1789469452.0182211,2066,2878,ɔ_S
1789469452.018254,2152,2879,ɔ_S
1789469452.0196428,2110,2878,ɔ_S
1789469452.027431,2046,2878,ɔ_S
1789469452.0292459,2148,2880,ɔ_S
1789469452.0327911,2150,2879,ɔ_S
1789469452.037459,2029,2877,ɔ_S
1789469452.03767,1704,2878,ɔ_S
1789469452.0381088,2171,2878,ɔ_S
1789469452.038483,2251,2879,ɔ_S
1789469452.040334,2117,2880,ɔ_S
1789469452.04103,2025,2879,ɔ_S
1789469452.0411022,2002,2878,ɔ_S
1789469452.042439,2207,2879,ɔ_S
1789469452.0437708,2012,2879,ɔ_S
1789469452.0494988,1917,2878,ɔ_S
1789469452.050465,2035,2878,ɔ_S
1789469452.051997,2183,2879,ɔ_S
1789469452.053845,2145,2879,ɔ_S
1789469452.05442,2098,2880,ɔ_S
1789469452.060307,1888,2878,ɔ_S
1789469452.0606642,2017,2879,ɔ_S
1789469452.06091,2053,2880,ɔ_S
1789469452.063276,1976,2878,ɔ_S
1789469452.0633721,2023,2878,ɔ_S
1789469452.066249,2182,2878,ɔ_S
1789469452.067424,2186,2878,ɔ_S
1789469452.0701,2126,2881,ɔ_S
1789469452.07151,1987,2879,ɔ_S
1789469452.07416,2052,2879,ɔ_S
1789469452.075519,2146,2878,ɔ_S
1789469452.078076,1914,2877,ɔ_S
1789469452.079958,1900,2878,ɔ_S
1789469452.081392,2072,2879,ɔ_S
1789469452.0843148,2142,2878,ɔ_S
1789469452.0856771,2114,2880,ɔ_S
1789469452.088707,1999,2879,ɔ_S
1789469452.090084,2037,2878,ɔ_S
1789469452.091448,2174,2879,ɔ_S
1789469452.0940642,2000,2880,ɔ_S
1789469452.0954869,1896,2878,ɔ_S
1789469452.102419,2031,2880,ɔ_S
1789469452.104403,2138,2878,ɔ_S
1789469452.107358,2132,2877,ɔ_S
1789469452.108429,2044,2880,ɔ_S
1789469452.10907,1983,2878,ɔ_S
1789469452.110107,2134,2877,ɔ_S
1789469452.112032,2112,2879,ɔ_S
1789469452.114914,1952,2878,ɔ_S
1789469452.115149,1990,2879,ɔ_S
1789469452.117912,2234,2880,ɔ_S
1789469452.1179898,2129,2879,ɔ_S
1789469452.1193888,2087,2879,ɔ_S
1789469452.121923,2020,2880,ɔ_S
1789469452.128762,2099,2878,ɔ_S
1789469452.132587,2170,2879,ɔ_S
1789469452.1340559,1986,2877,ɔ_S
1789469452.137151,1961,2878,ɔ_S
1789469452.139914,2049,2880,ɔ_S
1789469452.140209,2135,2879,ɔ_S
1789469452.1408472,2233,2879,ɔ_S
1789469452.1433809,2266,2878,ɔ_S
1789469452.143703,2010,2880,ɔ_S
1789469452.143778,2025,2879,ɔ_S
1789469452.143848,2041,2878,ɔ_S
1789469452.146543,1932,2879,ɔ_S
1789469452.1479208,2080,2879,ɔ_S
1789469452.149485,2146,2879,ɔ_S
1789469452.152132,2168,2881,ɔ_S
1789469452.153485,2045,2878,ɔ_S
1789469452.1561542,2039,2879,ɔ_S
1789469452.157378,2188,2880,ɔ_S
1789469452.160319,2135,2880,ɔ_S
1789469452.161664,1993,2878,ɔ_S
1789469452.1645272,2010,2879,ɔ_S
1789469452.166065,2209,2879,ɔ_S
1789469452.1674361,2186,2879,ɔ_S
1789469452.170057,2058,2879,ɔ_S
1789469452.1714072,1989,2879,ɔ_S
1789469452.174031,2047,2878,ɔ_S
1789469452.175392,2120,2879,ɔ_S
1789469452.178057,1982,2877,ɔ_S
1789469452.1796968,1966,2878,ɔ_S
1789469452.188892,2057,2879,ɔ_S
1789469452.189247,2213,2878,ɔ_S
1789469452.1909509,2105,2880,ɔ_S
1789469452.1924732,2039,2879,ɔ_S
1789469452.19378,2036,2878,ɔ_S
1789469452.200211,2155,2879,ɔ_S
1789469452.203325,2036,2879,ɔ_S
1789469452.203424,1927,2878,ɔ_S
1789469452.203495,2008,2878,ɔ_S
1789469452.2035599,2130,2880,ɔ_S
1789469452.2036228,2121,2878,ɔ_S
1789469452.203687,2102,2879,ɔ_S
1789469452.206574,2083,2879,ɔ_S
1789469452.2194118,2123,2879,ɔ_S
1789469452.222739,2101,2880,ɔ_S
1789469452.226004,1936,2879,ɔ_S
1789469452.2267299,2016,2879,ɔ_S
1789469452.2293818,2175,2879,ɔ_S
1789469452.229503,2191,2880,ɔ_S
1789469452.229582,2086,2879,ɔ_S
1789469452.2296479,2005,2880,ɔ_S
1789469452.22971,2031,2879,ɔ_S
1789469452.2297769,2118,2879,ɔ_S
1789469452.2298398,1955,2879,ɔ_S
1789469452.2299058,1972,2879,ɔ_S
1789469452.23138,2074,2879,ɔ_S
1789469452.2338922,2175,2879,ɔ_S
1789469452.236587,2088,2880,ɔ_S
1789469452.237979,2002,2879,ɔ_S
1789469452.239419,1982,2879,ɔ_S
1789469452.242082,2153,2879,ɔ_S
1789469452.243428,2054,2879,ɔ_S
1789469452.246214,1963,2879,ɔ_S
1789469452.247576,2064,2879,ɔ_S
1789469452.250289,2209,2878,ɔ_S
1789469452.2516448,2185,2881,ɔ_S
1789469452.2543108,2147,2880,ɔ_S
1789469452.255705,2072,2879,ɔ_S
1789469452.258181,2162,2880,ɔ_S
1789469452.259565,2145,2880,ɔ_S
1789469452.2621849,1940,2877,ɔ_S
1789469452.263524,1975,2880,ɔ_S
1789469452.265758,2101,2880,ɔ_S
1789469452.2686028,2163,2878,ɔ_S
1789469452.277663,2090,2880,ɔ_S
1789469452.277954,2011,2878,ɔ_S
1789469452.278432,2092,2879,ɔ_S
1789469452.2811131,2179,2879,ɔ_S
1789469452.281983,1996,2877,ɔ_S
1789469452.286449,1967,2879,ɔ_S
1789469452.28946,2102,2880,ɔ_S
1789469452.290367,2188,2878,ɔ_S
1789469452.290609,2147,2879,ɔ_S
1789469452.293094,2060,2879,ɔ_S
1789469452.293448,2010,2879,ɔ_S
1789469452.293521,2102,2879,ɔ_S
1789469452.293586,2001,2879,ɔ_S
1789469452.296245,1882,2878,ɔ_S
1789469452.297484,2008,2879,ɔ_S
1789469452.305368,2186,2879,ɔ_S
1789469452.308633,2238,2880,ɔ_S
1789469452.308961,2139,2879,ɔ_S
1789469452.311018,2071,2879,ɔ_S
1789469452.312866,2150,2879,ɔ_S
1789469452.3157482,2142,2879,ɔ_S
1789469452.318366,2008,2878,ɔ_S
1789469452.3220851,2006,2879,ɔ_S
1789469452.322869,2117,2879,ɔ_S
1789469452.323334,2171,2877,ɔ_S
1789469452.326116,2140,2879,ɔ_S
1789469452.326553,2066,2879,ɔ_S
1789469452.326625,2136,2880,ɔ_S
1789469452.326689,2220,2879,ɔ_S
1789469452.328033,2084,2879,ɔ_S
1789469452.329459,2009,2877,ɔ_S
1789469452.3322072,2104,2881,ɔ_S
1789469452.333645,2210,2879,ɔ_S
1789469452.336309,2146,2880,ɔ_S
1789469452.3376708,2045,2878,ɔ_S
1789469452.340533,2046,2880,ɔ_S
1789469452.3419461,2137,2879,ɔ_S
1789469452.343363,2024,2879,ɔ_S
1789469452.3460312,1952,2878,ɔ_S
1789469452.347404,2044,2880,ɔ_S
1789469452.349946,2191,2879,ɔ_S
1789469452.355464,2204,2881,ɔ_S
1789469452.3555698,2094,2880,ɔ_S
1789469452.355623,2066,2878,ɔ_S
1789469452.35886,2132,2879,ɔ_S
1789469452.360299,2172,2881,ɔ_S
1789469452.361707,1987,2878,ɔ_S
1789469452.3668852,2005,2878,ɔ_S
1789469452.3673432,2158,2879,ɔ_S
1789469452.3674839,2253,2879,ɔ_S
1789469452.370154,2131,2879,ɔ_S
1789469452.3718789,2106,2879,ɔ_S
1789469452.385016,2129,2879,ɔ_S
1789469452.385801,2244,2879,ɔ_S
1789469452.3858938,2081,2880,ɔ_S
1789469452.3859599,2024,2879,ɔ_S
1789469452.386013,2180,2879,ɔ_S
1789469452.386805,2274,2878,ɔ_S
1789469452.3875892,2218,2880,ɔ_S
1789469452.388248,2134,2880,ɔ_S
1789469452.391864,2101,2878,ɔ_S
1789469452.395426,2183,2878,ɔ_S
1789469452.3958,2040,2880,ɔ_S
1789469452.3964338,1948,2877,ɔ_S
1789469452.4000692,2086,2880,ɔ_S
1789469452.400231,2232,2879,ɔ_S
1789469452.4019089,2252,2880,ɔ_S
1789469452.404164,2164,2880,ɔ_S
1789469452.40533,2058,2879,ɔ_S
1789469452.4074502,2069,2879,ɔ_S
1789469452.409951,2140,2879,ɔ_S
1789469452.411296,2036,2879,ɔ_S
1789469452.419956,1994,2879,ɔ_S
1789469452.420906,2093,2879,ɔ_S
1789469452.42467,2142,2878,ɔ_S
1789469452.425167,2157,2880,ɔ_S
1789469452.4277172,2058,2878,ɔ_S
1789469452.428482,2057,2879,ɔ_S
1789469452.429162,2211,2878,ɔ_S
1789469452.432085,2160,2879,ɔ_S
1789469452.432234,2013,2878,ɔ_S
1789469452.434391,2244,2879,ɔ_S
1789469452.4346519,2255,2879,ɔ_S
1789469452.439002,2212,2881,ɔ_S
1789469452.439407,2096,2879,ɔ_S
1789469452.4422631,2122,2879,ɔ_S
1789469452.442585,2231,2878,ɔ_S
1789469452.44392,2147,2880,ɔ_S
1789469452.445285,2003,2877,ɔ_S
1789469452.447757,2004,2878,ɔ_S
1789469452.450361,2122,2878,ɔ_S
1789469452.451461,2088,2876,ɔ_S
1789469452.4538062,2163,2879,ɔ_S
1789469452.456414,2010,2878,ɔ_S
1789469452.4576871,2051,2879,ɔ_S
1789469452.4602728,2119,2879,ɔ_S
1789469452.461594,1984,2878,ɔ_S
1789469452.463684,1972,2879,ɔ_S
1789469452.4660108,2055,2880,ɔ_S
1789469452.467324,2138,2878,ɔ_S
1789469452.4699252,2289,2880,ɔ_S
1789469452.471227,2217,2879,ɔ_S
1789469452.473957,2134,2880,ɔ_S
1789469452.476362,2120,2879,ɔ_S
1789469452.4777012,1852,2877,ɔ_S
1789469452.480054,1932,2878,ɔ_S
1789469452.4812858,2182,2879,ɔ_S
1789469452.483957,2387,2881,ɔ_S
1789469452.486434,2184,2879,ɔ_S
1789469452.4877708,2054,2879,ɔ_S
1789469452.505675,1975,2878,ɔ_S
1789469452.507155,2171,2879,ɔ_S
1789469452.50802,2154,2879,ɔ_S
1789469452.509891,1944,2879,ɔ_S
1789469452.513317,1917,2878,ɔ_S
1789469452.5167308,2272,2878,ɔ_S
1789469452.51745,2236,2881,ɔ_S
1789469452.517806,2231,2881,ɔ_S
1789469452.522283,1992,2879,ɔ_S
1789469452.522465,2088,2879,ɔ_S
1789469452.522583,2248,2881,ɔ_S
1789469452.522762,2112,2878,ɔ_S
1789469452.522927,1980,2878,ɔ_S
1789469452.523231,2091,2879,ɔ_S
1789469452.523375,2157,2878,ɔ_S
1789469452.5234828,2247,2880,ɔ_S
1789469452.523537,2107,2878,ɔ_S
1789469452.5235891,2116,2878,ɔ_S
1789469452.525952,2325,2879,ɔ_S
1789469452.527642,2131,2880,ɔ_S
1789469452.535825,2007,2879,ɔ_S
1789469452.5394251,2080,2879,ɔ_S
1789469452.542776,2157,2879,ɔ_S
1789469452.543639,2128,2879,ɔ_S
1789469452.5468931,2032,2879,ɔ_S
1789469452.5497532,1910,2878,ɔ_S
1789469452.553397,2076,2878,ɔ_S
1789469452.553767,2106,2880,ɔ_S
1789469452.554136,2013,2877,ɔ_S
1789469452.5567648,2039,2878,ɔ_S
1789469452.5576751,2272,2879,ɔ_S
1789469452.5584671,2251,2881,ɔ_S
1789469452.558638,2115,2880,ɔ_S
1789469452.5587351,2107,2879,ɔ_S
1789469452.558809,2102,2878,ɔ_S
1789469452.5599911,2059,2879,ɔ_S
1789469452.561392,2163,2881,ɔ_S
1789469452.563848,2007,2879,ɔ_S
1789469452.5661151,2237,2879,ɔ_S
1789469452.567297,2381,2881,ɔ_S
1789469452.569463,2235,2880,ɔ_S
1789469452.571616,2078,2879,ɔ_S
1789469452.573975,2146,2880,ɔ_S
1789469452.5752,2229,2879,ɔ_S
1789469452.577451,2113,2880,ɔ_S
1789469452.579735,2016,2879,ɔ_S
1789469452.582176,2077,2878,ɔ_S
1789469452.583304,2241,2878,ɔ_S
1789469452.5854511,2228,2880,ɔ_S
1789469452.587616,2081,2878,ɔ_S
1789469452.589947,2185,2878,ɔ_S
1789469452.591156,2269,2879,ɔ_S
1789469452.593488,2118,2880,ɔ_S
1789469452.5958998,2010,2877,ɔ_S
1789469452.598321,2146,2878,ɔ_S
1789469452.599573,2245,2879,ɔ_S
1789469452.602179,2147,2878,ɔ_S
1789469452.603748,2013,2879,ɔ_S
1789469452.612221,2057,2878,ɔ_S
1789469452.615495,2052,2879,ɔ_S
1789469452.622218,2118,2879,ɔ_S
1789469452.6279879,2125,2880,ɔ_S
1789469452.6283479,2118,2878,ɔ_S
1789469452.6286259,2149,2879,ɔ_S
1789469452.628978,2199,2878,ɔ_S
1789469452.6293561,2141,2880,ɔ_S
1789469452.629778,2134,2878,ɔ_S
1789469452.632938,2030,2878,ɔ_S
1789469452.633117,2149,2879,ɔ_S
1789469452.6331751,2104,2880,ɔ_S
1789469452.63323,2082,2878,ɔ_S
1789469452.633282,2199,2879,ɔ_S
1789469452.633332,2272,2879,ɔ_S
1789469452.6356878,2247,2880,ɔ_S
1789469452.644544,2176,2879,ɔ_S
1789469452.646003,2194,2879,ɔ_S
1789469452.648447,2265,2879,ɔ_S
1789469452.648936,2121,2880,ɔ_S
1789469452.65128,1985,2878,ɔ_S
1789469452.651904,1995,2878,ɔ_S
1789469452.653329,2131,2879,ɔ_S
1789469452.654688,2199,2879,ɔ_S
1789469452.657838,2229,2880,ɔ_S
1789469452.66125,2270,2879,ɔ_S
1789469452.6617181,2292,2880,ɔ_S
1789469452.662281,2306,2879,ɔ_S
1789469452.664736,2075,2880,ɔ_S
1789469452.6654432,2102,2878,ɔ_S
1789469452.665931,2185,2879,ɔ_S
1789469452.6672928,2226,2878,ɔ_S
1789469452.6698298,2253,2881,ɔ_S
1789469452.671178,2096,2878,ɔ_S
1789469452.673849,2122,2878,ɔ_S
1789469452.675209,2173,2879,ɔ_S
1789469452.6777222,2022,2878,ɔ_S
1789469452.67928,2042,2878,ɔ_S
1789469452.681632,2126,2880,ɔ_S
1789469452.684105,2202,2880,ɔ_S
1789469452.685431,2248,2881,ɔ_S
1789469452.688053,2163,2880,ɔ_S
1789469452.6894631,2114,2879,ɔ_S
1789469452.692076,2180,2879,ɔ_S
1789469452.6935081,2145,2879,ɔ_S
1789469452.6959202,2051,2878,ɔ_S
1789469452.697262,2086,2879,ɔ_S
1789469452.699679,2221,2879,ɔ_S
1789469452.7012749,2223,2878,ɔ_S
1789469452.703684,2095,2880,ɔ_S
1789469452.705354,2016,2879,ɔ_S
1789469452.707959,1981,2880,ɔ_S
1789469452.709342,2133,2880,ɔ_S
1789469452.711672,1987,2878,ɔ_S
1789469452.7151291,1974,2879,ɔ_S
1789469452.715302,2059,2879,ɔ_S
1789469452.723676,2265,2879,ɔ_S
1789469452.726974,2198,2880,ɔ_S
1789469452.727185,2064,2878,ɔ_S
1789469452.7274969,2082,2877,ɔ_S
1789469452.730141,2237,2878,ɔ_S
1789469452.731717,2084,2878,ɔ_S
1789469452.734541,2071,2878,ɔ_S
1789469452.736939,2099,2877,ɔ_S
1789469452.740053,2158,2878,ɔ_S
1789469452.740501,2121,2879,ɔ_S
1789469452.741332,1990,2878,ɔ_S
1789469452.741861,1959,2879,ɔ_S
1789469452.742083,2079,2879,ɔ_S
1789469452.745016,2081,2880,ɔ_S
1789469452.745373,1951,2878,ɔ_S
1789469452.747879,2046,2879,ɔ_S
1789469452.749293,2135,2879,ɔ_S
1789469452.7585092,2225,2879,ɔ_S
1789469452.7599201,2133,2880,ɔ_S
1789469452.762055,2100,2879,ɔ_S
1789469452.765106,2109,2878,ɔ_S
1789469452.76674,2150,2879,ɔ_S
1789469452.7675362,1955,2878,ɔ_S
1789469452.768238,1937,2879,ɔ_S
1789469452.7719219,2085,2879,ɔ_S
1789469452.775428,2137,2879,ɔ_S
1789469452.7758021,2090,2880,ɔ_S
1789469452.776054,2027,2879,ɔ_S
1789469452.776342,2040,2879,ɔ_S
1789469452.7787158,2223,2879,ɔ_S
1789469452.779419,2141,2880,ɔ_S
1789469452.779755,1970,2879,ɔ_S
1789469452.782599,2020,2878,ɔ_S
1789469452.784016,2150,2879,ɔ_S
1789469452.785377,2204,2880,ɔ_S
1789469452.787513,2101,2880,ɔ_S
1789469452.7898948,2017,2879,ɔ_S
1789469452.7920089,2072,2879,ɔ_S
1789469452.793421,2030,2880,ɔ_S
1789469452.7958112,1934,2877,ɔ_S
1789469452.7972329,1966,2878,ɔ_S
1789469452.800107,2157,2879,ɔ_S
1789469452.801434,2140,2879,ɔ_S
1789469452.803534,2021,2879,ɔ_S
1789469452.805818,2092,2878,ɔ_S
1789469452.807161,2126,2879,ɔ_S
1789469452.8097541,2200,2878,ɔ_S
1789469452.8112042,1976,2877,ɔ_S
1789469452.813884,1953,2878,ɔ_S
1789469452.815247,2171,2879,ɔ_S
1789469452.8173451,2196,2879,ɔ_S
1789469452.820008,2131,2879,ɔ_S
1789469452.821357,2021,2878,ɔ_S
1789469452.823796,2016,2879,ɔ_S
1789469452.825185,2110,2878,ɔ_S
1789469452.835103,2064,2879,ɔ_S
1789469452.837923,1979,2879,ɔ_S
1789469452.838421,2056,2879,ɔ_S
1789469452.841086,2115,2878,ɔ_S
1789469452.841968,2099,2877,ɔ_S
1789469452.842668,2076,2879,ɔ_S
1789469452.843369,2117,2879,ɔ_S
1789469452.84529,2155,2879,ɔ_S
1789469452.8460531,2112,2879,ɔ_S
1789469452.848145,1932,2878,ɔ_S
1789469452.851497,2030,2879,ɔ_S
1789469452.851755,2148,2878,ɔ_S
1789469452.852022,2152,2879,ɔ_S
1789469452.855371,2149,2880,ɔ_S
1789469452.855521,2059,2878,ɔ_S
1789469452.858158,2073,2878,ɔ_S
1789469452.859544,2130,2878,ɔ_S
1789469452.866582,1996,2878,ɔ_S
1789469452.8678982,1936,2878,ɔ_S
1789469452.8680608,2066,2878,ɔ_S
1789469452.8698082,2149,2878,ɔ_S
1789469452.8719249,2129,2880,ɔ_S
1789469452.872353,2040,2879,ɔ_S
1789469452.874642,2014,2879,ɔ_S
1789469452.87685,2129,2879,ɔ_S
1789469452.880552,2028,2880,ɔ_S
1789469452.883731,1986,2878,ɔ_S
1789469452.8840241,2069,2878,ɔ_S
1789469452.884344,2137,2880,ɔ_S
1789469452.8876522,2139,2877,ɔ_S
1789469452.887708,2111,2880,ɔ_S
1789469452.889813,2051,2877,ɔ_S
1789469452.891007,2106,2879,ɔ_S
1789469452.893427,2098,2878,ɔ_S
1789469452.895809,1949,2877,ɔ_S
1789469452.897919,1956,2878,ɔ_S
1789469452.899266,2053,2879,ɔ_S
1789469452.901369,2126,2879,ɔ_S
1789469452.903467,2091,2879,ɔ_S
1789469452.90605,2098,2877,ɔ_S
1789469452.907121,2083,2879,ɔ_S
1789469452.909226,2118,2878,ɔ_S
1789469452.911571,2035,2878,ɔ_S
1789469452.9136798,2012,2878,ɔ_S
1789469452.915017,2109,2879,ɔ_S
1789469452.917356,2194,2879,ɔ_S
1789469452.9197,2157,2881,ɔ_S
1789469452.9210198,2116,2878,ɔ_S
1789469452.923597,2072,2879,ɔ_S
1789469452.926017,2104,2880,ɔ_S
1789469452.927377,2052,2879,ɔ_S
1789469452.929483,1954,2878,ɔ_S
1789469452.932096,2018,2879,ɔ_S
1789469452.9418318,2122,2879,ɔ_S
1789469452.943866,2154,2877,ɔ_S
1789469452.948721,2095,2879,ɔ_S
1789469452.952186,1954,2879,ɔ_S
1789469452.952513,2043,2878,ɔ_S
1789469452.955737,2088,2878,ɔ_S
1789469452.956197,2034,2878,ɔ_S
1789469452.9565241,2072,2879,ɔ_S
1789469452.956843,2165,2878,ɔ_S
1789469452.957081,2168,2880,ɔ_S
1789469452.957504,2121,2880,ɔ_S
1789469452.960206,2095,2879,ɔ_S
1789469452.960507,2118,2879,ɔ_S
1789469452.960562,2177,2878,ɔ_S
1789469452.961647,2003,2879,ɔ_S
1789469452.964281,1935,2879,ɔ_S
1789469452.971286,2059,2878,ɔ_S
1789469452.97197,2157,2878,ɔ_S
1789469452.972859,2150,2880,ɔ_S
1789469452.973984,2083,2879,ɔ_S
1789469452.976304,2024,2879,ɔ_S
1789469452.9791842,2139,2879,ɔ_S
1789469452.9803321,2072,2879,ɔ_S
1789469452.981002,1928,2878,ɔ_S
1789469452.981751,2052,2879,ɔ_S
1789469452.984847,2171,2879,ɔ_S
1789469452.988051,2171,2878,ɔ_S
1789469452.988321,2110,2880,ɔ_S
1789469452.991621,2024,2878,ɔ_S
1789469452.99168,2061,2879,ɔ_S
1789469452.9930081,2052,2879,ɔ_S
1789469452.995359,1959,2878,ɔ_S
1789469452.997472,1951,2880,ɔ_S
1789469452.999819,2143,2880,ɔ_S
1789469453.001138,2176,2878,ɔ_S
1789469453.003474,2076,2880,ɔ_S
1789469453.0060549,2059,2877,ɔ_S
1789469453.007375,2119,2878,ɔ_S
1789469453.009474,2168,2879,ɔ_S
1789469453.0120902,2041,2878,ɔ_S
1789469453.013178,1923,2877,ɔ_S
1789469453.015511,2066,2878,ɔ_S
1789469453.017867,2212,2878,ɔ_S
1789469453.019187,2160,2882,ɔ_S
1789469453.021652,1948,2879,ɔ_S
1789469453.0229912,1994,2878,ɔ_S
1789469453.02511,2203,2879,ɔ_S
1789469453.0277178,2164,2880,ɔ_S
1789469453.0298061,2035,2877,ɔ_S
1789469453.031169,1998,2879,ɔ_S
1789469453.03375,2036,2878,ɔ_S
1789469453.036212,2166,2878,ɔ_S
1789469453.044054,2131,2880,ɔ_S
1789469453.045563,2003,2878,ɔ_S
1789469453.051095,2054,2879,ɔ_S
1789469453.051831,2064,2880,ɔ_S
1789469453.052072,2076,2880,ɔ_S
1789469453.052792,1860,2879,ɔ_S
1789469453.053591,1883,2878,ɔ_S
1789469453.0552478,1932,2879,ɔ_S
1789469453.057577,2069,2877,ɔ_S
1789469453.0579221,2161,2880,ɔ_S
1789469453.0610619,2213,2880,ɔ_S
1789469453.061315,2129,2879,ɔ_S
1789469453.061737,1913,2877,ɔ_S
1789469453.065015,2033,2880,ɔ_S
1789469453.065074,1961,2880,ɔ_S
1789469453.067774,2317,2878,ɔ_S
1789469453.069095,2163,2880,ɔ_S
1789469453.077974,2095,2879,ɔ_S
1789469453.079369,2091,2879,ɔ_S
1789469453.085,2053,2879,ɔ_S
1789469453.085716,1969,2879,ɔ_S
1789469453.086974,1855,2878,ɔ_S
1789469453.0878808,1927,2878,ɔ_S
1789469453.091229,1915,2879,ɔ_S
1789469453.091566,2095,2879,ɔ_S
1789469453.094937,2220,2880,ɔ_S
1789469453.095444,2365,2880,ɔ_S
1789469453.095967,2090,2879,ɔ_S
1789469453.0988832,1879,2879,ɔ_S
1789469453.099007,1918,2877,ɔ_S
1789469453.09911,2084,2879,ɔ_S
1789469453.099356,2348,2880,ɔ_S
1789469453.101964,2266,2880,ɔ_S
1789469453.103043,2008,2880,ɔ_S
1789469453.105472,1561,2875,ɔ_S
1789469453.10785,1823,2878,ɔ_S
1789469453.109196,2368,2879,ɔ_S
1789469453.1114151,2200,2879,ɔ_S
1789469453.114032,1915,2878,ɔ_S
1789469453.1153548,1918,2879,ɔ_S
1789469453.117837,2147,2878,ɔ_S
1789469453.1200051,2105,2877,ɔ_S
1789469453.1213272,2120,2878,ɔ_S
1789469453.1237838,2178,2880,ɔ_S
1789469453.12513,2267,2879,ɔ_S
1789469453.1277509,1826,2876,ɔ_S
1789469453.129975,1775,2878,ɔ_S
1789469453.131434,1972,2879,ɔ_S
1789469453.133782,2132,2878,ɔ_S
1789469453.1351008,2287,2880,ɔ_S
1789469453.137407,1803,2876,ɔ_S
1789469453.140081,1881,2879,ɔ_S
1789469453.141442,1945,2878,ɔ_S
1789469453.1440692,1987,2879,ɔ_S
1789469453.151395,1875,2877,ɔ_S
1789469453.152979,1864,2879,ɔ_S
1789469453.1543648,1947,2878,ɔ_S
1789469453.158998,2290,2879,ɔ_S
1789469453.159729,2259,2881,ɔ_S
1789469453.159963,1932,2879,ɔ_S
1789469453.161948,1840,2879,ɔ_S
1789469453.163191,1889,2879,ɔ_S
1789469453.165819,1901,2875,ɔ_S
1789469453.1661508,1902,2877,ɔ_S
1789469453.169259,1923,2879,ɔ_S
1789469453.169895,2028,2879,ɔ_S
1789469453.17029,1822,2877,ɔ_S
1789469453.173779,2172,2879,ɔ_S
1789469453.173855,2167,2880,ɔ_S
1789469453.175175,2115,2879,ɔ_S
1789469453.1777558,2218,2880,ɔ_S
1789469453.179738,2136,2878,ɔ_S
1789469453.188874,2122,2879,ɔ_S
1789469453.19089,2201,2879,ɔ_S
1789469453.191149,2066,2878,ɔ_S
1789469453.1947641,2007,2880,ɔ_S
1789469453.196008,1934,2879,ɔ_S
1789469453.1998122,1931,2878,ɔ_S
1789469453.200186,1975,2878,ɔ_S
1789469453.20328,1781,2877,ɔ_S
1789469453.203773,1762,2879,ɔ_S
1789469453.204087,1945,2879,ɔ_S
1789469453.204414,2061,2880,ɔ_S
1789469453.204843,2086,2879,ɔ_S
1789469453.2071931,1939,2879,ɔ_S
1789469453.208102,1895,2879,ɔ_S
1789469453.20946,2034,2879,ɔ_S
1789469453.210877,1910,2877,ɔ_S
1789469453.213223,1756,2879,ɔ_S
1789469453.2155762,2109,2879,ɔ_S
1789469453.216904,2215,2880,ɔ_S
1789469453.219245,2165,2880,ɔ_S
1789469453.221339,2003,2880,ɔ_S
1789469453.2239292,1769,2879,ɔ_S
1789469453.225251,2185,2878,ɔ_S
1789469453.227359,1997,2881,ɔ_S
1789469453.22888,1692,2879,ɔ_S
1789469453.231458,1924,2878,ɔ_S
1789469453.233547,2117,2879,ɔ_S
1789469453.235647,2032,2877,ɔ_S
1789469453.237746,2028,2879,ɔ_S
1789469453.2390661,2096,2879,ɔ_S
1789469453.24115,2121,2879,ɔ_S
1789469453.243318,2070,2879,ɔ_S
1789469453.245866,1763,2879,ɔ_S
1789469453.247298,1821,2878,ɔ_S
1789469453.295635,2171,2879,ɔ_S
1789469453.300695,2278,2881,ɔ_S
1789469453.300823,2189,2880,ɔ_S
1789469453.300902,2102,2879,ɔ_S
1789469453.300976,2187,2880,ɔ_S
1789469453.301043,2310,2880,ɔ_S
1789469453.301109,2151,2880,ɔ_S
1789469453.301177,1904,2879,ɔ_S
1789469453.301242,1819,2879,ɔ_S
1789469453.301306,1980,2878,ɔ_S
1789469453.301373,1961,2878,ɔ_S
1789469453.301437,1973,2879,ɔ_S
1789469453.301504,2009,2878,ɔ_S
1789469453.301568,2048,2879,ɔ_S
1789469453.3016288,2069,2879,ɔ_S
1789469453.30169,1861,2879,ɔ_S
1789469453.301755,1931,2880,ɔ_S
1789469453.3018172,2157,2880,ɔ_S
1789469453.301883,2116,2880,ɔ_S
1789469453.301949,1840,2878,ɔ_S
1789469453.302015,1785,2879,ɔ_S
1789469453.302073,2065,2879,ɔ_S
1789469453.302133,2357,2879,ɔ_S
1789469453.3021991,1937,2875,ɔ_S
1789469453.302262,1825,2878,ɔ_S
1789469453.302328,2056,2880,ɔ_S
1789469453.302451,2182,2879,ɔ_S
1789469453.303971,2123,2881,ɔ_S
1789469453.3053398,2113,2878,ɔ_S
1789469453.308819,2067,2879,ɔ_S
1789469453.3088799,2124,2880,ɔ_S
1789469453.311868,1917,2876,ɔ_S
1789469453.314852,1802,2879,ɔ_S
1789469453.3149152,1956,2878,ɔ_S
1789469453.318452,2165,2878,ɔ_S
1789469453.3199968,2085,2878,ɔ_S
1789469453.321357,1976,2880,ɔ_S
1789469453.323732,2008,2879,ɔ_S
1789469453.325082,2098,2879,ɔ_S
1789469453.327735,1975,2879,ɔ_S
1789469453.329152,1777,2878,ɔ_S
1789469453.331615,1764,2879,ɔ_S
1789469453.332978,2060,2880,ɔ_S
1789469453.3356018,2235,2878,ɔ_S
1789469453.336871,2196,2881,ɔ_S
1789469453.339582,1991,2879,ɔ_S
1789469453.346385,2071,2878,ɔ_S
1789469453.347265,2191,2879,ɔ_S
1789469453.348104,1797,2877,ɔ_S
1789469453.350683,1782,2879,ɔ_S
1789469453.353312,2210,2879,ɔ_S
1789469453.355233,2425,2880,ɔ_S
1789469453.355992,2185,2879,ɔ_S
1789469453.356682,1913,2879,ɔ_S
1789469453.3602638,1930,2878,ɔ_S
1789469453.363588,2182,2880,ɔ_S
1789469453.367142,2089,2879,ɔ_S
1789469453.367386,1891,2879,ɔ_S
1789469453.3674471,1816,2879,ɔ_S
1789469453.3675,2055,2879,ɔ_S
1789469453.3688588,2122,2879,ɔ_S
1789469453.370975,1832,2879,ɔ_S
1789469453.3786938,2033,2879,ɔ_S
1789469453.381545,2178,2879,ɔ_S
1789469453.383636,2054,2879,ɔ_S
1789469453.386799,1898,2879,ɔ_S
1789469453.3882391,2052,2880,ɔ_S
1789469453.390122,2260,2878,ɔ_S
1789469453.390818,2282,2879,ɔ_S
1789469453.393159,2094,2878,ɔ_S
1789469453.3934238,2043,2878,ɔ_S
1789469453.397036,2230,2881,ɔ_S
1789469453.4004369,1984,2878,ɔ_S
1789469453.400533,2035,2877,ɔ_S
1789469453.400587,1924,2878,ɔ_S
1789469453.400639,2162,2879,ɔ_S
1789469453.4018571,2411,2880,ɔ_S
1789469453.402973,2109,2881,ɔ_S
1789469453.405665,2069,2878,ɔ_S
1789469453.407031,2179,2880,ɔ_S
1789469453.409653,2352,2879,ɔ_S
1789469453.411822,2204,2879,ɔ_S
1789469453.413257,1986,2878,ɔ_S
1789469453.415395,2125,2879,ɔ_S
1789469453.418029,2363,2878,ɔ_S
1789469453.4193668,2328,2881,ɔ_S
1789469453.422057,2233,2878,ɔ_S
1789469453.423137,2133,2879,ɔ_S
1789469453.4252381,2218,2879,ɔ_S
1789469453.4276092,2161,2880,ɔ_S
1789469453.428818,1944,2877,ɔ_S
1789469453.431159,2002,2878,ɔ_S
1789469453.433502,2164,2880,ɔ_S
1789469453.435843,2268,2879,ɔ_S
1789469453.436929,2073,2879,ɔ_S
1789469453.439441,2025,2879,ɔ_S
1789469453.4415412,2198,2880,ɔ_S
1789469453.442859,2307,2879,ɔ_S
1789469453.44519,2047,2881,ɔ_S
1789469453.452773,2080,2880,ɔ_S
1789469453.454103,2147,2878,ɔ_S
1789469453.457213,2282,2879,ɔ_S
1789469453.457578,2138,2880,ɔ_S
1789469453.459708,1999,2878,ɔ_S
1789469453.460313,1967,2879,ɔ_S
1789469453.4608672,2187,2881,ɔ_S
1789469453.462825,2136,2880,ɔ_S
1789469453.46352,1995,2879,ɔ_S
1789469453.466903,2091,2880,ɔ_S
1789469453.467249,2314,2880,ɔ_S
1789469453.4708622,2388,2881,ɔ_S
1789469453.471227,2161,2880,ɔ_S
1789469453.474709,1967,2878,ɔ_S
1789469453.4748611,2296,2881,ɔ_S
1789469453.477379,2041,2879,ɔ_S
1789469453.478766,1891,2879,ɔ_S
1789469453.487328,1818,2879,ɔ_S
1789469453.488663,2110,2879,ɔ_S
1789469453.4895282,2364,2882,ɔ_S
1789469453.4916742,2205,2880,ɔ_S
1789469453.491866,2046,2879,ɔ_S
1789469453.492197,2013,2879,ɔ_S
1789469453.494957,2091,2880,ɔ_S
1789469453.495728,1902,2877,ɔ_S
1789469453.4978318,1882,2879,ɔ_S
1789469453.50355,2031,2878,ɔ_S
1789469453.5039098,2175,2878,ɔ_S
1789469453.504147,2070,2878,ɔ_S
1789469453.507351,2010,2879,ɔ_S
1789469453.507641,2049,2878,ɔ_S
1789469453.508959,2117,2880,ɔ_S
1789469453.511541,1979,2880,ɔ_S
1789469453.5128388,1908,2879,ɔ_S
1789469453.514935,2122,2878,ɔ_S
1789469453.517465,2207,2879,ɔ_S
1789469453.518788,2201,2878,ɔ_S
1789469453.521051,2003,2880,ɔ_S
1789469453.523361,1861,2878,ɔ_S
1789469453.5247622,2166,2879,ɔ_S
1789469453.527354,2141,2880,ɔ_S
1789469453.529577,1965,2876,ɔ_S
1789469453.530745,1932,2879,ɔ_S
1789469453.5328581,2184,2880,ɔ_S
1789469453.535199,2262,2879,ɔ_S
1789469453.537452,2108,2879,ɔ_S
1789469453.539804,1927,2879,ɔ_S
1789469453.5411258,2070,2878,ɔ_S
1789469453.543405,2177,2878,ɔ_S
1789469453.545494,2018,2879,ɔ_S
1789469453.546766,1954,2878,ɔ_S
1789469453.5492191,2218,2879,ɔ_S
1789469453.551798,2315,2879,ɔ_S
1789469453.552875,2047,2878,ɔ_S
1789469453.5608141,1962,2879,ɔ_S
1789469453.56161,2059,2879,ɔ_S
1789469453.562281,2050,2878,ɔ_S
1789469453.562984,1932,2879,ɔ_S
1789469453.565459,1937,2878,ɔ_S
1789469453.565801,2042,2879,ɔ_S
1789469453.568216,2168,2879,ɔ_S
1789469453.569799,2223,2881,ɔ_S
1789469453.5719302,2036,2880,ɔ_S
1789469453.5742311,1975,2880,ɔ_S
1789469453.577634,2151,2879,ɔ_S
1789469453.577962,2059,2879,ɔ_S
1789469453.5810711,1971,2878,ɔ_S
1789469453.581441,2062,2880,ɔ_S
1789469453.5838542,2171,2879,ɔ_S
1789469453.584956,2121,2880,ɔ_S
1789469453.592682,2110,2879,ɔ_S
1789469453.5934458,2064,2879,ɔ_S
1789469453.595314,2011,2880,ɔ_S
1789469453.5954711,2081,2878,ɔ_S
1789469453.597344,2017,2879,ɔ_S
1789469453.597821,1966,2879,ɔ_S
1789469453.600213,2075,2879,ɔ_S
1789469453.602049,2167,2879,ɔ_S
1789469453.607868,2162,2881,ɔ_S
1789469453.608145,2102,2878,ɔ_S
1789469453.608553,2045,2879,ɔ_S
1789469453.611278,2136,2880,ɔ_S
1789469453.611488,2044,2880,ɔ_S
1789469453.612848,1907,2878,ɔ_S
1789469453.615252,2063,2880,ɔ_S
1789469453.617366,2209,2879,ɔ_S
1789469453.619662,2177,2879,ɔ_S
1789469453.6208808,2072,2880,ɔ_S
1789469453.6234949,1997,2879,ɔ_S
1789469453.6256042,2103,2878,ɔ_S
1789469453.6269162,2090,2880,ɔ_S
1789469453.629009,2023,2877,ɔ_S
