timestamp,ch1,ch2,label
1779865275.228242,90,2207,4_S
1779865275.234953,2062,2203,4_S
1779865275.23622,2047,2227,4_S
1779865275.241729,2102,2156,4_S
1779865275.242624,2062,2124,4_S
1779865275.242764,2035,2121,4_S
1779865275.2428658,2014,2281,4_S
1779865275.2429419,2096,2138,4_S
1779865275.243008,2168,2078,4_S
1779865275.24308,2115,2007,4_S
1779865275.243147,2077,2067,4_S
1779865275.24321,2070,2069,4_S
1779865275.243361,2132,2000,4_S
1779865275.243503,2033,2164,4_S
1779865275.2438898,1931,2342,4_S
1779865275.247371,1990,2356,4_S
1779865275.2487922,2073,2205,4_S
1779865275.255734,2120,2256,4_S
1779865275.25924,2094,2218,4_S
1779865275.259753,2047,2391,4_S
1779865275.2629309,2089,2190,4_S
1779865275.263663,2113,2176,4_S
1779865275.266094,2051,2173,4_S
1779865275.2665758,1993,2198,4_S
1779865275.266624,2107,2270,4_S
1779865275.2667232,2095,2419,4_S
1779865275.2682052,1976,2170,4_S
1779865275.270814,2020,2045,4_S
1779865275.2721422,2122,2069,4_S
1779865275.273723,2111,2110,4_S
1779865275.2786071,2004,2344,4_S
1779865275.279626,1934,2529,4_S
1779865275.279816,2033,2359,4_S
1779865275.283424,2123,2168,4_S
1779865275.285446,2109,2158,4_S
1779865275.286859,2031,2188,4_S
1779865275.289809,2083,2272,4_S
1779865275.289935,2124,2236,4_S
1779865275.292955,2096,2335,4_S
1779865275.294398,1954,2444,4_S
1779865275.295807,2035,2448,4_S
1779865275.3010309,2122,2205,4_S
1779865275.303118,2118,2114,4_S
1779865275.3065898,2063,2114,4_S
1779865275.307264,2059,2270,4_S
1779865275.3074079,2104,2157,4_S
1779865275.310164,2037,2210,4_S
1779865275.310515,2027,2328,4_S
1779865275.312912,2043,2555,4_S
1779865275.314454,2119,2504,4_S
1779865275.315864,2119,2409,4_S
1779865275.31903,2073,2377,4_S
1779865275.326262,2037,2319,4_S
1779865275.327955,2052,2090,4_S
1779865275.330276,2087,1929,4_S
1779865275.332067,2008,2050,4_S
1779865275.332596,1924,2120,4_S
1779865275.3349278,1994,2025,4_S
1779865275.335244,2092,1899,4_S
1779865275.335404,2081,1855,4_S
1779865275.336753,2063,1909,4_S
1779865275.3385851,2068,2020,4_S
1779865275.339987,2094,1967,4_S
1779865275.345234,2046,2082,4_S
1779865275.3461041,2006,2277,4_S
1779865275.34698,2056,2252,4_S
1779865275.350038,2217,1982,4_S
1779865275.3523562,2177,1947,4_S
1779865275.354228,2043,1990,4_S
1779865275.354573,1981,2192,4_S
1779865275.3569438,2085,2056,4_S
1779865275.358339,2065,2088,4_S
1779865275.359817,1970,2249,4_S
1779865275.3624,1910,2368,4_S
1779865275.367796,1985,2159,4_S
1779865275.3705401,2040,2063,4_S
1779865275.374263,2084,2002,4_S
1779865275.375972,2045,2058,4_S
1779865275.3765929,2065,2035,4_S
1779865275.378866,2117,2044,4_S
1779865275.379231,2016,2156,4_S
1779865275.379317,1951,2228,4_S
1779865275.380786,2072,2186,4_S
1779865275.382108,2104,2016,4_S
1779865275.389531,2111,2102,4_S
1779865275.392415,2015,2140,4_S
1779865275.3929,2062,2178,4_S
1779865275.395981,2195,2043,4_S
1779865275.39736,2085,2150,4_S
1779865275.397801,1975,2332,4_S
1779865275.398005,1928,2343,4_S
1779865275.398439,2036,2120,4_S
1779865275.401545,2101,2025,4_S
1779865275.4015958,2106,2039,4_S
1779865275.404311,2049,2163,4_S
1779865275.405686,2133,2063,4_S
1779865275.412318,2077,2091,4_S
1779865275.4145439,2034,2228,4_S
1779865275.4160829,1985,2348,4_S
1779865275.4183528,2112,2162,4_S
1779865275.4198349,2093,2049,4_S
1779865275.4199748,2082,2017,4_S
1779865275.422941,2021,2072,4_S
1779865275.423184,2089,2087,4_S
1779865275.4245062,2080,2068,4_S
1779865275.4258392,1988,2163,4_S
1779865275.428442,1946,2204,4_S
1779865275.434421,2072,2185,4_S
1779865275.436865,2073,2040,4_S
1779865275.442185,2088,1931,4_S
1779865275.442862,2093,2048,4_S
1779865275.44502,2070,2153,4_S
1779865275.445573,2066,2031,4_S
1779865275.445869,2042,2131,4_S
1779865275.445971,2066,2169,4_S
1779865275.446014,2059,2256,4_S
1779865275.448618,2125,2079,4_S
1779865275.450007,2098,2018,4_S
1779865275.4572039,2062,2004,4_S
1779865275.459498,2042,2052,4_S
1779865275.462007,2154,1970,4_S
1779865275.4650922,2099,1957,4_S
1779865275.465585,1979,2097,4_S
1779865275.4658859,1965,2210,4_S
1779865275.468331,2073,1996,4_S
1779865275.468459,2120,1912,4_S
1779865275.4685109,2124,1953,4_S
1779865275.4698482,2058,2068,4_S
1779865275.4724648,2088,1895,4_S
1779865275.473782,2077,1825,4_S
1779865275.479043,2073,1996,4_S
1779865275.4866948,2022,2143,4_S
1779865275.486997,2049,2142,4_S
1779865275.4900749,2090,2069,4_S
1779865275.4902,2091,1938,4_S
1779865275.490314,2059,2003,4_S
1779865275.4903538,2070,2089,4_S
1779865275.490421,2113,1980,4_S
1779865275.492193,2088,1972,4_S
1779865275.4936352,1990,2136,4_S
1779865275.4965389,1941,2190,4_S
1779865275.5025148,2125,1955,4_S
1779865275.502655,2143,1862,4_S
1779865275.505666,2116,1921,4_S
1779865275.509111,2078,2018,4_S
1779865275.510598,2074,1939,4_S
1779865275.510836,2111,1952,4_S
1779865275.511183,2087,2114,4_S
1779865275.5139651,2019,2275,4_S
1779865275.514117,2071,2234,4_S
1779865275.515624,2037,2030,4_S
1779865275.518262,2075,1970,4_S
1779865275.5196009,2122,2023,4_S
1779865275.533379,2146,2015,4_S
1779865275.533851,2101,2026,4_S
1779865275.534302,2026,2010,4_S
1779865275.536851,1962,2207,4_S
1779865275.5376298,2059,2133,4_S
1779865275.53778,2078,2001,4_S
1779865275.537882,2173,2006,4_S
1779865275.5379782,2125,2249,4_S
1779865275.5382102,2061,2143,4_S
1779865275.539996,2164,1889,4_S
1779865275.542752,2153,2080,4_S
1779865275.548851,2006,2244,4_S
1779865275.55399,2006,2216,4_S
1779865275.55807,2180,2011,4_S
1779865275.558319,2205,1927,4_S
1779865275.559055,2136,2005,4_S
1779865275.5618088,2096,2072,4_S
1779865275.562169,2097,1919,4_S
1779865275.56223,2029,2026,4_S
1779865275.562279,2037,2110,4_S
1779865275.5625532,1998,2242,4_S
1779865275.564218,2312,2055,4_S
1779865275.570399,2289,1939,4_S
1779865275.574068,1973,1948,4_S
1779865275.574406,1912,2051,4_S
1779865275.576527,2058,1995,4_S
1779865275.578144,2145,1962,4_S
1779865275.5831199,2109,2174,4_S
1779865275.583552,1952,2177,4_S
1779865275.583636,1968,2065,4_S
1779865275.583704,2105,2027,4_S
1779865275.5838232,2134,2057,4_S
1779865275.586577,2400,1751,4_S
1779865275.5891788,2490,1868,4_S
1779865275.590569,2187,1991,4_S
1779865275.592009,2065,1894,4_S
1779865275.604884,1827,2027,4_S
1779865275.605223,1905,2202,4_S
1779865275.606967,2221,1982,4_S
1779865275.612639,2096,1981,4_S
1779865275.612705,1921,1871,4_S
1779865275.612752,1969,1962,4_S
1779865275.6127958,2257,1916,4_S
1779865275.61284,2084,2108,4_S
1779865275.6128829,1936,2178,4_S
1779865275.612926,1949,2222,4_S
1779865275.6143181,2123,1963,4_S
1779865275.6158888,2250,2093,4_S
1779865275.6268091,2078,1984,4_S
1779865275.63296,2298,1965,4_S
1779865275.635655,2136,2053,4_S
1779865275.6365209,1926,1929,4_S
1779865275.636655,1902,1885,4_S
1779865275.6367948,2038,2104,4_S
1779865275.6369321,2259,2351,4_S
1779865275.637008,2100,1921,4_S
1779865275.637075,2048,1883,4_S
1779865275.637284,1906,1919,4_S
1779865275.639869,1706,1707,4_S
1779865275.63996,2410,2089,4_S
1779865275.6427531,2317,2053,4_S
1779865275.649846,2156,1964,4_S
1779865275.653863,2092,2071,4_S
1779865275.6603332,2200,2000,4_S
1779865275.664002,2141,2108,4_S
1779865275.664105,2213,2117,4_S
1779865275.664177,2091,2098,4_S
1779865275.6643121,2065,1889,4_S
1779865275.6644459,2135,1980,4_S
1779865275.664505,2059,2008,4_S
1779865275.664683,1963,2011,4_S
1779865275.6648371,2242,1992,4_S
1779865275.666983,2225,1909,4_S
1779865275.679986,2071,1601,4_S
1779865275.6853251,1831,1700,4_S
1779865275.6855009,2014,1957,4_S
1779865275.685594,2202,2096,4_S
1779865275.685754,2010,1874,4_S
1779865275.685813,1804,1946,4_S
1779865275.685859,2117,2440,4_S
1779865275.685905,2337,2282,4_S
1779865275.685963,2347,1892,4_S
1779865275.686074,2115,2115,4_S
1779865275.687924,2177,2101,4_S
1779865275.690621,2432,2077,4_S
1779865275.6920562,2550,2159,4_S
1779865275.70108,2229,2202,4_S
1779865275.7080572,1794,2242,4_S
1779865275.711138,2000,2020,4_S
1779865275.7112,2234,2023,4_S
1779865275.711246,2139,2168,4_S
1779865275.7112892,2087,2283,4_S
1779865275.7113311,1883,1896,4_S
1779865275.711375,1827,2065,4_S
1779865275.711422,1881,2408,4_S
1779865275.711467,1902,2201,4_S
1779865275.727968,2258,2616,4_S
1779865275.731675,1950,2023,4_S
1779865275.731808,2127,2044,4_S
1779865275.731957,2345,2333,4_S
1779865275.732034,2081,2168,4_S
1779865275.732107,2502,2074,4_S
1779865275.732207,2154,2549,4_S
1779865275.732291,2016,2519,4_S
1779865275.732428,2359,2327,4_S
1779865275.732497,2142,2007,4_S
1779865275.733854,2316,2073,4_S
1779865275.736543,2039,2459,4_S
1779865275.742399,1799,2349,4_S
1779865275.74716,1580,2184,4_S
1779865275.753549,1838,1948,4_S
1779865275.753982,1985,1944,4_S
1779865275.75757,2095,2217,4_S
1779865275.7577012,1854,1871,4_S
1779865275.757795,1897,2191,4_S
1779865275.75789,2282,2742,4_S
1779865275.75799,2268,2700,4_S
1779865275.758067,2179,2610,4_S
1779865275.7581341,1917,2130,4_S
1779865275.7596002,2051,2425,4_S
1779865275.768936,2015,2672,4_S
1779865275.775651,1895,2307,4_S
1779865275.7788029,1907,2603,4_S
1779865275.778919,2383,2070,4_S
1779865275.779027,1872,2074,4_S
1779865275.779194,2286,2102,4_S
1779865275.779356,2240,2111,4_S
1779865275.779538,2090,1850,4_S
1779865275.779646,1974,2251,4_S
1779865275.779716,1898,2984,4_S
1779865275.782464,1966,2741,4_S
1779865275.7838778,1898,2037,4_S
1779865275.797269,1652,1845,4_S
1779865275.802061,1869,1780,4_S
1779865275.802165,2284,2268,4_S
1779865275.802544,2093,1688,4_S
1779865275.803265,1687,1591,4_S
1779865275.803875,2228,2805,4_S
1779865275.806999,2356,2359,4_S
1779865275.8070881,2354,1812,4_S
1779865275.807155,2114,1736,4_S
1779865275.8072672,1984,1894,4_S
1779865275.8075352,2210,2657,4_S
1779865275.807613,2268,2407,4_S
1779865275.8181372,2211,2604,4_S
1779865275.8187442,1947,2346,4_S
1779865275.822742,2091,1972,4_S
1779865275.826144,1907,1942,4_S
1779865275.8294091,2275,1621,4_S
1779865275.829498,2331,1450,4_S
1779865275.829578,2341,1848,4_S
1779865275.829647,2056,2231,4_S
1779865275.829709,1963,2050,4_S
1779865275.829807,1788,1944,4_S
1779865275.829879,2468,1859,4_S
1779865275.83258,2782,1809,4_S
1779865275.833972,2151,1801,4_S
1779865275.8396149,2337,1905,4_S
1779865275.8484259,2264,1997,4_S
1779865275.8515148,2242,1629,4_S
1779865275.851845,2128,1623,4_S
1779865275.855231,2240,1894,4_S
1779865275.855456,2081,1758,4_S
1779865275.8555431,1940,1678,4_S
1779865275.8556101,2105,1606,4_S
1779865275.855673,2427,1420,4_S
1779865275.855733,2209,2018,4_S
1779865275.855794,1941,1891,4_S
1779865275.86596,1923,1747,4_S
1779865275.868881,1812,1875,4_S
1779865275.875815,2180,1886,4_S
1779865275.8768158,2643,1719,4_S
1779865275.877017,2290,1638,4_S
1779865275.877174,2887,1740,4_S
1779865275.87728,2483,1906,4_S
1779865275.8774452,1873,2155,4_S
1779865275.877553,2763,1905,4_S
1779865275.8776278,2039,1911,4_S
1779865275.877721,1389,1983,4_S
1779865275.880835,2040,2126,4_S
1779865275.882302,2359,1714,4_S
1779865275.8919418,1546,1765,4_S
1779865275.892482,1907,1897,4_S
1779865275.894798,2068,1971,4_S
1779865275.899649,2346,1909,4_S
1779865275.8999648,2724,1935,4_S
1779865275.9003599,3095,1799,4_S
1779865275.903237,2515,2258,4_S
1779865275.903626,2317,2260,4_S
1779865275.90372,2003,2013,4_S
1779865275.903795,1987,1729,4_S
1779865275.903873,2383,1732,4_S
1779865275.9108732,2290,1999,4_S
1779865275.914762,1843,2026,4_S
1779865275.922129,2419,2063,4_S
1779865275.922884,1853,2510,4_S
1779865275.926854,1952,2238,4_S
1779865275.926968,2859,1585,4_S
1779865275.9272058,3209,1647,4_S
1779865275.927319,2371,2466,4_S
1779865275.9274082,1554,2483,4_S
1779865275.927541,1713,2022,4_S
1779865275.927657,1651,2126,4_S
1779865275.927725,2052,2160,4_S
1779865275.9305909,2123,2117,4_S
1779865275.9320488,1818,2158,4_S
1779865275.933936,2196,1927,4_S
1779865275.943798,2368,1967,4_S
1779865275.947231,2150,2097,4_S
1779865275.9494212,2212,2092,4_S
1779865275.95271,2486,2006,4_S
1779865275.9531388,2667,1990,4_S
1779865275.954008,3134,2020,4_S
1779865275.957501,2632,2107,4_S
1779865275.957621,2114,2124,4_S
1779865275.957679,2390,1905,4_S
1779865275.9577339,2534,1992,4_S
1779865275.957786,2618,2034,4_S
1779865275.95784,2903,1918,4_S
1779865275.9609,2553,1794,4_S
1779865275.968989,2663,2041,4_S
1779865275.9714298,2776,2246,4_S
1779865275.976097,2726,2158,4_S
1779865275.979635,2768,1906,4_S
1779865275.979761,2800,1803,4_S
1779865275.9798331,2974,1622,4_S
1779865275.9799209,2981,1630,4_S
1779865275.9800398,2903,1699,4_S
1779865275.9801412,2829,2012,4_S
1779865275.980195,2658,2197,4_S
1779865275.9815922,2873,1915,4_S
1779865275.984332,2686,1882,4_S
1779865275.985697,2945,2035,4_S
1779865275.993031,2995,2157,4_S
1779865275.996584,2965,2045,4_S
1779865275.998462,2904,1945,4_S
1779865276.001632,2905,1831,4_S
1779865276.001911,2795,1881,4_S
1779865276.007971,2864,1847,4_S
1779865276.008501,2851,1677,4_S
1779865276.0087738,2881,1760,4_S
1779865276.0088692,2733,1895,4_S
1779865276.008996,2545,1884,4_S
1779865276.009137,2676,1847,4_S
1779865276.010558,2562,1904,4_S
1779865276.017208,2535,1987,4_S
1779865276.0191,2541,1904,4_S
1779865276.020478,2400,1833,4_S
1779865276.023146,2502,1738,4_S
1779865276.0261471,2388,1858,4_S
1779865276.026748,2275,1965,4_S
1779865276.0272279,2429,1800,4_S
1779865276.0275562,2386,1742,4_S
1779865276.0303302,2077,1785,4_S
1779865276.030499,2220,1842,4_S
1779865276.031866,2150,2118,4_S
1779865276.0345979,2173,1911,4_S
1779865276.035936,2014,1714,4_S
1779865276.043783,2220,1909,4_S
1779865276.046508,2401,1762,4_S
1779865276.0467122,2230,1778,4_S
1779865276.051318,1976,1946,4_S
1779865276.054784,1985,1987,4_S
1779865276.0552142,2197,1855,4_S
1779865276.055517,2067,1524,4_S
1779865276.05871,1918,1553,4_S
1779865276.058794,1920,1572,4_S
1779865276.058909,1906,1528,4_S
1779865276.0590231,1827,1646,4_S
1779865276.060736,1959,1763,4_S
1779865276.066219,1859,1940,4_S
1779865276.067413,1850,1716,4_S
1779865276.070049,2228,1634,4_S
1779865276.077062,2045,1668,4_S
1779865276.077578,1841,1862,4_S
1779865276.077832,1735,2006,4_S
1779865276.0810099,1929,1920,4_S
1779865276.0812402,1996,1906,4_S
1779865276.0813708,1858,1989,4_S
1779865276.081461,1850,1991,4_S
1779865276.081514,2014,1739,4_S
1779865276.084096,1936,1790,4_S
1779865276.0855732,1882,1944,4_S
1779865276.093044,1952,2054,4_S
1779865276.096273,2106,1981,4_S
1779865276.0965729,1892,1989,4_S
1779865276.0985239,1847,2012,4_S
1779865276.100613,2124,2026,4_S
1779865276.104363,1877,2076,4_S
1779865276.10729,1958,1986,4_S
1779865276.107553,1929,1893,4_S
1779865276.107727,1948,2000,4_S
1779865276.107844,1954,2129,4_S
1779865276.107945,1922,2063,4_S
1779865276.109368,1870,2111,4_S
1779865276.1144059,1823,2181,4_S
1779865276.116152,1963,2130,4_S
1779865276.1203918,1985,2062,4_S
1779865276.12534,1977,2029,4_S
1779865276.1263192,1975,2112,4_S
1779865276.129144,2011,1959,4_S
1779865276.129248,2050,1730,4_S
1779865276.129466,2058,2015,4_S
1779865276.129525,1952,2084,4_S
1779865276.1295779,1940,2050,4_S
1779865276.132263,2056,1913,4_S
1779865276.133662,2116,1789,4_S
1779865276.14106,2090,1903,4_S
1779865276.1443782,2014,2274,4_S
1779865276.147407,2006,2257,4_S
1779865276.152736,1847,2084,4_S
1779865276.156258,1746,2067,4_S
1779865276.15638,1827,2216,4_S
1779865276.156464,1999,2148,4_S
1779865276.156626,1999,1997,4_S
1779865276.1567051,1954,2077,4_S
1779865276.156786,1948,1996,4_S
1779865276.156863,1914,2046,4_S
1779865276.158599,1993,1895,4_S
1779865276.172446,1941,2074,4_S
1779865276.176704,1862,2165,4_S
1779865276.1769989,1962,1989,4_S
1779865276.180297,1983,1871,4_S
1779865276.180726,1956,2117,4_S
1779865276.180865,1844,2072,4_S
1779865276.180969,1946,2038,4_S
1779865276.181078,2090,1846,4_S
1779865276.1812449,2308,1723,4_S
1779865276.181296,2101,2074,4_S
1779865276.1814022,1741,2226,4_S
1779865276.18156,1873,1983,4_S
1779865276.184275,1970,1982,4_S
1779865276.18576,1880,1614,4_S
1779865276.240881,1857,1534,4_S
1779865276.241034,1973,1769,4_S
1779865276.241154,1917,1849,4_S
1779865276.241327,1848,1608,4_S
1779865276.241387,1898,1688,4_S
1779865276.2414389,2091,1711,4_S
1779865276.241489,2135,2010,4_S
1779865276.241538,2125,1915,4_S
1779865276.2416499,1958,2256,4_S
1779865276.241738,2139,2029,4_S
1779865276.241805,2116,1878,4_S
1779865276.2418702,1650,1803,4_S
1779865276.241932,1466,2003,4_S
1779865276.241995,1753,1614,4_S
1779865276.242062,2464,1145,4_S
1779865276.2421372,2304,1554,4_S
1779865276.2421901,1599,1702,4_S
1779865276.24224,1727,1734,4_S
1779865276.242288,2002,1735,4_S
1779865276.242338,1952,1718,4_S
1779865276.2428281,1965,1898,4_S
1779865276.242957,1776,1985,4_S
1779865276.2430348,1990,1861,4_S
1779865276.243098,1925,1734,4_S
1779865276.2433321,1862,1503,4_S
1779865276.243385,2168,1787,4_S
1779865276.2434828,2286,1891,4_S
1779865276.243561,2188,1453,4_S
1779865276.2436428,1924,1867,4_S
1779865276.24667,1796,1906,4_S
1779865276.251948,1905,1687,4_S
1779865276.2520268,1954,1912,4_S
1779865276.252079,1908,1851,4_S
1779865276.265551,1797,1643,4_S
1779865276.2658072,2205,1890,4_S
1779865276.268148,2109,1936,4_S
1779865276.275058,1854,2003,4_S
1779865276.2757142,2015,2025,4_S
1779865276.2781508,2174,2069,4_S
1779865276.27835,2185,1990,4_S
1779865276.279107,2102,2066,4_S
1779865276.279285,1924,2308,4_S
1779865276.2795022,1800,1883,4_S
1779865276.279558,2080,1796,4_S
1779865276.2796092,2003,1859,4_S
1779865276.279814,1807,2134,4_S
1779865276.2799091,1762,2018,4_S
1779865276.281332,2081,1879,4_S
1779865276.2914062,2216,1820,4_S
1779865276.2916229,2140,1834,4_S
1779865276.2941928,2035,1806,4_S
1779865276.295084,1995,1852,4_S
1779865276.301012,2096,1867,4_S
1779865276.301812,2059,2015,4_S
1779865276.305263,1832,2081,4_S
1779865276.305459,1804,1887,4_S
1779865276.305651,1929,2037,4_S
1779865276.3057148,2025,2094,4_S
1779865276.305783,1897,2016,4_S
1779865276.3059578,1947,2090,4_S
1779865276.30731,2038,1896,4_S
1779865276.310008,2116,1957,4_S
1779865276.3113642,1947,1981,4_S
1779865276.319099,2043,1984,4_S
1779865276.322577,2288,1981,4_S
1779865276.3274162,2379,1622,4_S
1779865276.327766,2405,1733,4_S
1779865276.3324218,1986,1748,4_S
1779865276.3327181,1754,1766,4_S
1779865276.332982,1811,1710,4_S
1779865276.336236,1988,1742,4_S
1779865276.336559,1976,1773,4_S
1779865276.336617,2096,1777,4_S
1779865276.336668,1983,1916,4_S
1779865276.336719,1827,2258,4_S
1779865276.3380759,1765,2194,4_S
1779865276.3394072,1952,2392,4_S
1779865276.346977,2133,2455,4_S
1779865276.350192,2060,2468,4_S
1779865276.353152,1966,2614,4_S
1779865276.3584309,2045,2459,4_S
1779865276.358582,2126,2299,4_S
1779865276.359398,2034,2394,4_S
1779865276.359649,2006,2282,4_S
1779865276.362404,2156,2075,4_S
1779865276.362653,2260,2035,4_S
1779865276.362703,2284,1983,4_S
1779865276.362771,2053,2322,4_S
1779865276.364147,1979,2171,4_S
1779865276.365471,1864,2175,4_S
1779865276.3680582,1862,2266,4_S
1779865276.374961,1918,2285,4_S
1779865276.377281,1958,2336,4_S
1779865276.380018,2017,2361,4_S
1779865276.381854,1977,2367,4_S
1779865276.385995,1942,2386,4_S
1779865276.386604,2021,2715,4_S
1779865276.3900611,2122,2575,4_S
1779865276.390239,2107,2428,4_S
1779865276.390628,2099,2473,4_S
1779865276.39077,2154,2435,4_S
1779865276.390908,2122,2479,4_S
1779865276.392416,2086,2392,4_S
1779865276.397921,1934,2238,4_S
1779865276.3987808,1764,2348,4_S
1779865276.3993878,2020,2269,4_S
1779865276.40215,2071,2223,4_S
1779865276.4026508,2107,2186,4_S
1779865276.406541,2017,2133,4_S
1779865276.4068742,2046,2293,4_S
1779865276.4106371,2034,2077,4_S
1779865276.410961,1971,2359,4_S
1779865276.4137259,2013,2425,4_S
1779865276.414485,2110,2323,4_S
1779865276.4158652,2150,2141,4_S
1779865276.417336,2067,2267,4_S
1779865276.4199638,1974,2163,4_S
1779865276.427413,2037,2146,4_S
1779865276.429825,2180,1960,4_S
1779865276.430196,1962,2088,4_S
1779865276.434054,1867,2226,4_S
1779865276.434319,1899,2162,4_S
1779865276.437875,2066,2095,4_S
1779865276.438587,2136,2053,4_S
1779865276.441657,2069,2076,4_S
1779865276.441965,2049,2076,4_S
1779865276.4421701,2071,2044,4_S
1779865276.44226,2180,2146,4_S
1779865276.4436018,1990,2238,4_S
1779865276.449533,1851,1920,4_S
1779865276.451613,1987,1752,4_S
1779865276.451778,2014,1910,4_S
1779865276.45373,2036,1857,4_S
1779865276.455824,2028,1947,4_S
1779865276.461371,2075,2197,4_S
1779865276.461712,2125,2308,4_S
1779865276.461942,2003,2454,4_S
1779865276.462283,1971,2651,4_S
1779865276.464499,2023,2570,4_S
1779865276.4658759,2121,2539,4_S
1779865276.4673321,2194,2488,4_S
1779865276.4699368,2084,2467,4_S
1779865276.4715772,1939,2424,4_S
1779865276.477399,1991,2279,4_S
1779865276.479946,2041,2161,4_S
1779865276.482662,2083,2179,4_S
1779865276.488169,2013,2351,4_S
1779865276.4910522,2013,2271,4_S
1779865276.491395,2044,2232,4_S
1779865276.491539,2062,2200,4_S
1779865276.4915981,2019,2219,4_S
1779865276.491648,2017,2132,4_S
1779865276.4916952,2030,2066,4_S
1779865276.4931169,1996,2192,4_S
1779865276.499392,1984,2205,4_S
1779865276.501812,2094,2147,4_S
1779865276.504703,2078,2143,4_S
1779865276.506428,2097,2120,4_S
1779865276.510429,2008,2038,4_S
1779865276.510783,2027,2011,4_S
1779865276.511093,2095,1976,4_S
1779865276.513929,2085,1975,4_S
1779865276.5140622,2038,2098,4_S
1779865276.5141819,2025,2154,4_S
1779865276.515813,2128,2021,4_S
1779865276.517174,2048,2086,4_S
1779865276.519972,1990,2150,4_S
1779865276.5269592,1965,2117,4_S
1779865276.528817,2062,2011,4_S
1779865276.529243,2002,1962,4_S
1779865276.531638,1929,2138,4_S
1779865276.533531,1960,2148,4_S
1779865276.5373418,2098,2040,4_S
1779865276.540731,2122,2032,4_S
1779865276.5408819,2111,2037,4_S
1779865276.540988,2074,2081,4_S
1779865276.541051,2090,1977,4_S
1779865276.541135,2129,2008,4_S
1779865276.548291,2003,2118,4_S
1779865276.551497,1941,2212,4_S
1779865276.559443,1983,2041,4_S
1779865276.562635,2043,1956,4_S
1779865276.562942,2087,2026,4_S
1779865276.563091,2083,2118,4_S
1779865276.563166,2087,2117,4_S
1779865276.563213,2071,1985,4_S
1779865276.563345,1992,2037,4_S
1779865276.5634298,1928,2050,4_S
1779865276.5635169,1985,1987,4_S
1779865276.565321,2051,1933,4_S
1779865276.568065,2070,1893,4_S
1779865276.575304,2041,1975,4_S
1779865276.578013,2012,1995,4_S
1779865276.580513,2053,1930,4_S
1779865276.585494,2035,1928,4_S
1779865276.586533,2000,2016,4_S
1779865276.5896409,1978,1957,4_S
1779865276.589728,2125,1813,4_S
1779865276.589875,2131,1766,4_S
1779865276.589937,2093,1843,4_S
1779865276.589986,2054,1883,4_S
1779865276.5900328,2108,1861,4_S
1779865276.591424,2037,1867,4_S
1779865276.59719,1968,1883,4_S
1779865276.600477,1954,2022,4_S
1779865276.600786,2042,2037,4_S
1779865276.6025448,2045,1969,4_S
1779865276.6050482,2033,1925,4_S
1779865276.605257,1971,1943,4_S
1779865276.608567,2023,1974,4_S
1779865276.6088462,2036,1875,4_S
1779865276.6121001,2085,1940,4_S
1779865276.612221,1990,2028,4_S
1779865276.613636,1990,2075,4_S
1779865276.6163032,2110,2010,4_S
1779865276.618931,2180,1997,4_S
1779865276.623229,2098,2009,4_S
1779865276.627126,2021,1978,4_S
1779865276.627389,2068,1927,4_S
1779865276.629299,2045,2020,4_S
1779865276.631382,1926,2081,4_S
1779865276.634898,1943,2113,4_S
1779865276.6351519,2033,2067,4_S
1779865276.635446,2112,2015,4_S
1779865276.635745,2063,2004,4_S
1779865276.638166,1969,2052,4_S
1779865276.63962,2059,2034,4_S
1779865276.646127,2102,1973,4_S
1779865276.64785,2039,2049,4_S
1779865276.649732,1965,2143,4_S
1779865276.653665,2054,2061,4_S
1779865276.653825,2061,2007,4_S
1779865276.6603708,2044,2021,4_S
1779865276.660504,2048,2000,4_S
1779865276.66063,2072,2068,4_S
1779865276.660788,2110,2048,4_S
1779865276.66101,2092,2036,4_S
1779865276.66117,1975,2167,4_S
1779865276.663937,2028,2113,4_S
1779865276.665271,2059,2069,4_S
1779865276.673422,2135,2002,4_S
1779865276.67541,2083,2021,4_S
1779865276.675771,2030,2021,4_S
1779865276.67632,2099,1987,4_S
1779865276.68353,2092,2063,4_S
1779865276.6838038,2049,2049,4_S
1779865276.68641,2013,2038,4_S
1779865276.6871428,2143,1947,4_S
1779865276.687438,2088,1928,4_S
1779865276.6874912,2033,1948,4_S
1779865276.687535,2013,1952,4_S
1779865276.6904619,2044,1958,4_S
1779865276.69644,2047,1903,4_S
1779865276.698782,2001,1980,4_S
1779865276.7009711,1964,2062,4_S
1779865276.701824,2037,2009,4_S
1779865276.706568,2088,1968,4_S
1779865276.706739,2131,1883,4_S
1779865276.707055,2058,1988,4_S
1779865276.70777,2091,1964,4_S
1779865276.7079659,2118,1957,4_S
1779865276.710481,2113,1963,4_S
1779865276.711822,1977,2072,4_S
1779865276.7131789,2065,2072,4_S
1779865276.7158778,2124,2037,4_S
1779865276.722993,2106,1978,4_S
1779865276.7231019,2085,2046,4_S
1779865276.723239,2016,2152,4_S
1779865276.7261388,2164,2114,4_S
1779865276.729789,2098,1996,4_S
1779865276.736515,1995,2104,4_S
1779865276.736612,1951,2143,4_S
1779865276.736734,2003,2077,4_S
1779865276.736798,2085,2014,4_S
1779865276.7370188,2088,1920,4_S
1779865276.7370722,2178,1989,4_S
1779865276.7446458,2225,1992,4_S
1779865276.748522,2158,1994,4_S
1779865276.7509491,2069,2104,4_S
1779865276.751327,1990,2253,4_S
1779865276.75535,2109,2134,4_S
1779865276.758079,2160,2127,4_S
1779865276.758207,2151,2001,4_S
1779865276.758341,2034,2029,4_S
1779865276.758504,1978,2092,4_S
1779865276.758616,2019,2001,4_S
1779865276.759988,2092,1996,4_S
1779865276.7613308,2085,2007,4_S
1779865276.76401,2014,1927,4_S
1779865276.769964,2105,1843,4_S
1779865276.776757,2137,2108,4_S
1779865276.780086,2116,2263,4_S
1779865276.7807329,2194,2132,4_S
1779865276.783762,2090,1935,4_S
1779865276.783937,1972,1996,4_S
1779865276.7839859,2059,2183,4_S
1779865276.78403,1968,2214,4_S
1779865276.7840729,2116,2114,4_S
1779865276.7841148,2109,1980,4_S
1779865276.78549,2063,1924,4_S
1779865276.7903712,1990,2009,4_S
1779865276.792563,2111,2054,4_S
1779865276.79456,2147,2084,4_S
1779865276.796799,2173,2059,4_S
1779865276.7974558,1997,2162,4_S
1779865276.802339,2006,2132,4_S
1779865276.805116,2063,2102,4_S
1779865276.805372,2175,2128,4_S
1779865276.806425,2089,2159,4_S
1779865276.806558,2050,2110,4_S
1779865276.807999,2077,2030,4_S
1779865276.8093581,1977,2067,4_S
1779865276.811981,2061,2203,4_S
1779865276.818887,1996,2103,4_S
1779865276.81952,2110,2097,4_S
1779865276.8218722,2122,1997,4_S
1779865276.824458,2069,1903,4_S
1779865276.8291688,2045,1960,4_S
1779865276.830095,2086,2062,4_S
1779865276.833169,2020,2062,4_S
1779865276.833285,2019,2066,4_S
1779865276.83341,1931,2102,4_S
1779865276.833539,2088,1989,4_S
1779865276.833653,2146,2018,4_S
1779865276.835017,2082,1971,4_S
1779865276.8413801,2035,1973,4_S
1779865276.84241,2152,2129,4_S
1779865276.847053,2148,2145,4_S
1779865276.848636,2050,2094,4_S
1779865276.8488488,1952,2142,4_S
1779865276.852174,2042,2048,4_S
1779865276.852462,2168,2013,4_S
1779865276.852841,2250,2070,4_S
1779865276.8560698,2044,2216,4_S
1779865276.856367,2084,1899,4_S
1779865276.857791,2140,1905,4_S
1779865276.8591769,1943,2025,4_S
1779865276.861846,2000,2058,4_S
1779865276.8681548,2057,2189,4_S
1779865276.87112,2115,2267,4_S
1779865276.8727932,2208,2252,4_S
1779865276.8787541,2023,2137,4_S
1779865276.878987,1898,2129,4_S
1779865276.879256,2129,2189,4_S
1779865276.8826199,2076,2232,4_S
1779865276.882868,1911,2033,4_S
1779865276.8829608,1847,2212,4_S
1779865276.883094,2165,2432,4_S
1779865276.88321,2274,2397,4_S
1779865276.889858,2168,2011,4_S
1779865276.891608,1997,2138,4_S
1779865276.893728,2019,2168,4_S
1779865276.893982,2161,2102,4_S
1779865276.894198,2032,2122,4_S
1779865276.8983219,1897,2183,4_S
1779865276.901669,2032,2091,4_S
1779865276.901964,2086,1996,4_S
1779865276.902377,2026,2064,4_S
1779865276.905301,2013,2016,4_S
1779865276.9054239,2096,2104,4_S
1779865276.908066,2203,2059,4_S
1779865276.909454,2199,2059,4_S
1779865276.915992,2147,2163,4_S
1779865276.918464,2087,2203,4_S
1779865276.9203851,2086,2060,4_S
1779865276.920712,1982,1954,4_S
1779865276.927698,1982,2025,4_S
1779865276.928088,1986,2190,4_S
1779865276.928334,2072,2065,4_S
1779865276.928614,2041,2042,4_S
1779865276.931448,2007,2118,4_S
1779865276.931596,1931,2234,4_S
1779865276.931705,2036,2046,4_S
1779865276.933162,2100,1968,4_S
1779865276.940264,2087,1926,4_S
1779865276.942898,2125,2097,4_S
1779865276.9500742,2192,2048,4_S
1779865276.950342,2122,2013,4_S
1779865276.951234,1988,2057,4_S
1779865276.9542,1945,2119,4_S
1779865276.9544299,2117,2139,4_S
1779865276.9545531,2081,2049,4_S
1779865276.9546392,2052,2057,4_S
1779865276.954753,2019,2002,4_S
1779865276.9559119,2083,2075,4_S
1779865276.957382,2139,1931,4_S
1779865276.960024,2065,2071,4_S
1779865276.966342,1933,2207,4_S
1779865276.9686751,1989,2196,4_S
1779865276.968904,2131,2021,4_S
1779865276.971404,2123,1913,4_S
1779865276.9730592,2074,1972,4_S
1779865276.9762828,2133,2073,4_S
1779865276.9766452,2160,2187,4_S
1779865276.9769769,2006,2121,4_S
1779865276.979706,1974,2087,4_S
1779865276.980043,1976,2042,4_S
1779865276.981397,2151,2136,4_S
1779865276.9883368,2021,2343,4_S
1779865276.9895282,1948,2214,4_S
1779865276.991531,2078,2128,4_S
1779865276.9955788,2070,2328,4_S
1779865276.998572,2094,2210,4_S
1779865276.999224,2006,2217,4_S
1779865276.99949,1997,2292,4_S
1779865277.001848,2132,2242,4_S
1779865277.002848,2117,2060,4_S
1779865277.002906,2087,2056,4_S
1779865277.0029519,2101,2157,4_S
1779865277.005573,2138,2238,4_S
1779865277.006968,2084,2079,4_S
1779865277.0137112,2082,2052,4_S
1779865277.015151,1984,2157,4_S
1779865277.0174358,1971,2225,4_S
1779865277.017835,2096,2214,4_S
1779865277.018073,2110,2075,4_S
1779865277.021591,2056,2046,4_S
1779865277.0248818,2036,2045,4_S
1779865277.025571,2110,2012,4_S
1779865277.0278158,2077,1984,4_S
1779865277.028482,1940,2097,4_S
1779865277.029814,1977,2232,4_S
1779865277.0358489,2098,2130,4_S
1779865277.0365188,2149,2076,4_S
1779865277.039789,2087,2134,4_S
1779865277.0421581,1995,2114,4_S
1779865277.044471,2080,2038,4_S
1779865277.047755,2079,2035,4_S
1779865277.048275,2024,2113,4_S
1779865277.051414,1993,2183,4_S
1779865277.051527,2083,2134,4_S
1779865277.051658,2131,2078,4_S
1779865277.051765,2110,2039,4_S
1779865277.053129,2042,2084,4_S
1779865277.055731,2045,2072,4_S
1779865277.05708,2125,2048,4_S
1779865277.071883,2050,2069,4_S
1779865277.07434,1994,2201,4_S
1779865277.075287,1990,2238,4_S
1779865277.07537,2103,2123,4_S
1779865277.075437,2128,2119,4_S
1779865277.075517,2053,2144,4_S
1779865277.075605,2030,2135,4_S
1779865277.075694,2077,2066,4_S
1779865277.0757902,2078,2065,4_S
1779865277.0772831,2001,2143,4_S
1779865277.079922,1943,2209,4_S
1779865277.0859892,2076,2097,4_S
1779865277.090077,2114,2083,4_S
1779865277.096826,2077,2052,4_S
1779865277.0978189,2034,2075,4_S
1779865277.100721,2099,2052,4_S
1779865277.101019,2096,2083,4_S
1779865277.10112,2043,2124,4_S
1779865277.101175,2001,2155,4_S
1779865277.1012511,2034,2075,4_S
1779865277.1013079,2109,2019,4_S
1779865277.101357,2085,1996,4_S
1779865277.109014,2018,2037,4_S
1779865277.111702,2010,2060,4_S
1779865277.113111,2160,1997,4_S
1779865277.1182148,2112,2014,4_S
1779865277.11846,2005,2048,4_S
1779865277.1186712,2007,2104,4_S
1779865277.118814,2109,2088,4_S
1779865277.119387,2089,2009,4_S
1779865277.122207,2071,1997,4_S
1779865277.1224692,2092,2064,4_S
1779865277.1238332,2090,2051,4_S
1779865277.1251829,2030,2032,4_S
1779865277.127785,1969,2145,4_S
1779865277.134208,1967,2165,4_S
1779865277.1402,2028,2104,4_S
1779865277.1404119,2100,2105,4_S
1779865277.145757,2101,2018,4_S
1779865277.1459,2086,2080,4_S
1779865277.146055,2131,2020,4_S
1779865277.146208,2140,2063,4_S
1779865277.146284,2054,2137,4_S
1779865277.146383,1979,2215,4_S
1779865277.147723,2032,2192,4_S
1779865277.149778,2035,2040,4_S
1779865277.151128,2104,1987,4_S
1779865277.153524,2055,2046,4_S
1779865277.155307,2076,2092,4_S
1779865277.1611662,2122,2036,4_S
1779865277.162501,2030,2068,4_S
1779865277.16433,2017,2093,4_S
1779865277.1644568,2009,2114,4_S
1779865277.168344,2085,2031,4_S
1779865277.171987,2121,2077,4_S
1779865277.17262,2078,2171,4_S
1779865277.175723,2060,2132,4_S
1779865277.1758358,2122,2040,4_S
1779865277.175958,2066,2059,4_S
1779865277.177397,1997,2090,4_S
1779865277.187839,1938,2173,4_S
1779865277.194187,2097,2024,4_S
1779865277.1947699,2087,2033,4_S
1779865277.198022,2064,2042,4_S
1779865277.198085,2017,2059,4_S
1779865277.1981308,2047,2051,4_S
1779865277.198175,2058,2084,4_S
1779865277.1982179,2011,2120,4_S
1779865277.1982589,2012,2206,4_S
1779865277.198302,2090,2147,4_S
1779865277.199662,2101,2092,4_S
1779865277.200993,2095,2064,4_S
1779865277.203887,1991,2098,4_S
1779865277.2053592,2042,2054,4_S
1779865277.22353,2131,2040,4_S
1779865277.226578,2049,2059,4_S
1779865277.226732,2013,2081,4_S
1779865277.2268522,1961,2137,4_S
1779865277.227128,2072,2056,4_S
1779865277.227206,2115,2004,4_S
1779865277.227283,2061,2030,4_S
1779865277.227346,2038,2065,4_S
1779865277.227455,2090,2002,4_S
1779865277.227533,2078,2002,4_S
1779865277.227602,1979,2148,4_S
1779865277.229871,1947,2192,4_S
1779865277.236046,2071,2074,4_S
1779865277.243283,2109,2050,4_S
1779865277.243545,2093,2056,4_S
1779865277.2500951,2035,2105,4_S
1779865277.250192,2073,2082,4_S
1779865277.250301,2069,2016,4_S
1779865277.250456,2043,2076,4_S
1779865277.25055,1938,2160,4_S
1779865277.250675,2031,2193,4_S
1779865277.2507288,2104,2151,4_S
1779865277.252599,2144,2145,4_S
1779865277.254268,2043,2092,4_S
1779865277.2557912,2070,2103,4_S
1779865277.257277,2155,2071,4_S
1779865277.298649,2062,2056,4_S
1779865277.298718,1961,2150,4_S
1779865277.2987719,2014,2167,4_S
1779865277.298817,2184,2054,4_S
1779865277.298861,2109,2085,4_S
1779865277.298903,2047,2078,4_S
1779865277.2989461,2037,2098,4_S
1779865277.298988,2098,2059,4_S
1779865277.29903,2081,2105,4_S
1779865277.299072,1982,2173,4_S
1779865277.299114,1891,2236,4_S
1779865277.299155,2036,2144,4_S
1779865277.299197,2075,2099,4_S
1779865277.299238,2080,2086,4_S
1779865277.29928,2085,2105,4_S
1779865277.2993212,2101,2107,4_S
1779865277.299362,2149,2014,4_S
1779865277.299403,2040,2100,4_S
1779865277.299445,2006,2154,4_S
1779865277.299486,2138,2085,4_S
1779865277.299527,2094,2054,4_S
1779865277.322641,2060,2017,4_S
1779865277.3227808,2050,1986,4_S
1779865277.3488152,2026,2019,4_S
1779865277.349107,2089,1992,4_S
1779865277.3492239,2060,1977,4_S
1779865277.349302,1996,1981,4_S
1779865277.34938,1998,2142,4_S
1779865277.349448,2061,2087,4_S
1779865277.3496509,2109,1927,4_S
1779865277.3507562,2087,1922,4_S
1779865277.350841,2106,2003,4_S
1779865277.351019,2264,1925,4_S
1779865277.35153,2174,1997,4_S
1779865277.352389,2032,2110,4_S
1779865277.358542,1935,2199,4_S
1779865277.3695009,2062,2062,4_S
1779865277.374341,2143,2028,4_S
1779865277.374551,2218,2005,4_S
1779865277.374631,1990,2063,4_S
1779865277.374702,1958,2062,4_S
1779865277.374767,2278,1839,4_S
1779865277.374836,2128,2024,4_S
1779865277.375073,1878,2350,4_S
1779865277.375146,1785,2151,4_S
1779865277.3752089,2025,2032,4_S
1779865277.37527,2028,2048,4_S
1779865277.37533,2115,2096,4_S
1779865277.37539,2107,2105,4_S
1779865277.375448,2023,2127,4_S
1779865277.3755178,1979,2014,4_S
1779865277.375577,2026,2132,4_S
1779865277.3756359,2127,2102,4_S
1779865277.375696,2113,2204,4_S
1779865277.375755,2146,2092,4_S
1779865277.375814,2062,2014,4_S
1779865277.375875,2289,2043,4_S
1779865277.375937,2075,2141,4_S
1779865277.3760781,1876,2123,4_S
1779865277.392243,1873,2137,4_S
1779865277.395243,1920,2218,4_S
1779865277.39536,2100,2117,4_S
1779865277.395456,2127,2051,4_S
1779865277.395537,2078,2014,4_S
1779865277.3955991,2025,2110,4_S
1779865277.3956501,2133,2105,4_S
1779865277.395694,2065,2089,4_S
1779865277.3957381,2077,2033,4_S
1779865277.395784,2066,2137,4_S
1779865277.397387,2065,2177,4_S
1779865277.400092,2070,2021,4_S
1779865277.406739,2084,1982,4_S
1779865277.41037,2044,2051,4_S
1779865277.4175181,2039,2119,4_S
1779865277.421973,2080,2091,4_S
1779865277.422063,2030,2084,4_S
1779865277.4221282,2011,2171,4_S
1779865277.422188,2064,2200,4_S
1779865277.422248,2212,2108,4_S
1779865277.4223092,2129,2321,4_S
1779865277.4223669,2215,2434,4_S
1779865277.4224262,2071,2492,4_S
1779865277.4237928,2013,2396,4_S
1779865277.435766,2045,2377,4_S
1779865277.440841,1974,2537,4_S
1779865277.44156,2001,2882,4_S
1779865277.444627,2178,2707,4_S
1779865277.44475,2164,2648,4_S
1779865277.444829,1995,2476,4_S
1779865277.4448938,2041,2413,4_S
1779865277.4449549,2104,2404,4_S
1779865277.4450161,2030,2294,4_S
1779865277.445138,1921,2289,4_S
1779865277.445308,1952,2353,4_S
1779865277.448029,2038,2286,4_S
1779865277.4494112,2039,2437,4_S
1779865277.459872,2138,2485,4_S
1779865277.4603121,2151,2438,4_S
1779865277.464556,2291,2451,4_S
1779865277.470888,2142,2538,4_S
1779865277.4710321,2028,2529,4_S
1779865277.4711308,2044,2578,4_S
1779865277.471179,2054,2524,4_S
1779865277.471225,2246,2321,4_S
1779865277.4712682,2158,2263,4_S
1779865277.471311,2063,2311,4_S
1779865277.471354,1983,2403,4_S
1779865277.474144,1999,2239,4_S
1779865277.47665,2197,2137,4_S
1779865277.489644,2221,2327,4_S
1779865277.4924319,1932,2580,4_S
1779865277.500321,2132,2359,4_S
1779865277.500531,2297,2220,4_S
1779865277.5007098,2047,2248,4_S
1779865277.500871,2034,2099,4_S
1779865277.500981,2219,2289,4_S
1779865277.501075,1997,2318,4_S
1779865277.501152,1963,2247,4_S
1779865277.501218,2008,2337,4_S
1779865277.501339,1947,2315,4_S
1779865277.501457,1978,2168,4_S
1779865277.5015502,2052,2143,4_S
1779865277.503114,2061,2024,4_S
1779865277.505842,2039,2127,4_S
1779865277.507251,2189,2143,4_S
1779865277.5290911,2103,2093,4_S
1779865277.529805,2076,2176,4_S
1779865277.529948,2013,2249,4_S
1779865277.530229,2108,2097,4_S
1779865277.530303,2160,2072,4_S
1779865277.530355,2094,2135,4_S
1779865277.530406,2019,2195,4_S
1779865277.5304582,2080,2069,4_S
1779865277.5305102,2132,2073,4_S
1779865277.5306082,2073,2146,4_S
1779865277.5306728,2025,2233,4_S
1779865277.530844,2146,2141,4_S
1779865277.546446,2118,2126,4_S
1779865277.5502,2088,2043,4_S
1779865277.550986,2059,2086,4_S
1779865277.554967,2103,2051,4_S
1779865277.5553238,2264,1945,4_S
1779865277.555445,2178,2093,4_S
1779865277.5555332,1938,2184,4_S
1779865277.5555992,1898,2135,4_S
1779865277.5556731,2052,2198,4_S
1779865277.555734,2084,2037,4_S
1779865277.555819,2111,2059,4_S
1779865277.5559502,2090,2127,4_S
1779865277.5573142,2102,2128,4_S
1779865277.559049,2035,2080,4_S
1779865277.5617669,1952,2091,4_S
1779865277.563267,1963,2139,4_S
1779865277.573979,2259,1937,4_S
1779865277.582297,2149,1847,4_S
1779865277.5863638,2050,1966,4_S
1779865277.58647,2076,2135,4_S
1779865277.58655,1986,2014,4_S
1779865277.5866828,2104,1940,4_S
1779865277.587036,2067,2118,4_S
1779865277.587121,1895,2269,4_S
1779865277.587189,2387,2143,4_S
1779865277.587255,2297,2071,4_S
1779865277.587415,2104,2009,4_S
1779865277.587518,1922,1967,4_S
1779865277.589073,1951,1992,4_S
1779865277.601852,2148,2066,4_S
1779865277.6083431,1995,2109,4_S
1779865277.6089568,2078,2151,4_S
1779865277.612148,1864,2140,4_S
1779865277.612323,2058,2008,4_S
1779865277.612822,2049,1995,4_S
1779865277.6129012,2092,1937,4_S
1779865277.613174,2224,2019,4_S
1779865277.61325,2413,2078,4_S
1779865277.613308,1889,2159,4_S
1779865277.613361,1595,2367,4_S
1779865277.61351,1925,2060,4_S
1779865277.615166,2217,2038,4_S
1779865277.6178749,1966,2142,4_S
1779865277.6192892,1981,1995,4_S
1779865277.632896,1587,1769,4_S
1779865277.642171,2026,1788,4_S
1779865277.643457,2536,1827,4_S
1779865277.643588,2064,2191,4_S
1779865277.643693,2082,2465,4_S
1779865277.643807,2058,2295,4_S
1779865277.64388,2027,2162,4_S
1779865277.643956,2351,2304,4_S
1779865277.644025,1931,2395,4_S
1779865277.644099,1959,2444,4_S
1779865277.644209,1814,2194,4_S
1779865277.64428,2030,2166,4_S
1779865277.646231,1967,2098,4_S
1779865277.65446,2001,2266,4_S
1779865277.6577542,2083,2098,4_S
1779865277.6656792,1774,1889,4_S
1779865277.666357,2028,2080,4_S
1779865277.669777,2373,2445,4_S
1779865277.6701639,1994,2373,4_S
1779865277.670291,1998,2209,4_S
1779865277.670413,2064,1998,4_S
1779865277.670485,2242,1963,4_S
1779865277.670551,2173,2038,4_S
1779865277.670617,1821,2114,4_S
1779865277.67069,1556,1712,4_S
1779865277.670804,2019,2022,4_S
1779865277.673617,2331,2161,4_S
1779865277.674983,1770,1943,4_S
1779865277.683564,2071,1920,4_S
1779865277.69522,2236,2547,4_S
1779865277.6960971,2217,2192,4_S
1779865277.699716,2365,1971,4_S
1779865277.69983,2286,2035,4_S
1779865277.699899,2270,2023,4_S
1779865277.6999621,2460,1876,4_S
1779865277.700022,2274,1821,4_S
1779865277.700086,2080,1980,4_S
1779865277.700146,2359,2017,4_S
1779865277.700206,1949,2142,4_S
1779865277.700267,1789,2072,4_S
1779865277.701668,1756,1854,4_S
1779865277.714983,1798,2294,4_S
1779865277.717341,2665,2332,4_S
1779865277.721531,2429,1915,4_S
1779865277.722146,1946,1884,4_S
1779865277.722701,2109,2042,4_S
1779865277.725771,2403,2161,4_S
1779865277.726221,2304,2058,4_S
1779865277.726381,2299,2123,4_S
1779865277.726455,2316,2046,4_S
1779865277.726611,2266,1971,4_S
1779865277.72669,2168,1983,4_S
1779865277.72679,2204,2137,4_S
1779865277.7268548,2000,2359,4_S
1779865277.729581,1743,2118,4_S
1779865277.73102,2225,2192,4_S
1779865277.740654,2396,1985,4_S
1779865277.7433972,2577,2013,4_S
1779865277.743743,2255,2160,4_S
1779865277.746649,2048,2007,4_S
1779865277.747618,2226,1727,4_S
1779865277.753619,2373,1723,4_S
1779865277.754642,2533,1517,4_S
1779865277.7578392,1971,2085,4_S
1779865277.757985,1654,2291,4_S
1779865277.7581398,1879,1692,4_S
1779865277.75824,1959,1440,4_S
1779865277.758305,1972,1871,4_S
1779865277.758369,2301,2358,4_S
1779865277.7599628,2035,2122,4_S
1779865277.773098,1893,2034,4_S
1779865277.782526,2018,2011,4_S
1779865277.782685,2248,1972,4_S
1779865277.782767,2480,1936,4_S
1779865277.782968,2418,1980,4_S
1779865277.7830908,2114,2037,4_S
1779865277.783307,2140,2119,4_S
1779865277.783425,1986,2016,4_S
1779865277.783544,1945,1992,4_S
1779865277.7837172,1970,1739,4_S
1779865277.78377,1981,1891,4_S
1779865277.783819,2125,2203,4_S
1779865277.7858949,1916,1899,4_S
1779865277.787263,2116,1747,4_S
1779865277.788697,2156,2126,4_S
1779865277.791569,2059,2235,4_S
1779865277.803039,1882,2115,4_S
1779865277.8154318,1825,2281,4_S
1779865277.815625,1864,2160,4_S
1779865277.81576,1935,1967,4_S
1779865277.815857,2008,1963,4_S
1779865277.815982,2295,2088,4_S
1779865277.816093,1952,2093,4_S
1779865277.8162298,2067,1757,4_S
1779865277.816305,2040,1781,4_S
1779865277.816355,2104,2075,4_S
1779865277.8164039,1931,2096,4_S
1779865277.8165061,2319,2037,4_S
1779865277.816702,2281,2019,4_S
1779865277.8369422,1979,1971,4_S
1779865277.842195,1847,2026,4_S
1779865277.842292,2072,1941,4_S
1779865277.842388,1884,1838,4_S
1779865277.842515,1909,1943,4_S
1779865277.8426108,1691,2080,4_S
1779865277.842718,1902,1942,4_S
1779865277.842838,1971,1839,4_S
1779865277.8429508,2032,2077,4_S
1779865277.843074,2045,2001,4_S
1779865277.8432581,2045,1982,4_S
1779865277.8433468,2083,2031,4_S
1779865277.843452,2053,2080,4_S
1779865277.8448389,1950,2184,4_S
1779865277.847455,1947,2190,4_S
1779865277.849084,2108,2061,4_S
1779865277.865026,2077,2010,4_S
1779865277.869277,2029,1939,4_S
1779865277.869735,1942,2037,4_S
1779865277.8732538,2030,2060,4_S
1779865277.873371,2053,2015,4_S
1779865277.873573,1921,2076,4_S
1779865277.8737001,1974,2216,4_S
1779865277.873782,2154,2138,4_S
1779865277.873919,2098,2007,4_S
1779865277.8740962,1751,2011,4_S
1779865277.874181,1792,2068,4_S
1779865277.874254,1938,2054,4_S
1779865277.875917,2116,2016,4_S
1779865277.886854,1898,2031,4_S
1779865277.8873441,1711,2086,4_S
1779865277.889243,1861,2080,4_S
1779865277.890075,1968,2015,4_S
1779865277.8926961,2025,1966,4_S
1779865277.900844,2018,2000,4_S
1779865277.90101,2063,2068,4_S
1779865277.901093,2104,2011,4_S
1779865277.9011729,2214,2005,4_S
1779865277.9012349,2031,2261,4_S
1779865277.9012969,1874,2222,4_S
1779865277.90136,1951,1950,4_S
1779865277.901459,2015,1865,4_S
1779865277.902957,2124,1862,4_S
1779865277.905756,1785,1835,4_S
1779865277.90714,1836,1674,4_S
1779865277.9191208,1911,1649,4_S
1779865277.927506,1944,1723,4_S
1779865277.932179,1868,1791,4_S
1779865277.932273,1970,1661,4_S
1779865277.932341,2037,1574,4_S
1779865277.9324028,2099,1620,4_S
1779865277.9324641,2084,1745,4_S
1779865277.932569,2180,1775,4_S
1779865277.9326642,2134,1853,4_S
1779865277.932769,2027,1884,4_S
1779865277.932867,1782,1923,4_S
1779865277.932975,2082,1763,4_S
1779865277.933125,2172,1891,4_S
1779865277.941212,2165,1934,4_S
1779865277.944862,2085,2032,4_S
1779865277.953111,2033,2082,4_S
1779865277.9563031,2103,1957,4_S
1779865277.9569159,2052,2011,4_S
1779865277.9569979,2107,2137,4_S
1779865277.95716,1940,2162,4_S
1779865277.957286,2122,1954,4_S
1779865277.957356,2232,1774,4_S
1779865277.957481,2118,1907,4_S
1779865277.957581,2200,1997,4_S
1779865277.95765,2183,2017,4_S
1779865277.959042,2155,2127,4_S
1779865277.961789,2086,1929,4_S
1779865277.963179,2078,1957,4_S
1779865277.9740312,2207,1774,4_S
1779865277.974536,2152,1758,4_S
1779865277.977771,2222,1864,4_S
1779865277.9833422,2118,1960,4_S
1779865277.983805,2145,1860,4_S
1779865277.984669,2205,1850,4_S
1779865277.987956,2112,1924,4_S
1779865277.988485,2055,1963,4_S
1779865277.988575,2003,2129,4_S
1779865277.9886348,1983,2062,4_S
1779865277.98875,2078,1973,4_S
1779865277.9888299,2144,2040,4_S
1779865277.9889011,2080,1977,4_S
1779865278.001181,2076,1861,4_S
1779865278.001458,2006,1828,4_S
1779865278.0019772,2105,1772,4_S
1779865278.006952,2120,1881,4_S
1779865278.0110002,1965,1767,4_S
1779865278.011505,2082,1770,4_S
1779865278.0121138,2177,1775,4_S
1779865278.0158038,2194,1943,4_S
1779865278.015903,2149,1750,4_S
1779865278.015976,2053,1819,4_S
1779865278.016049,2159,1783,4_S
1779865278.016115,2123,1935,4_S
1779865278.016177,2151,2009,4_S
1779865278.017527,2158,1938,4_S
1779865278.018881,2251,1777,4_S
1779865278.021632,2103,1898,4_S
1779865278.023654,2096,1898,4_S
1779865278.030626,1972,1792,4_S
1779865278.034657,1905,1824,4_S
1779865278.03792,2050,1915,4_S
1779865278.043883,2139,1823,4_S
1779865278.044596,2241,1892,4_S
1779865278.048173,2220,1711,4_S
1779865278.0483341,2129,1857,4_S
1779865278.048525,2109,1951,4_S
1779865278.048662,2093,1927,4_S
1779865278.04877,2104,1965,4_S
1779865278.0489101,1995,1993,4_S
1779865278.049027,2024,1966,4_S
1779865278.049109,2076,2099,4_S
1779865278.051069,2078,1880,4_S
1779865278.059069,2108,1650,4_S
1779865278.069618,2051,1939,4_S
1779865278.0705202,2158,1899,4_S
1779865278.070893,2133,1912,4_S
1779865278.074403,2051,2115,4_S
1779865278.074564,1955,1996,4_S
1779865278.0748,2059,2011,4_S
1779865278.074951,2065,1925,4_S
1779865278.075072,2108,1957,4_S
1779865278.075226,2084,2005,4_S
1779865278.075294,2151,1909,4_S
1779865278.075349,2398,1832,4_S
1779865278.076776,2300,1899,4_S
1779865278.079307,2128,2186,4_S
1779865278.080641,2184,1968,4_S
1779865278.091152,2083,2262,4_S
1779865278.095972,1981,2307,4_S
1779865278.102633,1907,2283,4_S
1779865278.103766,1948,2187,4_S
1779865278.103978,1999,2169,4_S
1779865278.104039,1974,2204,4_S
1779865278.10417,1876,2229,4_S
1779865278.104226,1953,2253,4_S
1779865278.104275,2126,2237,4_S
1779865278.104324,2150,2098,4_S
1779865278.104449,2165,2107,4_S
1779865278.1046631,2185,2117,4_S
1779865278.1125891,2157,1986,4_S
1779865278.1248279,2185,1930,4_S
1779865278.125676,2057,1978,4_S
1779865278.129756,1899,2198,4_S
1779865278.1298912,1988,2045,4_S
1779865278.130013,2133,1788,4_S
1779865278.130114,2249,1880,4_S
1779865278.130257,2137,2083,4_S
1779865278.130362,2064,2043,4_S
1779865278.130441,2177,2021,4_S
1779865278.130583,2366,1923,4_S
1779865278.130722,2075,1942,4_S
1779865278.130794,1764,1932,4_S
1779865278.133494,1817,1781,4_S
1779865278.1348438,2000,1721,4_S
1779865278.146868,1949,1666,4_S
1779865278.155615,1912,1800,4_S
1779865278.159765,1988,1780,4_S
1779865278.159858,1888,1594,4_S
1779865278.159914,2035,1821,4_S
1779865278.160031,2050,1954,4_S
1779865278.16027,2173,2056,4_S
1779865278.1603892,2184,2042,4_S
1779865278.160453,2162,1879,4_S
1779865278.160623,2058,1910,4_S
1779865278.160684,2096,2000,4_S
1779865278.1607418,2047,1817,4_S
1779865278.1608,1945,1963,4_S
1779865278.174882,2014,2046,4_S
1779865278.177034,2141,2009,4_S
1779865278.181702,2225,1844,4_S
1779865278.1821241,2145,2046,4_S
1779865278.185278,1979,2142,4_S
1779865278.186399,1991,1998,4_S
1779865278.186527,1982,1954,4_S
1779865278.186608,1926,2193,4_S
1779865278.1866748,1904,2276,4_S
1779865278.186743,2011,2391,4_S
1779865278.186903,2081,2279,4_S
1779865278.18698,2123,2346,4_S
1779865278.187094,2025,2146,4_S
1779865278.188643,2132,2165,4_S
1779865278.19133,2130,2268,4_S
1779865278.192677,2069,2327,4_S
1779865278.2015429,2018,2168,4_S
1779865278.205554,1973,2017,4_S
1779865278.2109199,2114,1959,4_S
1779865278.215374,2146,1978,4_S
1779865278.2160819,2105,1946,4_S
1779865278.219491,2040,2024,4_S
1779865278.2200708,2089,2223,4_S
1779865278.220452,2102,2338,4_S
1779865278.22066,2005,2347,4_S
1779865278.221056,1895,2346,4_S
1779865278.221138,2042,2108,4_S
1779865278.2212741,2117,2059,4_S
1779865278.2214122,2132,2086,4_S
1779865278.221469,2051,2185,4_S
1779865278.238112,2067,2120,4_S
1779865278.2401578,2065,2121,4_S
1779865278.244412,2022,1948,4_S
1779865278.245273,2100,2185,4_S
1779865278.248683,2013,2249,4_S
1779865278.24881,2125,2239,4_S
1779865278.248947,2366,2135,4_S
1779865278.2490602,2178,2441,4_S
1779865278.249179,2018,2451,4_S
1779865278.249356,1975,2355,4_S
1779865278.249608,1936,2264,4_S
1779865278.249689,1922,2259,4_S
1779865278.2498481,1860,2339,4_S
1779865278.25007,2001,2212,4_S
1779865278.251542,2057,2280,4_S
1779865278.252907,2017,2095,4_S
1779865278.255389,2032,2175,4_S
1779865278.256732,2129,2110,4_S
1779865278.25941,2179,2287,4_S
1779865278.260621,2093,2392,4_S
1779865278.263256,2065,2591,4_S
1779865278.270485,2089,2495,4_S
1779865278.274872,2041,2417,4_S
1779865278.280121,2056,2464,4_S
1779865278.284034,1994,2454,4_S
1779865278.287622,2073,2236,4_S
1779865278.288768,2123,2153,4_S
1779865278.2888918,2084,2112,4_S
1779865278.28914,2058,2149,4_S
1779865278.289212,2174,2124,4_S
1779865278.289279,2244,2092,4_S
1779865278.2893598,2072,2257,4_S
1779865278.289427,1942,2199,4_S
1779865278.289576,1964,2201,4_S
1779865278.291002,2054,2187,4_S
1779865278.293747,1993,2379,4_S
1779865278.2951229,1896,2404,4_S
1779865278.3059032,1880,2535,4_S
1779865278.310935,2006,2340,4_S
1779865278.3151119,2131,2289,4_S
1779865278.315657,2230,2209,4_S
1779865278.315854,2094,2192,4_S
1779865278.318932,2110,1989,4_S
1779865278.319465,2157,2185,4_S
1779865278.3195431,2005,2189,4_S
1779865278.31961,1928,2326,4_S
1779865278.319744,1967,2264,4_S
1779865278.3198102,1995,2203,4_S
1779865278.319882,2122,2215,4_S
1779865278.3215759,2043,2278,4_S
1779865278.3249679,2069,2246,4_S
1779865278.3250592,2118,2099,4_S
1779865278.3287091,2056,2025,4_S
1779865278.328901,2003,2141,4_S
1779865278.3319502,2016,2138,4_S
1779865278.335,1973,1814,4_S
1779865278.3351018,2098,2007,4_S
1779865278.338115,2225,1918,4_S
1779865278.3394492,2204,2040,4_S
1779865278.3438,2078,2092,4_S
1779865278.343861,2010,2037,4_S
1779865278.348119,1973,2087,4_S
1779865278.3538299,1962,2106,4_S
1779865278.353936,2062,2038,4_S
1779865278.354073,2066,1804,4_S
1779865278.354132,1978,1603,4_S
1779865278.355911,1985,1724,4_S
1779865278.3574421,2044,1751,4_S
1779865278.369173,2092,1661,4_S
1779865278.373975,2095,1703,4_S
1779865278.3791978,2024,1848,4_S
1779865278.380167,2127,1855,4_S
1779865278.3838232,2119,1900,4_S
1779865278.383929,2083,1972,4_S
1779865278.384162,2020,1892,4_S
1779865278.384347,2052,1753,4_S
1779865278.384467,2108,1896,4_S
1779865278.3846772,2069,1922,4_S
1779865278.384795,2030,1988,4_S
1779865278.384883,2029,1986,4_S
1779865278.3849769,2177,2028,4_S
1779865278.38507,2097,2091,4_S
1779865278.3864388,1998,2241,4_S
1779865278.3889651,1952,2195,4_S
1779865278.3904262,2105,2380,4_S
1779865278.3932512,2044,2335,4_S
1779865278.40165,1991,2422,4_S
1779865278.4068348,2057,2369,4_S
1779865278.4090612,2122,2320,4_S
1779865278.412731,2019,2383,4_S
1779865278.415779,2004,2573,4_S
1779865278.419062,1959,2543,4_S
1779865278.4218938,2059,2305,4_S
1779865278.4220731,2116,2318,4_S
1779865278.4236522,1987,2339,4_S
1779865278.4258409,1909,2393,4_S
1779865278.4260962,2030,2250,4_S
1779865278.426636,2077,2246,4_S
1779865278.42682,2144,2093,4_S
1779865278.4287,2091,2075,4_S
1779865278.430453,2127,2295,4_S
1779865278.431181,2157,2195,4_S
1779865278.432816,2010,2153,4_S
1779865278.4328802,1997,2213,4_S
1779865278.4329338,1982,2201,4_S
1779865278.432988,2122,2067,4_S
1779865278.434415,2092,2078,4_S
1779865278.440536,2060,2014,4_S
1779865278.4437802,2019,2141,4_S
1779865278.4439309,2070,1952,4_S
1779865278.445885,2018,2003,4_S
1779865278.445941,2009,2140,4_S
1779865278.448792,1951,2188,4_S
1779865278.448917,2079,2127,4_S
1779865278.453411,2120,2097,4_S
1779865278.453522,2131,2112,4_S
1779865278.455038,2035,2136,4_S
1779865278.4578319,2104,2006,4_S
1779865278.459201,2168,1983,4_S
1779865278.460535,2040,2135,4_S
1779865278.46312,1951,2258,4_S
1779865278.464443,2042,2191,4_S
1779865278.471176,2057,1994,4_S
1779865278.4722931,2072,1978,4_S
1779865278.472495,2057,2055,4_S
1779865278.4725912,2067,2138,4_S
1779865278.561106,2093,2119,4_S
1779865278.5618858,2050,2212,4_S
1779865278.562057,1976,2164,4_S
1779865278.562542,1974,2148,4_S
1779865278.56284,2060,2158,4_S
1779865278.5629492,2087,2139,4_S
1779865278.56301,2098,2164,4_S
1779865278.563168,2068,2060,4_S
1779865278.5633159,2107,2048,4_S
1779865278.566646,2129,2076,4_S
1779865278.5667078,2038,2132,4_S
1779865278.5668612,1893,2272,4_S
1779865278.56721,1992,2188,4_S
1779865278.567272,2044,2119,4_S
1779865278.567326,2065,2033,4_S
1779865278.567473,2034,2058,4_S
1779865278.567903,2091,2253,4_S
1779865278.5679932,2063,1986,4_S
1779865278.568269,2035,2121,4_S
1779865278.568479,2014,2288,4_S
1779865278.568529,2093,2282,4_S
1779865278.568806,2089,2228,4_S
1779865278.568929,2149,2157,4_S
1779865278.5689778,2009,2201,4_S
1779865278.569022,2005,2167,4_S
1779865278.569247,2035,2127,4_S
1779865278.569298,2013,2112,4_S
1779865278.5694542,1961,2207,4_S
1779865278.569661,1983,2136,4_S
1779865278.569708,2100,2228,4_S
1779865278.5697541,2078,2222,4_S
1779865278.569834,2145,2184,4_S
1779865278.5700328,2023,2111,4_S
1779865278.5706508,2084,2187,4_S
1779865278.571002,2029,2290,4_S
1779865278.5711539,1984,2180,4_S
1779865278.571218,1986,2266,4_S
1779865278.5712798,2118,2191,4_S
1779865278.5714262,2093,2058,4_S
1779865278.571473,2100,2123,4_S
1779865278.5715232,2029,2000,4_S
1779865278.571717,1995,2031,4_S
1779865278.5718021,2017,2189,4_S
1779865278.5718489,1962,2244,4_S
1779865278.571894,1911,2241,4_S
1779865278.572178,2007,2231,4_S
1779865278.572343,2101,2171,4_S
1779865278.572753,2111,2143,4_S
1779865278.5728981,2038,2135,4_S
1779865278.573026,2027,2066,4_S
1779865278.574873,2088,2093,4_S
1779865278.593226,2037,2140,4_S
1779865278.594889,1997,2163,4_S
1779865278.5953028,2027,2118,4_S
1779865278.599803,2097,2094,4_S
1779865278.600246,2062,1985,4_S
1779865278.6009011,2000,1999,4_S
1779865278.604959,2051,2110,4_S
1779865278.605191,2125,2036,4_S
1779865278.605251,2065,2097,4_S
1779865278.60536,1932,2003,4_S
1779865278.605408,1997,2140,4_S
1779865278.605529,2095,2031,4_S
1779865278.6057081,2055,1906,4_S
1779865278.605772,2085,1972,4_S
1779865278.605819,2089,2184,4_S
1779865278.606903,2062,2113,4_S
1779865278.610229,2073,2185,4_S
1779865278.6104598,2059,2248,4_S
1779865278.612917,1948,2282,4_S
1779865278.614573,2040,2219,4_S
1779865278.617074,2064,2172,4_S
1779865278.618387,2043,2108,4_S
1779865278.63022,1983,2253,4_S
1779865278.637841,2062,2140,4_S
1779865278.644105,2101,2088,4_S
1779865278.644533,2040,2022,4_S
1779865278.645033,1985,2126,4_S
1779865278.6488152,2052,2161,4_S
1779865278.6497211,2064,2016,4_S
1779865278.651396,2089,1912,4_S
1779865278.652444,2006,1933,4_S
1779865278.6551218,1964,1891,4_S
1779865278.655313,2045,1911,4_S
1779865278.6577642,2042,1941,4_S
1779865278.658558,1956,1963,4_S
1779865278.658619,1924,2022,4_S
1779865278.658684,2038,1813,4_S
1779865278.658729,2107,1978,4_S
1779865278.658798,2071,1970,4_S
1779865278.6588428,2044,2010,4_S
1779865278.658926,2058,1954,4_S
1779865278.658992,2073,1998,4_S
1779865278.660318,2055,2061,4_S
1779865278.662909,1959,2209,4_S
1779865278.66898,2041,2181,4_S
1779865278.669259,2013,2133,4_S
1779865278.671263,2037,2091,4_S
1779865278.672425,2036,2054,4_S
1779865278.672808,2084,2138,4_S
1779865278.675336,2085,2099,4_S
1779865278.676924,2047,2167,4_S
1779865278.680672,1996,2372,4_S
1779865278.680777,1981,2324,4_S
1779865278.683511,2012,2279,4_S
1779865278.686326,2073,2230,4_S
1779865278.6884952,2072,2180,4_S
1779865278.688601,2044,2369,4_S
1779865278.69238,2131,2366,4_S
1779865278.692582,2069,2333,4_S
1779865278.695335,1954,2427,4_S
1779865278.699772,1926,2465,4_S
1779865278.6998231,2092,2314,4_S
1779865278.718762,2177,2361,4_S
1779865278.718836,2148,2216,4_S
1779865278.735046,2007,2228,4_S
1779865278.735164,2106,2054,4_S
1779865278.740234,2097,1853,4_S
1779865278.74083,1990,2105,4_S
1779865278.7421172,1943,2264,4_S
1779865278.742177,2046,2144,4_S
1779865278.742223,2123,2347,4_S
1779865278.742269,2162,2353,4_S
1779865278.742527,2035,2468,4_S
1779865278.744873,2029,2532,4_S
1779865278.757424,2099,2491,4_S
1779865278.7663171,2081,2412,4_S
1779865278.766589,1969,2504,4_S
1779865278.7706082,1998,2432,4_S
1779865278.802356,2067,2276,4_S
1779865278.80267,2132,2205,4_S
1779865278.802828,2094,2196,4_S
1779865278.802932,2020,2272,4_S
1779865278.803058,2136,2138,4_S
1779865278.8032022,2138,2062,4_S
1779865278.803295,2036,2263,4_S
1779865278.8033762,1955,2306,4_S
1779865278.803433,2072,2100,4_S
1779865278.803797,2104,2072,4_S
1779865278.803939,2125,2070,4_S
1779865278.8039901,2079,2103,4_S
1779865278.804066,2118,2187,4_S
1779865278.804152,2071,2102,4_S
1779865278.804249,2006,2259,4_S
1779865278.804332,2010,2395,4_S
1779865278.804404,2067,2262,4_S
1779865278.8044622,2079,2186,4_S
1779865278.804512,2090,2188,4_S
1779865278.804576,2033,2219,4_S
1779865278.804805,2056,2220,4_S
1779865278.8049102,2125,2087,4_S
1779865278.804977,2058,2096,4_S
1779865278.8050308,2014,2149,4_S
1779865278.805077,2023,2204,4_S
1779865278.8051252,2118,2086,4_S
1779865278.805185,2091,2039,4_S
1779865278.805233,2086,2007,4_S
1779865278.80531,2098,2085,4_S
1779865278.8053849,2133,1970,4_S
1779865278.805444,2068,1983,4_S
1779865278.8055282,2005,2121,4_S
1779865278.805578,1982,2201,4_S
1779865278.80564,2134,2120,4_S
1779865278.805686,2120,2088,4_S
1779865278.805752,2102,2084,4_S
1779865278.8057978,2052,2107,4_S
1779865278.807125,2072,2085,4_S
1779865278.808453,2064,2021,4_S
1779865278.8110552,2029,2109,4_S
1779865278.812437,1978,2096,4_S
1779865278.8163462,2042,2247,4_S
1779865278.816751,2066,2094,4_S
1779865278.819469,2054,2037,4_S
1779865278.821086,2054,2093,4_S
1779865278.823354,2020,2194,4_S
1779865278.825686,2061,2086,4_S
1779865278.8287182,2062,2104,4_S
1779865278.829317,1965,2192,4_S
1779865278.830925,1984,2214,4_S
1779865278.83302,2109,2051,4_S
1779865278.83604,2121,2008,4_S
1779865278.837177,2095,2042,4_S
1779865278.839211,2062,2084,4_S
1779865278.865827,2131,1984,4_S
1779865278.8703701,2146,2103,4_S
1779865278.870524,2038,2171,4_S
1779865278.879174,1968,2279,4_S
1779865278.880651,2057,2161,4_S
1779865278.881305,2087,2117,4_S
1779865278.881546,2110,2071,4_S
1779865278.885867,2066,2098,4_S
1779865278.888969,2064,2142,4_S
1779865278.889795,2068,2085,4_S
1779865278.889926,1994,2075,4_S
1779865278.890325,2007,2124,4_S
1779865278.8906848,2019,2167,4_S
1779865278.890729,2066,2152,4_S
1779865278.890769,2118,1982,4_S
1779865278.890811,2040,2051,4_S
1779865278.890945,2020,2024,4_S
1779865278.891049,2075,1937,4_S
1779865278.891147,2036,2055,4_S
1779865278.891188,2033,2205,4_S
1779865278.891226,2006,2258,4_S
1779865278.891265,2114,2109,4_S
1779865278.891304,2113,2007,4_S
1779865278.891805,2083,2052,4_S
1779865278.896186,2017,2247,4_S
1779865278.8962371,2122,2240,4_S
1779865278.903984,2051,2164,4_S
1779865278.905503,1950,2143,4_S
1779865278.905631,1924,2265,4_S
1779865278.905948,1963,2106,4_S
1779865278.941118,2011,2067,4_S
1779865278.941219,2222,2183,4_S
1779865278.9415061,2095,2126,4_S
1779865278.94165,2079,2209,4_S
1779865278.945222,2055,2257,4_S
1779865278.9452732,2024,2327,4_S
1779865278.9453151,1989,2340,4_S
1779865278.945355,2046,2405,4_S
1779865278.961319,2049,2292,4_S
1779865278.961461,2101,2214,4_S
1779865278.961525,1994,2157,4_S
1779865278.9616692,2067,2153,4_S
1779865278.961813,2150,1957,4_S
1779865278.962838,2026,2078,4_S
1779865278.96699,1953,2273,4_S
1779865278.967052,2032,2256,4_S
1779865278.967117,2116,2110,4_S
1779865278.967467,2233,2094,4_S
1779865278.9680629,2069,2174,4_S
1779865278.968307,1992,2083,4_S
1779865278.968367,2022,2040,4_S
1779865278.968572,2062,2373,4_S
1779865278.968729,1950,2577,4_S
1779865278.96887,1782,2225,4_S
1779865278.9698749,2069,2101,4_S
1779865278.969976,2205,2198,4_S
1779865278.973113,2014,2199,4_S
1779865278.978026,1854,1912,4_S
1779865278.978078,2057,2278,4_S
1779865278.978121,2258,2404,4_S
1779865278.978202,1701,1866,4_S
1779865278.978296,1545,1630,4_S
1779865278.9783401,1792,1810,4_S
1779865278.978611,2512,2504,4_S
1779865278.978934,2355,2928,4_S
1779865278.97898,1854,2152,4_S
1779865278.979029,2004,1750,4_S
1779865278.979069,2298,1888,4_S
1779865278.979112,2228,2136,4_S
1779865278.9791539,2204,2308,4_S
1779865278.98094,2111,2378,4_S
1779865278.9838111,2146,2096,4_S
1779865278.9852521,2071,1999,4_S
1779865278.986581,2035,2010,4_S
1779865278.989467,2002,2168,4_S
1779865278.991424,2116,2118,4_S
1779865278.992757,2134,2218,4_S
1779865278.995279,2090,2295,4_S
1779865278.996617,2025,2344,4_S
1779865279.0148008,2079,2185,4_S
1779865279.014959,2074,2119,4_S
1779865279.0178828,2066,2086,4_S
1779865279.02053,1975,2133,4_S
1779865279.020999,2029,2041,4_S
1779865279.021149,2102,2064,4_S
1779865279.02158,2075,2248,4_S
1779865279.021693,1994,2326,4_S
1779865279.0217369,2133,2253,4_S
1779865279.0217779,2075,2193,4_S
1779865279.021848,2039,2200,4_S
1779865279.0219,2031,2252,4_S
1779865279.026627,2133,2330,4_S
1779865279.02669,2155,2205,4_S
1779865279.026847,2086,2384,4_S
1779865279.03019,2007,2543,4_S
1779865279.03026,2060,2459,4_S
1779865279.033719,2085,2256,4_S
1779865279.0357609,2092,2190,4_S
1779865279.0378199,2008,2207,4_S
1779865279.0390148,2009,2145,4_S
1779865279.044354,2196,2150,4_S
1779865279.051679,2172,2258,4_S
1779865279.051743,1965,2349,4_S
1779865279.051786,1878,2466,4_S
1779865279.051828,2115,2252,4_S
1779865279.051869,2075,2166,4_S
1779865279.060384,2109,2183,4_S
1779865279.060438,2110,2332,4_S
1779865279.060481,2031,2210,4_S
1779865279.060521,2022,2079,4_S
1779865279.06056,1995,2203,4_S
1779865279.063634,1943,2311,4_S
1779865279.069383,2082,2279,4_S
1779865279.070416,2103,2087,4_S
1779865279.070841,2069,1994,4_S
1779865279.072866,2040,2096,4_S
1779865279.074312,2094,2056,4_S
1779865279.07532,2080,1968,4_S
1779865279.077613,2059,2035,4_S
1779865279.079173,1976,2153,4_S
1779865279.0810208,1977,2241,4_S
1779865279.082573,2087,2075,4_S
1779865279.084264,2130,2062,4_S
1779865279.0875368,2049,2116,4_S
1779865279.0888588,1998,2189,4_S
1779865279.093131,2069,2065,4_S
1779865279.093178,2080,1956,4_S
1779865279.095652,2019,2045,4_S
1779865279.09683,1957,2178,4_S
1779865279.101575,2079,2059,4_S
1779865279.101784,2127,1969,4_S
1779865279.111341,2123,1954,4_S
1779865279.111978,2008,2049,4_S
1779865279.112055,2046,2016,4_S
1779865279.112158,2117,1947,4_S
1779865279.112285,2053,2081,4_S
1779865279.11234,1985,2248,4_S
1779865279.127902,2045,2172,4_S
1779865279.128413,2115,2065,4_S
1779865279.1289759,2125,2061,4_S
1779865279.12944,2071,2098,4_S
1779865279.1295118,2016,2090,4_S
1779865279.130074,2083,1998,4_S
1779865279.131239,2090,2054,4_S
1779865279.135038,2040,2188,4_S
1779865279.135255,1926,2237,4_S
1779865279.136671,2013,2047,4_S
1779865279.1370702,2128,1925,4_S
1779865279.138361,2070,2009,4_S
1779865279.138411,2054,2197,4_S
1779865279.141738,2080,2236,4_S
1779865279.14336,2082,2249,4_S
1779865279.1449091,2021,2319,4_S
1779865279.146312,1975,2433,4_S
1779865279.148907,2096,2349,4_S
1779865279.150343,2075,2258,4_S
1779865279.152961,2085,2202,4_S
1779865279.1543071,2074,2240,4_S
1779865279.158435,2091,2179,4_S
1779865279.1585438,2084,2086,4_S
1779865279.162859,2032,2139,4_S
1779865279.162903,2004,2270,4_S
1779865279.165462,2076,2216,4_S
1779865279.1667998,2109,2096,4_S
1779865279.69954,2084,2027,4_S
1779865279.699735,2033,2143,4_S
1779865279.6997912,2028,2160,4_S
1779865279.699841,2103,2008,4_S
1779865279.6998851,2079,2065,4_S
1779865279.699929,2024,2183,4_S
1779865279.699976,1968,2268,4_S
1779865279.700019,2057,2083,4_S
1779865279.7000608,2083,2008,4_S
1779865279.928643,2079,2025,4_S
1779865279.92874,2031,2091,4_S
1779865279.928803,2113,2045,4_S
1779865279.928851,2132,1991,4_S
1779865279.928895,2025,2108,4_S
1779865279.928938,1892,2341,4_S
1779865279.928982,2055,2199,4_S
1779865279.929335,2111,2049,4_S
1779865279.929388,2127,2056,4_S
1779865279.929437,2056,2159,4_S
1779865279.929483,2018,2096,4_S
1779865279.929526,2086,1992,4_S
1779865279.929568,2048,2120,4_S
1779865279.929611,1946,2181,4_S
1779865279.930597,1996,2192,4_S
1779865279.9306471,2093,2057,4_S
1779865279.9306939,2126,2013,4_S
1779865279.9307399,2083,2090,4_S
1779865279.930906,2067,2104,4_S
1779865279.93096,2079,1965,4_S
1779865279.9310029,2038,2031,4_S
1779865279.9310458,2015,2174,4_S
1779865279.931088,1989,2209,4_S
1779865279.9311302,2076,2067,4_S
1779865279.931215,2081,2009,4_S
1779865279.931293,2082,2029,4_S
1779865279.987614,2021,2047,4_S
1779865279.98844,2067,1947,4_S
1779865279.9884968,2066,1938,4_S
1779865279.9885461,1997,2078,4_S
1779865279.98859,1973,2176,4_S
1779865279.989044,2063,2035,4_S
1779865279.9891021,2110,1996,4_S
1779865279.9891489,2082,1969,4_S
1779865279.989193,2018,1995,4_S
1779865279.989614,2105,1916,4_S
1779865280.155924,2109,1925,4_S
1779865280.179306,2070,2030,4_S
1779865280.278214,1950,2147,4_S
1779865280.281069,2015,2063,4_S
1779865280.2814631,2064,1982,4_S
1779865280.2816808,2146,1922,4_S
1779865280.281795,2093,2047,4_S
1779865280.282166,2033,2053,4_S
1779865280.28228,2106,1943,4_S
1779865280.290963,2063,2024,4_S
1779865280.2921479,1978,2137,4_S
1779865280.308053,1934,2169,4_S
1779865280.308578,2073,2023,4_S
1779865280.308799,2073,1956,4_S
1779865280.3089721,2064,2033,4_S
1779865280.3093,2006,2076,4_S
1779865280.309363,2077,1970,4_S
1779865280.3094442,2067,1989,4_S
1779865280.309504,1988,2169,4_S
1779865280.309557,1940,2218,4_S
1779865280.309612,2110,2130,4_S
1779865280.309667,2170,2058,4_S
1779865280.309723,2088,2019,4_S
1779865280.310076,2011,2076,4_S
1779865280.310237,2029,2015,4_S
1779865280.310416,2105,1934,4_S
1779865280.310534,2056,2050,4_S
1779865280.310598,1959,2188,4_S
1779865280.3106492,2020,2120,4_S
1779865280.3107169,2082,2026,4_S
1779865280.310764,2087,1956,4_S
1779865280.310854,2057,1933,4_S
1779865280.310905,2070,1966,4_S
1779865280.310954,2103,1891,4_S
1779865280.3109992,2040,1956,4_S
1779865280.3110452,2003,2020,4_S
1779865280.311091,1960,2097,4_S
1779865280.31114,2083,1983,4_S
1779865280.311188,2122,1884,4_S
1779865280.311234,2108,1892,4_S
1779865280.311281,2044,1942,4_S
1779865280.311327,2147,1863,4_S
1779865280.311372,2080,1809,4_S
1779865280.311418,2027,1976,4_S
1779865280.311465,1939,2086,4_S
1779865280.311511,2040,1957,4_S
1779865280.311584,2092,1900,4_S
1779865280.311632,2115,1878,4_S
1779865280.3117461,2024,1942,4_S
1779865280.311798,2049,1947,4_S
1779865280.3118458,2073,1881,4_S
1779865280.311889,2009,1977,4_S
1779865280.311933,1934,2114,4_S
1779865280.311998,2070,2100,4_S
1779865280.312083,2120,1914,4_S
1779865280.3125792,2123,1948,4_S
1779865280.312638,2054,2009,4_S
1779865280.312716,2023,2044,4_S
1779865280.312871,2093,1957,4_S
1779865280.3130162,2120,2034,4_S
1779865280.313083,2061,2187,4_S
1779865280.313214,1995,2284,4_S
1779865280.313299,2034,2128,4_S
1779865280.313347,2029,2025,4_S
1779865280.3134289,2058,2034,4_S
1779865280.3135092,2030,2089,4_S
1779865280.3135612,2055,2040,4_S
1779865280.313609,2068,2044,4_S
1779865280.313656,2033,2143,4_S
1779865280.31371,1966,2212,4_S
1779865280.313836,2073,2079,4_S
1779865280.318342,2075,2040,4_S
1779865280.318505,2096,2017,4_S
1779865280.318709,2027,2090,4_S
1779865280.3188229,2061,2062,4_S
1779865280.318877,2110,1960,4_S
1779865280.318926,2039,2080,4_S
1779865280.3189702,1963,2217,4_S
1779865280.3190138,2015,2277,4_S
1779865280.319329,2085,2116,4_S
1779865280.444705,2119,2059,4_S
1779865280.4604,2096,2205,4_S
1779865280.50854,1987,2213,4_S
1779865280.5491781,2111,2111,4_S
1779865280.593693,2091,2165,4_S
1779865280.593767,1994,2272,4_S
1779865280.593816,1969,2302,4_S
1779865280.593861,2151,2006,4_S
1779865280.593905,2128,1944,4_S
1779865280.593948,2087,1934,4_S
1779865280.593992,2042,2062,4_S
1779865280.594034,2075,1957,4_S
1779865280.594076,2115,1884,4_S
1779865280.5941179,2020,2030,4_S
1779865280.5941608,1925,2223,4_S
1779865280.594203,2072,2117,4_S
1779865280.594251,2147,2022,4_S
1779865280.594294,2116,1915,4_S
1779865280.594336,2025,1998,4_S
1779865280.594379,2037,1936,4_S
1779865280.594422,2100,1903,4_S
1779865280.594464,2038,2010,4_S
1779865280.594506,1955,2122,4_S
1779865280.594549,1981,2135,4_S
1779865280.59459,2068,1981,4_S
1779865280.594632,2085,1965,4_S
1779865280.5946739,2268,2007,4_S
1779865280.639213,2199,2042,4_S
1779865280.6395159,2079,1959,4_S
1779865280.6403682,1901,1973,4_S
1779865280.641106,1967,2131,4_S
1779865280.6498408,1987,2253,4_S
1779865280.666935,2094,2081,4_S
1779865280.667281,1995,1988,4_S
1779865280.667378,1939,2009,4_S
1779865280.667445,2051,2081,4_S
1779865280.667653,2144,2029,4_S
1779865280.6677172,2229,1974,4_S
1779865280.667779,2146,2007,4_S
1779865280.6678798,2218,2118,4_S
1779865280.668135,2015,2109,4_S
1779865280.668203,1800,2054,4_S
1779865280.668271,2087,2052,4_S
1779865280.668575,1891,1968,4_S
1779865280.668682,1923,1951,4_S
1779865280.669322,2104,1970,4_S
1779865280.669454,2126,1902,4_S
1779865280.70104,1880,2207,4_S
1779865280.701165,1965,2157,4_S
1779865280.701241,2199,2018,4_S
1779865280.701304,2189,1944,4_S
1779865280.701377,2288,1831,4_S
1779865280.701442,2656,1755,4_S
1779865280.7015328,2057,2037,4_S
1779865280.701618,1541,2226,4_S
1779865280.701677,1759,2242,4_S
1779865280.701728,1980,2283,4_S
1779865280.701779,2040,2135,4_S
1779865280.701993,1946,2001,4_S
1779865280.7020512,1942,1985,4_S
1779865280.7021031,2001,2239,4_S
1779865280.702156,2105,1914,4_S
1779865280.702205,2094,1844,4_S
1779865280.70226,2178,2120,4_S
1779865280.7023091,2083,2174,4_S
1779865280.702402,2188,1962,4_S
1779865280.702456,2226,1868,4_S
1779865280.702507,1994,1909,4_S
1779865280.702556,1846,2055,4_S
1779865280.7026072,1927,2156,4_S
1779865280.702656,2123,2044,4_S
1779865280.702891,2030,2031,4_S
1779865280.70298,2016,2136,4_S
1779865280.703538,2122,2064,4_S
1779865280.703746,2232,1954,4_S
1779865280.703865,2250,1971,4_S
1779865280.703938,2118,2018,4_S
1779865280.704226,2012,2084,4_S
1779865280.7064152,2029,1899,4_S
1779865280.706591,2059,2033,4_S
1779865280.706649,2111,2356,4_S
1779865280.706701,1870,2312,4_S
1779865280.7067509,2071,2213,4_S
1779865280.706802,2130,2004,4_S
1779865280.706851,2153,2002,4_S
1779865280.7069,2275,2026,4_S
1779865280.7069492,2298,1958,4_S
1779865280.7070029,2043,2076,4_S
1779865280.707052,2035,2097,4_S
1779865280.7071,1913,2165,4_S
1779865280.7071471,1577,1939,4_S
1779865280.7072902,2253,2642,4_S
1779865280.707386,2142,2119,4_S
1779865280.7077272,1827,1896,4_S
1779865280.7078059,2134,2122,4_S
1779865280.707871,2433,1916,4_S
1779865280.707935,2465,2082,4_S
1779865280.707996,2253,2329,4_S
1779865280.7080598,2319,2256,4_S
1779865280.7083251,2470,2136,4_S
1779865280.708396,1885,1969,4_S
1779865280.708471,1861,1939,4_S
1779865280.708534,1788,2061,4_S
1779865280.708596,1919,2093,4_S
1779865280.7086568,2085,1865,4_S
1779865280.708719,2395,2306,4_S
1779865280.708778,1760,2059,4_S
1779865280.708837,2032,1544,4_S
1779865280.708897,2464,1902,4_S
1779865280.7089548,2453,1814,4_S
1779865280.7090182,2094,1823,4_S
1779865280.709079,2144,1908,4_S
1779865280.709142,2151,1951,4_S
1779865280.7092018,1980,2065,4_S
1779865280.709261,2029,2179,4_S
1779865280.709322,1987,2224,4_S
1779865280.7093818,1957,2208,4_S
1779865280.71035,2051,2324,4_S
1779865280.743757,2093,2476,4_S
1779865280.743875,1850,2280,4_S
1779865280.7439349,2059,2045,4_S
1779865280.744276,1946,2429,4_S
1779865280.7444632,1900,2853,4_S
1779865280.744643,1932,2467,4_S
1779865280.7448199,1499,2097,4_S
1779865280.745136,1997,2244,4_S
1779865280.766568,2655,2655,4_S
1779865280.7722309,2362,2589,4_S
1779865280.7731478,2121,2354,4_S
1779865280.7732842,2131,2619,4_S
1779865280.773382,2268,2450,4_S
1779865280.7734568,2239,2336,4_S
1779865280.773509,2188,2091,4_S
1779865280.773558,1813,2081,4_S
1779865280.773611,1828,2853,4_S
1779865280.77366,2024,2806,4_S
1779865280.774055,2079,2146,4_S
1779865280.774857,2168,2085,4_S
1779865280.774967,1815,2457,4_S
1779865280.775038,1777,2667,4_S
1779865280.775103,2164,2607,4_S
1779865280.775172,2360,2380,4_S
1779865280.7752352,2172,2081,4_S
1779865280.775305,2146,2193,4_S
1779865280.775408,1904,2413,4_S
1779865280.7754638,1724,2265,4_S
1779865280.775529,1749,2634,4_S
1779865280.77558,1818,2556,4_S
1779865280.775629,1965,2619,4_S
1779865280.77568,2056,2607,4_S
1779865280.775729,2110,2430,4_S
1779865280.775894,2051,2280,4_S
1779865280.775979,1976,2307,4_S
1779865280.776042,1874,2298,4_S
1779865280.776114,1998,2286,4_S
1779865280.7761762,2135,2310,4_S
1779865280.776242,1733,2345,4_S
1779865280.776303,1882,2278,4_S
1779865280.7763689,2097,2485,4_S
1779865280.7764301,1829,2289,4_S
1779865280.776494,2049,2213,4_S
1779865280.7765539,2148,2131,4_S
1779865280.7766132,2210,2039,4_S
1779865280.776683,2005,2170,4_S
1779865280.776809,1890,2545,4_S
1779865280.776906,1864,2463,4_S
1779865280.777013,2000,2200,4_S
1779865280.777086,2113,2171,4_S
1779865280.777173,2001,2293,4_S
1779865280.7772522,2189,2200,4_S
1779865280.777323,2133,2206,4_S
1779865280.77748,2019,2240,4_S
1779865280.777546,1981,2484,4_S
1779865280.777653,2139,2409,4_S
1779865280.7777312,2326,2225,4_S
1779865280.7777998,2389,2136,4_S
1779865280.777975,2193,2065,4_S
1779865280.778095,2037,2361,4_S
1779865280.77817,2083,2319,4_S
1779865280.778236,2038,2242,4_S
1779865280.7782998,1879,2294,4_S
1779865280.778472,1968,2431,4_S
1779865280.7786381,2318,2292,4_S
1779865280.778964,2376,2373,4_S
1779865280.7790248,2277,2241,4_S
1779865280.779076,2237,2358,4_S
1779865280.779126,2300,2156,4_S
1779865280.779346,2168,1964,4_S
1779865280.811521,1887,2454,4_S
1779865280.81182,2009,2452,4_S
1779865280.811923,1754,2365,4_S
1779865280.8121028,1623,2135,4_S
1779865280.812193,1749,2113,4_S
1779865280.81232,1867,2168,4_S
1779865280.812632,2080,2155,4_S
1779865280.8127098,1901,2150,4_S
1779865280.812775,1814,2113,4_S
1779865280.812906,2375,2233,4_S
1779865280.812969,2719,2003,4_S
1779865280.813021,2545,2223,4_S
1779865280.813071,2616,1884,4_S
1779865280.8131788,1596,2270,4_S
1779865280.8132532,1432,2199,4_S
1779865280.8133252,1876,2024,4_S
1779865280.813431,2083,2038,4_S
1779865280.813487,1729,2262,4_S
1779865280.813547,1662,2357,4_S
1779865280.813625,1857,1963,4_S
1779865280.813726,2186,1754,4_S
1779865280.813798,1990,2205,4_S
1779865280.813865,2196,1949,4_S
1779865280.813926,3455,1079,4_S
1779865280.8139892,2777,1823,4_S
1779865280.814053,1329,2521,4_S
1779865280.8141172,1216,1867,4_S
1779865280.8143628,1622,1944,4_S
1779865280.814919,2010,1769,4_S
1779865280.8284721,2375,1894,4_S
1779865280.8287601,2248,1977,4_S
1779865280.8318772,1508,2326,4_S
1779865280.8344672,1417,2521,4_S
1779865280.840905,2372,1729,4_S
1779865280.841585,1829,2074,4_S
1779865280.846994,2244,2275,4_S
1779865280.847075,2229,1893,4_S
1779865280.8471308,1822,2074,4_S
1779865280.847183,1623,2043,4_S
1779865280.847767,2025,2038,4_S
1779865280.8483799,2018,1810,4_S
1779865280.8484511,2183,1810,4_S
1779865280.848504,2483,2048,4_S
1779865280.848555,2076,2555,4_S
1779865280.8486269,1883,2279,4_S
1779865280.848684,1751,1989,4_S
1779865280.848735,1888,2009,4_S
1779865280.8488588,2033,2066,4_S
1779865280.848942,2045,1950,4_S
1779865280.8489962,2119,1946,4_S
1779865280.849046,2108,2123,4_S
1779865280.849099,2251,2287,4_S
1779865280.8491478,2367,2298,4_S
1779865280.849202,2324,2122,4_S
1779865280.849312,2306,2113,4_S
1779865280.849365,2268,2187,4_S
1779865280.8494148,2278,2227,4_S
1779865280.8494642,2223,2028,4_S
1779865280.8495119,2200,2050,4_S
1779865280.8495622,2365,2142,4_S
1779865280.849613,2320,2213,4_S
1779865280.850506,2457,2046,4_S
1779865280.851249,2649,1980,4_S
1779865280.8513,2301,1793,4_S
1779865280.8513489,2162,1953,4_S
1779865280.851403,2242,2150,4_S
1779865280.8514519,2310,2209,4_S
1779865280.8515,2182,2257,4_S
1779865280.851552,2233,2371,4_S
1779865280.8516,2700,2273,4_S
1779865280.851647,2444,2078,4_S
1779865280.851696,2282,1912,4_S
1779865280.851744,2449,1994,4_S
1779865280.8517919,2438,2009,4_S
1779865280.85184,2451,1903,4_S
1779865280.8519301,2320,1884,4_S
1779865280.852364,2122,1980,4_S
1779865280.852468,2127,1958,4_S
1779865280.852521,2194,1797,4_S
1779865280.85257,2121,1783,4_S
1779865280.852649,2138,1893,4_S
1779865280.852771,2102,2044,4_S
1779865280.853045,2104,1946,4_S
1779865280.85327,2250,1932,4_S
1779865280.85332,2048,2106,4_S
1779865280.853368,1994,2167,4_S
1779865280.85343,2155,1868,4_S
1779865280.853499,2113,1752,4_S
1779865280.853549,1992,1834,4_S
1779865280.858678,2038,2013,4_S
1779865280.878426,2093,1952,4_S
1779865280.883977,2124,1985,4_S
1779865280.884052,2072,2064,4_S
1779865280.884107,1629,2009,4_S
1779865280.884158,2063,1973,4_S
1779865280.8842082,2082,2044,4_S
1779865280.884258,2065,1950,4_S
1779865280.884495,2026,1848,4_S
1779865280.884595,2144,1859,4_S
1779865280.908669,2393,1794,4_S
1779865280.908782,2175,1978,4_S
1779865280.908854,1990,2075,4_S
1779865280.90892,1851,1886,4_S
1779865280.908984,2296,1887,4_S
1779865280.909045,2099,2079,4_S
1779865280.909107,1870,2034,4_S
1779865280.90917,2003,1972,4_S
1779865280.9092321,2471,1885,4_S
1779865280.9093099,2263,1666,4_S
1779865280.909377,1744,2157,4_S
1779865280.911005,1714,1943,4_S
1779865280.911096,1788,1595,4_S
1779865280.9111612,1950,1542,4_S
1779865280.9112132,2064,1539,4_S
1779865280.911385,1809,1769,4_S
1779865280.913037,1917,1908,4_S
1779865280.913488,1936,1833,4_S
1779865280.913554,1938,1815,4_S
1779865280.91361,2015,1905,4_S
1779865280.914162,2243,1834,4_S
1779865280.914558,2487,1894,4_S
1779865280.9146152,2249,1706,4_S
1779865280.91467,1812,1873,4_S
1779865280.914722,2014,1862,4_S
1779865280.916076,2059,1770,4_S
1779865280.9161339,1998,1765,4_S
1779865280.9401119,1879,1894,4_S
1779865280.942741,2009,1898,4_S
1779865280.9445891,2270,1731,4_S
1779865280.944692,2174,1778,4_S
1779865280.944763,1913,1909,4_S
1779865280.94483,1961,1909,4_S
1779865280.944895,2149,1829,4_S
1779865280.94508,2108,1850,4_S
1779865280.945406,2104,1997,4_S
1779865280.945583,1989,2105,4_S
1779865280.945674,1933,2023,4_S
1779865280.9457731,2070,1864,4_S
1779865280.945837,2113,1834,4_S
1779865280.945937,2051,1961,4_S
1779865280.9460008,2113,1950,4_S
1779865280.94606,2101,1910,4_S
1779865280.9461188,1969,1990,4_S
1779865280.9461792,1979,2126,4_S
1779865280.946796,2210,1971,4_S
1779865280.946866,2087,2046,4_S
1779865280.946928,2186,1973,4_S
1779865280.947202,2132,1912,4_S
1779865280.947454,1992,2086,4_S
1779865280.947917,2119,1977,4_S
1779865280.948033,1975,2001,4_S
1779865280.958548,1997,2126,4_S
1779865280.965821,2009,2105,4_S
1779865280.9752939,2115,2052,4_S
1779865280.975469,2038,1918,4_S
1779865280.975539,2088,1908,4_S
1779865280.975595,2145,1999,4_S
1779865280.975656,2162,1938,4_S
1779865280.9757051,2032,1951,4_S
1779865280.975762,1938,2082,4_S
1779865280.976021,1907,2179,4_S
1779865280.976246,2026,2008,4_S
1779865280.9763908,2103,1927,4_S
1779865280.9765818,2115,1709,4_S
1779865280.976655,2077,1781,4_S
1779865280.976713,2138,1870,4_S
1779865280.976824,2060,1862,4_S
1779865280.976966,1984,1881,4_S
1779865280.977023,1944,1953,4_S
1779865280.9770749,2082,1951,4_S
1779865280.9773471,2071,1927,4_S
1779865280.9775229,2103,1827,4_S
1779865280.9776142,1960,1841,4_S
1779865280.977737,1970,1966,4_S
1779865280.977831,2010,1922,4_S
1779865280.977984,1907,1959,4_S
1779865280.978081,1886,1943,4_S
1779865280.978136,1951,1887,4_S
1779865280.978187,2003,1841,4_S
1779865280.978326,2082,1905,4_S
1779865280.978386,1983,1726,4_S
1779865280.978484,2096,1880,4_S
1779865280.978534,2136,1715,4_S
1779865280.9786081,2065,1892,4_S
1779865280.97866,1926,1905,4_S
1779865280.978709,1991,1993,4_S
1779865280.9787588,2083,1561,4_S
1779865280.978807,2066,1511,4_S
1779865280.978855,2098,1470,4_S
1779865280.978903,2111,1714,4_S
1779865280.978951,2023,1972,4_S
1779865280.9789991,2008,2029,4_S
1779865280.9790468,1912,1991,4_S
1779865280.979095,1746,2113,4_S
1779865280.979143,1874,2009,4_S
1779865280.9791949,1935,1874,4_S
1779865280.979243,1915,2070,4_S
1779865280.979291,1847,1821,4_S
1779865280.9793391,2012,1806,4_S
1779865280.979564,2039,1773,4_S
1779865280.97962,2193,1865,4_S
1779865280.979671,2267,1822,4_S
1779865280.9797199,2179,2013,4_S
1779865280.979768,1996,1822,4_S
1779865280.979816,2104,1978,4_S
1779865280.979863,2031,2032,4_S
1779865280.9799109,1977,1998,4_S
1779865280.980533,2048,1827,4_S
1779865280.98113,2017,1516,4_S
1779865280.981216,1705,1787,4_S
1779865280.981313,1827,1664,4_S
1779865280.9814,2160,1756,4_S
1779865280.981538,3127,1314,4_S
1779865280.98178,2511,1520,4_S
1779865280.981833,1272,2067,4_S
1779865280.982157,1285,1879,4_S
1779865280.9822521,1675,1530,4_S
1779865280.982381,2248,1594,4_S
1779865280.9824908,2152,1750,4_S
1779865280.982672,1633,1758,4_S
1779865280.984027,1559,1655,4_S
1779865280.984118,1685,1483,4_S
1779865280.984928,1930,1411,4_S
1779865280.9850922,2187,1303,4_S
1779865280.985208,2305,1295,4_S
1779865280.985279,2087,1350,4_S
1779865280.985481,1864,1501,4_S
1779865281.001811,1876,1649,4_S
1779865281.009242,1987,1584,4_S
1779865281.013576,2135,1636,4_S
1779865281.013886,2060,1618,4_S
1779865281.014018,2083,1496,4_S
1779865281.01425,2347,1648,4_S
1779865281.014318,2197,1866,4_S
1779865281.0143712,1933,2069,4_S
1779865281.014421,1826,1778,4_S
1779865281.0144708,1968,1899,4_S
1779865281.014535,2004,1782,4_S
1779865281.014585,2060,1800,4_S
1779865281.014635,2036,1773,4_S
1779865281.014684,2109,1743,4_S
1779865281.014733,2158,1984,4_S
1779865281.014849,2013,2084,4_S
1779865281.0150468,1868,1915,4_S
1779865281.015139,1891,1891,4_S
1779865281.015258,2036,1986,4_S
1779865281.0154119,2037,1856,4_S
1779865281.0154681,1965,1969,4_S
1779865281.015523,2011,1970,4_S
1779865281.015607,2026,1947,4_S
1779865281.015766,2148,2128,4_S
1779865281.015863,1975,2195,4_S
1779865281.015989,1943,2177,4_S
1779865281.0160608,2012,2082,4_S
1779865281.0161338,2046,1958,4_S
1779865281.0162072,2074,2031,4_S
1779865281.016271,2048,2284,4_S
1779865281.016335,2112,2380,4_S
1779865281.0165792,1970,2153,4_S
1779865281.016701,1999,2369,4_S
1779865281.016822,1923,2471,4_S
1779865281.0169148,2000,2251,4_S
1779865281.017473,2059,2211,4_S
1779865281.043093,2085,2357,4_S
1779865281.043744,1973,2661,4_S
1779865281.0438762,2072,2639,4_S
1779865281.044406,2001,2508,4_S
1779865281.045084,1943,2525,4_S
1779865281.0486138,1942,2606,4_S
1779865281.0490298,2054,2518,4_S
1779865281.0491269,2094,2326,4_S
1779865281.049218,2080,2341,4_S
1779865281.049284,1969,2196,4_S
1779865281.0493498,1961,1932,4_S
1779865281.049501,2083,1766,4_S
1779865281.0495732,1987,1746,4_S
1779865281.04964,1951,1864,4_S
1779865281.0497248,1993,1988,4_S
1779865281.04979,2084,1921,4_S
1779865281.049852,2082,1945,4_S
1779865281.0499148,2063,1948,4_S
1779865281.050036,2024,2193,4_S
1779865281.0502348,2050,2103,4_S
1779865281.050335,1983,2211,4_S
1779865281.050408,1924,2509,4_S
1779865281.0504708,1940,2566,4_S
1779865281.050535,2052,2449,4_S
1779865281.0506968,2089,2325,4_S
1779865281.05081,2047,2458,4_S
1779865281.0509079,2044,2495,4_S
1779865281.050976,2001,2454,4_S
1779865281.051039,2063,2320,4_S
1779865281.051237,1931,2358,4_S
1779865281.0513122,1946,2351,4_S
1779865281.051379,2038,2268,4_S
1779865281.0514839,2039,2129,4_S
1779865281.051556,2039,2068,4_S
1779865281.052083,2021,2171,4_S
1779865281.0521522,1969,2056,4_S
1779865281.052435,2068,2014,4_S
1779865281.0525608,1995,1879,4_S
1779865281.052761,2008,2200,4_S
1779865281.052855,2057,2413,4_S
1779865281.053014,2043,2445,4_S
1779865281.053174,2027,2381,4_S
1779865281.053247,1981,2388,4_S
1779865281.0533109,1990,2390,4_S
1779865281.053804,2051,2346,4_S
1779865281.053875,2036,2392,4_S
1779865281.054687,1968,2339,4_S
1779865281.055291,1937,2290,4_S
1779865281.0556622,2030,2057,4_S
1779865281.055776,2065,1951,4_S
1779865281.055858,2123,2175,4_S
1779865281.055912,2015,2072,4_S
1779865281.0559628,2109,2118,4_S
1779865281.056013,2048,2048,4_S
1779865281.056062,1901,2003,4_S
1779865281.056271,1887,2011,4_S
1779865281.056323,2027,2023,4_S
1779865281.056372,2051,2019,4_S
1779865281.056462,2064,1941,4_S
1779865281.0568051,2005,1886,4_S
1779865281.056961,2118,1984,4_S
1779865281.057017,2101,2057,4_S
1779865281.057921,2013,2130,4_S
1779865281.058017,1962,2196,4_S
1779865281.06499,1958,2246,4_S
1779865281.075167,2045,2068,4_S
1779865281.085315,2077,2036,4_S
1779865281.085453,1998,2056,4_S
1779865281.08554,1969,2097,4_S
1779865281.0856068,2099,1971,4_S
1779865281.085682,2029,2002,4_S
1779865281.0857458,2014,1985,4_S
1779865281.085867,2001,2240,4_S
1779865281.085964,2101,2200,4_S
1779865281.086022,2088,2147,4_S
1779865281.0861561,2054,2083,4_S
1779865281.0862222,1993,2219,4_S
1779865281.086276,2040,2171,4_S
1779865281.086454,2040,2079,4_S
1779865281.0865269,1981,2255,4_S
1779865281.086616,1905,2309,4_S
1779865281.0867689,2000,2195,4_S
1779865281.087221,2054,2053,4_S
1779865281.087735,2071,2055,4_S
1779865281.0877912,2043,2079,4_S
1779865281.089559,2087,2144,4_S
1779865281.089776,2128,2103,4_S
1779865281.0958889,2072,2081,4_S
1779865281.09692,2031,2172,4_S
1779865281.0986261,2073,2112,4_S
1779865281.1233332,2090,2025,4_S
1779865281.123415,2066,1986,4_S
1779865281.123471,2021,1923,4_S
1779865281.123523,2014,1834,4_S
1779865281.123573,2102,1993,4_S
1779865281.123622,2032,2039,4_S
1779865281.123672,1956,2094,4_S
1779865281.1239092,1914,2184,4_S
1779865281.123996,2078,2217,4_S
1779865281.124065,2067,2235,4_S
1779865281.124131,2081,2281,4_S
1779865281.124192,2014,2400,4_S
1779865281.124587,2059,2384,4_S
1779865281.1246562,2040,2204,4_S
1779865281.1248431,1944,2252,4_S
1779865281.124913,1949,2354,4_S
1779865281.1249752,2021,2253,4_S
1779865281.125026,2083,2057,4_S
1779865281.125077,2133,2004,4_S
1779865281.125131,2090,2116,4_S
1779865281.125185,2046,2068,4_S
1779865281.1252348,2139,2092,4_S
1779865281.125283,2056,2106,4_S
1779865281.1253319,1970,2319,4_S
1779865281.1253812,2000,2274,4_S
1779865281.12543,2066,2197,4_S
1779865281.1254778,2048,2045,4_S
1779865281.125526,2047,2069,4_S
1779865281.1255748,2015,2069,4_S
1779865281.125623,2075,1992,4_S
1779865281.125671,1998,1928,4_S
1779865281.125719,1957,2026,4_S
1779865281.125773,1967,2233,4_S
1779865281.125822,2067,2007,4_S
1779865281.1258712,2083,2015,4_S
1779865281.126007,2071,1992,4_S
1779865281.126061,2011,2029,4_S
1779865281.1264,2045,1971,4_S
1779865281.126545,2080,1942,4_S
1779865281.126643,2007,2052,4_S
1779865281.1267579,1965,2097,4_S
1779865281.126812,2046,2022,4_S
1779865281.12707,2090,2012,4_S
1779865281.1271958,2078,1961,4_S
1779865281.127268,2057,1988,4_S
1779865281.1273339,2069,1998,4_S
1779865281.127488,2108,2008,4_S
1779865281.127611,2086,2101,4_S
1779865281.127685,1990,2243,4_S
1779865281.127767,1950,2163,4_S
1779865281.1278179,2060,2081,4_S
1779865281.127867,2096,2166,4_S
1779865281.127916,2060,2526,4_S
1779865281.127965,2004,2609,4_S
1779865281.1280131,2120,2525,4_S
1779865281.1280682,2041,2516,4_S
1779865281.128118,1950,2699,4_S
1779865281.128314,1927,2773,4_S
1779865281.12841,2033,2663,4_S
1779865281.128494,2040,2524,4_S
1779865281.128544,2043,2387,4_S
1779865281.128696,2032,2415,4_S
1779865281.1287522,2050,2346,4_S
1779865281.128809,2051,2245,4_S
1779865281.128864,1997,2273,4_S
1779865281.129035,1978,2306,4_S
1779865281.1290848,2084,2222,4_S
1779865281.12914,2142,2167,4_S
1779865281.129191,2154,2147,4_S
1779865281.12924,2055,2132,4_S
1779865281.129288,2045,2113,4_S
1779865281.129336,2068,1999,4_S
1779865281.129384,2029,2032,4_S
1779865281.129487,1956,2166,4_S
1779865281.12956,2010,2325,4_S
1779865281.129623,2116,2233,4_S
1779865281.129685,2100,2169,4_S
1779865281.129745,2055,2221,4_S
1779865281.129805,2022,2192,4_S
1779865281.1299021,2111,2161,4_S
1779865281.130332,2055,2185,4_S
1779865281.130385,1973,2291,4_S
1779865281.130434,1957,2317,4_S
1779865281.130483,2070,2098,4_S
1779865281.1305332,2084,2078,4_S
1779865281.130582,2080,2095,4_S
1779865281.1306298,2040,2129,4_S
1779865281.130792,2102,2126,4_S
1779865281.130954,2092,2043,4_S
1779865281.1310232,2059,2227,4_S
1779865281.131086,1988,2184,4_S
1779865281.1311622,2044,2055,4_S
1779865281.131479,2070,2068,4_S
1779865281.1325078,2085,1907,4_S
1779865281.132651,2084,1993,4_S
1779865281.1493351,2042,1887,4_S
1779865281.15396,2067,1802,4_S
1779865281.161525,2009,1924,4_S
1779865281.165656,1974,2068,4_S
1779865281.165754,1981,2140,4_S
1779865281.165941,2092,1943,4_S
1779865281.1660109,2106,2007,4_S
1779865281.166075,2101,2052,4_S
1779865281.1661792,2006,2088,4_S
1779865281.166264,2094,2094,4_S
1779865281.1663308,2075,2055,4_S
1779865281.166394,1989,2199,4_S
1779865281.166456,1974,2253,4_S
1779865281.16652,2087,2100,4_S
1779865281.1666172,2088,2119,4_S
1779865281.166718,2081,2093,4_S
1779865281.16678,2017,2050,4_S
1779865281.166904,2087,2035,4_S
1779865281.16697,2134,1951,4_S
1779865281.167082,2044,2062,4_S
1779865281.167171,1958,2176,4_S
1779865281.167236,2034,2070,4_S
1779865281.167302,2033,2023,4_S
1779865281.1673658,2089,1976,4_S
1779865281.16748,2044,2002,4_S
1779865281.167547,2023,2081,4_S
1779865281.167611,2133,2007,4_S
1779865281.167674,2075,2059,4_S
1779865281.167737,2020,2160,4_S
1779865281.167802,2025,2114,4_S
1779865281.1678689,2070,2133,4_S
1779865281.167982,2139,2061,4_S
1779865281.1680489,2065,1983,4_S
1779865281.1681101,2007,1978,4_S
1779865281.1681678,2104,1993,4_S
1779865281.168222,2086,2014,4_S
1779865281.1682901,2028,2188,4_S
1779865281.168427,1956,2207,4_S
1779865281.1687438,2077,2094,4_S
1779865281.1689339,2136,2027,4_S
1779865281.16903,2045,2064,4_S
1779865281.1700292,2050,2193,4_S
1779865281.1701682,2082,2148,4_S
1779865281.1702342,2087,2143,4_S
1779865281.170288,2010,2143,4_S
1779865281.176917,2014,2137,4_S
1779865281.1780028,2116,2207,4_S
1779865281.1833322,2078,2098,4_S
1779865281.1839292,2132,2069,4_S
1779865281.209733,2025,2126,4_S
1779865281.209941,2021,2136,4_S
1779865281.2101371,2146,2033,4_S
1779865281.210613,2120,2069,4_S
1779865281.2107031,1975,2175,4_S
1779865281.210785,2048,2199,4_S
1779865281.21095,2135,2193,4_S
1779865281.21104,2089,2132,4_S
1779865281.2111108,2059,2071,4_S
1779865281.2112,2041,2097,4_S
1779865281.211308,2091,2163,4_S
1779865281.211427,2079,2244,4_S
1779865281.211499,1967,2247,4_S
1779865281.211566,1892,2318,4_S
1779865281.2117,2012,2240,4_S
1779865281.2117639,2064,2200,4_S
1779865281.211862,2137,2175,4_S
1779865281.211946,2065,2239,4_S
1779865281.211999,2116,2168,4_S
1779865281.2121978,2133,2213,4_S
1779865281.212311,2096,2265,4_S
1779865281.2124002,1970,2223,4_S
1779865281.2124648,2051,2187,4_S
1779865281.2125282,2141,2130,4_S
1779865281.2126138,2188,2057,4_S
1779865281.212678,2190,2218,4_S
1779865281.212739,1883,2285,4_S
1779865281.2128,1980,1971,4_S
1779865281.212865,1987,1961,4_S
1779865281.2129972,2023,2193,4_S
1779865281.213061,2001,2228,4_S
1779865281.213124,2047,2042,4_S
1779865281.213186,1991,2013,4_S
1779865281.213332,2059,2058,4_S
1779865281.213469,2092,2240,4_S
1779865281.2135308,2172,2094,4_S
1779865281.21361,2146,2130,4_S
1779865281.213672,1997,2178,4_S
1779865281.2137358,2037,2284,4_S
1779865281.2137978,2095,2121,4_S
1779865281.2138638,2044,2162,4_S
1779865281.213946,2073,2004,4_S
1779865281.2140548,1972,1951,4_S
1779865281.214188,2133,2214,4_S
1779865281.214259,2246,2267,4_S
1779865281.214324,2001,2286,4_S
1779865281.214387,1799,2196,4_S
1779865281.214447,2038,2186,4_S
1779865281.214512,2183,2107,4_S
1779865281.214574,2070,1893,4_S
1779865281.214678,2003,1930,4_S
1779865281.214746,2076,2226,4_S
1779865281.2148118,2201,2414,4_S
1779865281.2149389,2113,2099,4_S
1779865281.215004,2045,2133,4_S
1779865281.215065,1990,2390,4_S
1779865281.215127,2016,2308,4_S
1779865281.21519,2160,2310,4_S
1779865281.215285,2039,2227,4_S
1779865281.215358,2049,2226,4_S
1779865281.215563,2019,2061,4_S
1779865281.215658,2010,2118,4_S
1779865281.216248,1916,2200,4_S
1779865281.216353,1927,2265,4_S
1779865281.2268841,2154,2194,4_S
1779865281.236311,2148,2126,4_S
1779865281.242912,2109,2168,4_S
1779865281.249748,2067,2187,4_S
1779865281.2501628,2074,2016,4_S
1779865281.250239,2129,2055,4_S
1779865281.250295,2076,2004,4_S
1779865281.250349,2009,2212,4_S
1779865281.250462,2037,2252,4_S
1779865281.250518,2071,2144,4_S
1779865281.250568,2159,2090,4_S
1779865281.250617,2084,2131,4_S
1779865281.2506728,2045,2177,4_S
1779865281.250776,2066,2016,4_S
1779865281.2508612,2060,2067,4_S
1779865281.250932,1933,2065,4_S
1779865281.251004,2034,2108,4_S
1779865281.2510679,2109,2131,4_S
1779865281.2511292,2133,2052,4_S
1779865281.251245,2031,1961,4_S
1779865281.2513971,1980,1874,4_S
1779865281.2517812,2064,1825,4_S
1779865281.2518551,2019,1913,4_S
1779865281.251936,2036,2094,4_S
1779865281.252009,1913,2240,4_S
1779865281.252078,2064,2039,4_S
1779865281.252144,2077,2076,4_S
1779865281.2522082,2215,2106,4_S
1779865281.2522728,2172,2267,4_S
1779865281.252388,2048,2170,4_S
1779865281.252457,2010,2147,4_S
1779865281.252511,1988,2121,4_S
1779865281.252563,2024,2249,4_S
1779865281.2526138,2027,2245,4_S
1779865281.2526789,2026,2059,4_S
1779865281.2527301,2038,2077,4_S
1779865281.252863,2068,1985,4_S
1779865281.253101,2061,1973,4_S
1779865281.253213,2103,1888,4_S
1779865281.2602081,2117,2079,4_S
1779865281.2619588,2062,2121,4_S
1779865281.268964,1967,2353,4_S
1779865281.273515,2138,2252,4_S
1779865281.278079,2131,2267,4_S
1779865281.279055,2059,2313,4_S
1779865281.279841,1990,2352,4_S
1779865281.2842119,2004,2304,4_S
1779865281.284501,2145,2241,4_S
1779865281.284956,2011,2356,4_S
1779865281.28503,1957,2386,4_S
1779865281.285101,2024,2148,4_S
1779865281.2851899,2078,2087,4_S
1779865281.285325,2060,2012,4_S
1779865281.285414,2015,2047,4_S
1779865281.285471,2126,1998,4_S
1779865281.2856052,2108,1930,4_S
1779865281.2856698,2034,2065,4_S
1779865281.285724,1974,2216,4_S
1779865281.2857778,2045,2188,4_S
1779865281.285828,2128,2104,4_S
1779865281.285888,2094,2002,4_S
1779865281.28594,2029,1925,4_S
1779865281.2862191,2013,2045,4_S
1779865281.286305,2068,1983,4_S
1779865281.286405,2065,2075,4_S
1779865281.2864609,1974,2309,4_S
1779865281.286595,2024,2512,4_S
1779865281.286664,2024,2407,4_S
1779865281.286714,2070,2379,4_S
1779865281.286835,2087,2409,4_S
1779865281.286886,2094,2535,4_S
1779865281.286935,2131,2417,4_S
1779865281.2869902,2039,2285,4_S
1779865281.287041,2010,2298,4_S
1779865281.2870889,1946,2413,4_S
1779865281.2871392,2078,2288,4_S
1779865281.287488,2102,2096,4_S
1779865281.287551,2100,2079,4_S
1779865281.287621,2019,2300,4_S
1779865281.287997,2086,2226,4_S
1779865281.288403,2096,2158,4_S
1779865281.288487,2032,2256,4_S
1779865281.2885382,1951,2341,4_S
1779865281.288586,2009,2222,4_S
1779865281.2886431,2101,2133,4_S
1779865281.288693,2067,2065,4_S
1779865281.2888472,2015,2069,4_S
1779865281.2891898,2038,2118,4_S
1779865281.28964,2129,2010,4_S
1779865281.289771,2089,2019,4_S
1779865281.2898529,2019,2193,4_S
1779865281.289974,1975,2248,4_S
1779865281.2900312,2073,2095,4_S
1779865281.290081,2083,2045,4_S
1779865281.290136,2072,2013,4_S
1779865281.2901871,2069,2078,4_S
1779865281.290241,2112,2116,4_S
1779865281.2903008,2061,2074,4_S
1779865281.2903502,2028,2163,4_S
1779865281.290399,2006,2237,4_S
1779865281.290449,2066,2189,4_S
1779865281.290497,2117,2092,4_S
1779865281.290545,2117,1976,4_S
1779865281.290593,2049,2011,4_S
1779865281.290956,2077,1996,4_S
1779865281.2910762,2113,1921,4_S
1779865281.291156,2046,2038,4_S
1779865281.29125,1979,2105,4_S
1779865281.291588,2072,2218,4_S
1779865281.291726,2096,2069,4_S
1779865281.291803,2106,2034,4_S
1779865281.2918699,2088,2064,4_S
1779865281.291936,2059,2098,4_S
1779865281.292002,2100,2027,4_S
1779865281.292064,2089,2041,4_S
1779865281.2921898,2033,2190,4_S
1779865281.292256,1979,2187,4_S
1779865281.2923589,2071,2039,4_S
1779865281.292424,2100,2025,4_S
1779865281.292572,2064,2108,4_S
1779865281.292649,2033,2131,4_S
1779865281.292701,2070,2055,4_S
1779865281.292751,2077,2038,4_S
1779865281.2928,2017,2129,4_S
1779865281.2928488,1996,2211,4_S
1779865281.2928991,2049,2072,4_S
1779865281.292948,2074,2013,4_S
1779865281.2929971,2126,1987,4_S
1779865281.2943842,2071,2074,4_S
1779865281.2945,2074,2018,4_S
1779865281.308993,2096,1931,4_S
1779865281.3132002,2014,2006,4_S
1779865281.315582,1958,2130,4_S
1779865281.321218,2016,2096,4_S
1779865281.324973,2084,1901,4_S
1779865281.325071,2108,1835,4_S
1779865281.325142,2029,1902,4_S
1779865281.325213,2046,1945,4_S
1779865281.32537,2146,1784,4_S
1779865281.3256478,2101,1846,4_S
1779865281.325726,2009,1923,4_S
1779865281.325792,1953,2066,4_S
1779865281.325858,2086,1922,4_S
1779865281.326057,2121,1800,4_S
1779865281.3261352,2098,1835,4_S
1779865281.3261912,2054,2015,4_S
1779865281.3263109,2057,1943,4_S
1779865281.326365,2045,1910,4_S
1779865281.326438,2045,2009,4_S
1779865281.32654,1978,2140,4_S
1779865281.3266711,2073,2162,4_S
1779865281.326724,2118,2012,4_S
1779865281.326827,2116,1982,4_S
1779865281.326878,2104,2048,4_S
1779865281.326963,2068,2024,4_S
1779865281.327102,2059,1980,4_S
1779865281.327181,2025,2104,4_S
1779865281.327275,1962,2220,4_S
1779865281.327391,2029,2196,4_S
1779865281.3274581,2063,2071,4_S
1779865281.327522,2082,2056,4_S
1779865281.327584,2072,2061,4_S
1779865281.3276448,2068,2056,4_S
1779865281.3277051,2117,1841,4_S
1779865281.327765,2080,1930,4_S
1779865281.3278248,1976,2060,4_S
1779865281.327892,1981,2145,4_S
1779865281.327959,2072,1948,4_S
1779865281.328088,2105,1893,4_S
1779865281.328154,2076,1930,4_S
1779865281.3285928,2029,2032,4_S
1779865281.339086,2101,1886,4_S
1779865281.3443909,2096,1889,4_S
1779865281.357302,2016,1986,4_S
1779865281.357549,2039,2131,4_S
1779865281.3576572,2080,2082,4_S
1779865281.357714,2082,1958,4_S
1779865281.357764,2082,1918,4_S
1779865281.357815,2014,2019,4_S
1779865281.3578649,2045,2017,4_S
1779865281.357915,2083,1910,4_S
1779865281.357964,2038,2086,4_S
1779865281.358013,1988,2211,4_S
1779865281.358062,1984,2177,4_S
1779865281.358196,2087,2051,4_S
1779865281.3582761,2104,2029,4_S
1779865281.358343,2066,1991,4_S
1779865281.3584058,2026,2066,4_S
1779865281.358469,2115,1984,4_S
1779865281.358531,2094,2017,4_S
1779865281.358598,2015,2129,4_S
1779865281.358659,1990,2269,4_S
1779865281.3587258,2146,2132,4_S
1779865281.358793,2072,2007,4_S
1779865281.3588538,2077,1934,4_S
1779865281.358916,2031,2063,4_S
1779865281.3589811,2107,1971,4_S
1779865281.35912,2104,1958,4_S
1779865281.359187,2031,2113,4_S
1779865281.359242,1937,2229,4_S
1779865281.359613,2001,2069,4_S
1779865281.359987,2081,2009,4_S
1779865281.360044,2112,1985,4_S
1779865281.360362,2040,2059,4_S
1779865281.360526,2088,2059,4_S
1779865281.360615,2144,1981,4_S
1779865281.360667,2070,2027,4_S
1779865281.360717,2005,2219,4_S
1779865281.36077,2035,2202,4_S
1779865281.360822,2114,2031,4_S
1779865281.360878,2104,2058,4_S
1779865281.360933,2100,2057,4_S
1779865281.360984,2045,2095,4_S
1779865281.3610392,2126,1986,4_S
1779865281.361092,2065,2012,4_S
1779865281.3611462,1948,2098,4_S
1779865281.361226,1919,2208,4_S
1779865281.361303,2115,1973,4_S
1779865281.361395,2173,1915,4_S
1779865281.361448,2114,2006,4_S
1779865281.361654,2021,2078,4_S
1779865281.361768,2062,2008,4_S
1779865281.3619819,2185,1937,4_S
1779865281.362072,2077,2071,4_S
1779865281.364439,1967,2229,4_S
1779865281.366028,2091,2144,4_S
1779865281.39184,2058,2000,4_S
1779865281.3924549,2097,1934,4_S
1779865281.392534,2035,2001,4_S
1779865281.392589,2056,2016,4_S
1779865281.392797,2095,1867,4_S
1779865281.393043,2058,2024,4_S
1779865281.3931992,1995,2243,4_S
1779865281.393302,2009,2219,4_S
1779865281.3935711,2127,2084,4_S
1779865281.3936372,2093,2022,4_S
1779865281.3936892,2052,1999,4_S
1779865281.393739,2017,2081,4_S
1779865281.393951,2073,1921,4_S
1779865281.3940501,2071,1974,4_S
1779865281.417648,2051,2075,4_S
1779865281.423656,2007,2214,4_S
1779865281.423904,2118,2024,4_S
1779865281.423968,2176,1969,4_S
1779865281.424021,2138,1993,4_S
1779865281.424072,2099,2082,4_S
1779865281.4241211,2096,2014,4_S
1779865281.424171,2091,1915,4_S
1779865281.424219,2125,2081,4_S
1779865281.424268,2032,2200,4_S
1779865281.424317,1923,2121,4_S
1779865281.424366,1960,1989,4_S
1779865281.424417,2082,1870,4_S
1779865281.4244668,1996,1993,4_S
1779865281.4245172,1997,2028,4_S
1779865281.425854,2023,2014,4_S
1779865281.427328,1951,1971,4_S
1779865281.430548,2012,2091,4_S
1779865281.447526,2364,2269,4_S
1779865281.453822,2196,1878,4_S
1779865281.458318,1998,1969,4_S
1779865281.458907,2027,2007,4_S
1779865281.4590132,2269,2161,4_S
1779865281.4590871,2181,1812,4_S
1779865281.4592,1772,1917,4_S
1779865281.4593081,1692,2048,4_S
1779865281.459383,1830,2250,4_S
1779865281.459528,2253,2111,4_S
1779865281.459598,2134,1851,4_S
1779865281.4596539,1933,1886,4_S
1779865281.459734,1899,2022,4_S
1779865281.4598231,2146,2163,4_S
1779865281.459887,2192,2075,4_S
1779865281.461335,2046,1989,4_S
1779865281.4751868,1897,2038,4_S
1779865281.489781,2014,2088,4_S
1779865281.490043,1948,1887,4_S
1779865281.490187,2198,1948,4_S
1779865281.4903271,2193,1931,4_S
1779865281.49038,2125,1826,4_S
1779865281.490431,2245,1761,4_S
1779865281.490645,2184,1860,4_S
1779865281.4907131,1962,2111,4_S
1779865281.4908118,2001,2135,4_S
1779865281.490874,2025,1954,4_S
1779865281.4909818,2042,2009,4_S
1779865281.491039,2055,2053,4_S
1779865281.491095,2008,2154,4_S
1779865281.492262,2032,1981,4_S
1779865281.493611,2086,1974,4_S
1779865281.496201,2096,2123,4_S
1779865281.497578,1982,2360,4_S
1779865281.518049,1994,2142,4_S
1779865281.528063,2299,2241,4_S
1779865281.528142,2185,1975,4_S
1779865281.528196,2082,1967,4_S
1779865281.528337,2177,2105,4_S
1779865281.528508,2200,1999,4_S
1779865281.528574,2016,2115,4_S
1779865281.5286279,2013,2366,4_S
1779865281.528679,2111,2187,4_S
1779865281.5287292,2129,2137,4_S
1779865281.52878,2062,2041,4_S
1779865281.528832,1937,1971,4_S
1779865281.528882,1860,2031,4_S
1779865281.52893,2305,2354,4_S
1779865281.528979,2362,2027,4_S
1779865281.530734,2134,2106,4_S
1779865281.5325508,2160,2095,4_S
1779865281.55723,2317,1980,4_S
1779865281.561267,2070,1979,4_S
1779865281.561701,2055,1927,4_S
1779865281.561826,1959,1902,4_S
1779865281.561997,2146,1917,4_S
1779865281.562212,2143,2033,4_S
1779865281.5625,1783,2213,4_S
1779865281.5626209,1894,2267,4_S
1779865281.562745,2192,1976,4_S
1779865281.562927,2171,1949,4_S
1779865281.563039,2408,1974,4_S
1779865281.563103,2275,1963,4_S
1779865281.563156,2059,1890,4_S
1779865281.563263,2301,1953,4_S
1779865281.563392,1874,1990,4_S
1779865281.563533,1992,2192,4_S
1779865281.566217,2178,2040,4_S
1779865281.5676029,2019,1977,4_S
1779865281.577738,2049,1943,4_S
1779865281.590655,1954,2143,4_S
1779865281.594957,2150,2084,4_S
1779865281.6008341,2340,1924,4_S
1779865281.601026,1834,2012,4_S
1779865281.6011012,2355,2235,4_S
1779865281.6015759,1963,2349,4_S
1779865281.601643,2095,2031,4_S
1779865281.601695,2145,1839,4_S
1779865281.601745,2048,2134,4_S
1779865281.601795,2152,2426,4_S
1779865281.601844,2019,2336,4_S
1779865281.6018932,1554,2442,4_S
1779865281.601941,2097,2651,4_S
1779865281.601989,2210,2706,4_S
1779865281.602038,2133,2615,4_S
1779865281.602087,2112,2570,4_S
1779865281.603981,2043,2691,4_S
1779865281.605875,2245,2590,4_S
1779865281.6166642,1854,2317,4_S
1779865281.6183639,2420,2331,4_S
1779865281.6329012,2254,2574,4_S
1779865281.633565,1979,2266,4_S
1779865281.633889,1877,2172,4_S
1779865281.639504,2092,2683,4_S
1779865281.639765,2291,2675,4_S
1779865281.640089,1986,2139,4_S
1779865281.640177,1934,2093,4_S
1779865281.640314,2426,2259,4_S
1779865281.640388,2058,2110,4_S
1779865281.6404421,2031,2563,4_S
1779865281.640495,2236,2858,4_S
1779865281.640546,2362,2206,4_S
1779865281.640596,2226,1911,4_S
1779865281.640645,2182,2203,4_S
1779865281.640694,2147,2636,4_S
1779865281.642408,2182,2623,4_S
1779865281.6438558,2411,2495,4_S
1779865281.6454122,1759,2251,4_S
1779865281.656975,1488,2498,4_S
1779865281.662621,1865,2687,4_S
1779865281.666141,2290,2762,4_S
1779865281.67047,2289,2510,4_S
1779865281.671684,1630,2567,4_S
1779865281.6759338,2085,2422,4_S
1779865281.676081,2379,2284,4_S
1779865281.6761541,2133,2584,4_S
1779865281.6762948,2040,2670,4_S
1779865281.6763892,2197,2452,4_S
1779865281.676555,2147,2320,4_S
1779865281.676655,1982,2168,4_S
1779865281.6768,2015,2196,4_S
1779865281.676907,1949,2261,4_S
1779865281.6779919,2105,2037,4_S
1779865281.6781209,2012,2197,4_S
1779865281.679498,1918,2316,4_S
1779865281.709307,2003,2446,4_S
1779865281.7093859,1828,2219,4_S
1779865281.713773,1879,2045,4_S
1779865281.713841,2215,2032,4_S
1779865281.713894,2146,2068,4_S
1779865281.713944,2243,2113,4_S
1779865281.713994,2077,2133,4_S
1779865281.714046,1990,2155,4_S
1779865281.7140968,1893,2294,4_S
1779865281.714147,1956,2108,4_S
1779865281.714197,2262,2192,4_S
1779865281.714248,2149,2118,4_S
1779865281.714299,1967,1893,4_S
1779865281.7143512,1831,2046,4_S
1779865281.714404,2052,2128,4_S
1779865281.714456,2154,2259,4_S
1779865281.714508,2154,2313,4_S
1779865281.716037,2162,2291,4_S
1779865281.7261472,2204,2143,4_S
1779865281.731661,2183,2057,4_S
1779865281.732258,2147,2085,4_S
1779865281.741805,2030,2094,4_S
1779865281.7424388,2200,2109,4_S
1779865281.743099,2218,2119,4_S
1779865281.747953,1965,2139,4_S
1779865281.748061,2179,2007,4_S
1779865281.748119,2341,1680,4_S
1779865281.748173,2200,1706,4_S
1779865281.7482848,2123,1830,4_S
1779865281.7484841,2068,2018,4_S
1779865281.7485912,2238,1951,4_S
1779865281.7486432,2264,1840,4_S
1779865281.748947,1812,2025,4_S
1779865281.74915,1675,2005,4_S
1779865281.749235,2034,1785,4_S
1779865281.766656,2071,1782,4_S
1779865281.770607,2309,1739,4_S
1779865281.774949,2348,1756,4_S
1779865281.781424,2181,2131,4_S
1779865281.781802,2031,1945,4_S
1779865281.781864,2174,1772,4_S
1779865281.781973,1936,2160,4_S
1779865281.782042,1754,2233,4_S
1779865281.7820952,1776,1789,4_S
1779865281.7821481,2911,1290,4_S
1779865281.7821991,2860,1966,4_S
1779865281.78225,2724,2082,4_S
1779865281.782319,1236,2234,4_S
1779865281.782374,1432,1909,4_S
1779865281.782424,2572,1877,4_S
1779865281.7824728,2114,2560,4_S
1779865281.784155,3600,1550,4_S
1779865281.785527,3689,961,4_S
1779865281.7883399,507,3142,4_S
1779865281.808583,66,2794,4_S
1779865281.8089101,511,1741,4_S
1779865281.814466,1555,1808,4_S
1779865281.819096,1815,2245,4_S
1779865281.819205,1725,2528,4_S
1779865281.819273,1768,2036,4_S
1779865281.819467,1026,2419,4_S
1779865281.819544,1497,2157,4_S
1779865281.819608,2047,1997,4_S
1779865281.819673,3065,1561,4_S
1779865281.8199208,3097,1872,4_S
1779865281.8199959,2479,2142,4_S
1779865281.820086,1829,2283,4_S
1779865281.8202162,2151,2188,4_S
1779865281.8203259,2083,1938,4_S
1779865281.820419,2277,2075,4_S
1779865281.822509,2502,2093,4_S
1779865281.830451,1501,2041,4_S
1779865281.8305368,2001,1758,4_S
1779865281.830604,2155,1818,4_S
1779865281.830668,1956,2151,4_S
1779865281.844321,1861,2211,4_S
1779865281.84917,1989,2139,4_S
1779865281.84933,2077,2102,4_S
1779865281.84948,2039,2107,4_S
1779865281.849609,2323,2105,4_S
1779865281.84987,2448,2028,4_S
1779865281.849944,2583,1870,4_S
1779865281.8500102,2523,2116,4_S
1779865281.850122,2275,2292,4_S
1779865281.8503418,2135,2107,4_S
1779865281.8518322,2090,2043,4_S
1779865281.853479,2322,2126,4_S
1779865281.8563032,2384,2142,4_S
1779865281.864843,2508,2007,4_S
1779865281.8682811,2339,1890,4_S
1779865281.8720791,2399,1914,4_S
1779865281.879053,2692,2004,4_S
1779865281.8795588,2603,1877,4_S
1779865281.8833659,2371,1660,4_S
1779865281.883664,2310,1681,4_S
1779865281.883734,2626,1770,4_S
1779865281.8846169,2564,1666,4_S
1779865281.884702,2726,1463,4_S
1779865281.8855538,2313,1557,4_S
1779865281.8856268,2362,1784,4_S
1779865281.8856819,2367,1722,4_S
1779865281.885778,2364,1599,4_S
1779865281.8859031,2296,1504,4_S
1779865281.895367,2333,1556,4_S
1779865281.909586,2279,1573,4_S
1779865281.910681,2410,1553,4_S
1779865281.911166,2358,1720,4_S
1779865281.911526,2299,1946,4_S
1779865281.916088,2235,1898,4_S
1779865281.916414,2232,1548,4_S
1779865281.916723,2065,1345,4_S
1779865281.916801,2082,1358,4_S
1779865281.916865,2290,1441,4_S
1779865281.917449,2257,1410,4_S
1779865281.9175491,2202,1378,4_S
1779865281.917655,2222,1474,4_S
1779865281.91772,2115,1498,4_S
1779865281.9178848,1975,1554,4_S
1779865281.918134,2169,1625,4_S
1779865281.919967,2266,1496,4_S
1779865281.922747,2151,1424,4_S
1779865281.932599,2131,1419,4_S
1779865281.934772,2169,1344,4_S
1779865281.9528599,2243,1392,4_S
1779865281.952964,2127,1475,4_S
1779865281.953142,2073,1485,4_S
1779865281.953212,2234,1453,4_S
1779865281.9533062,2095,1459,4_S
1779865281.953377,1892,1540,4_S
1779865281.953546,2327,1678,4_S
1779865281.953687,2170,1751,4_S
1779865281.9537878,2118,1772,4_S
1779865281.95407,2057,1819,4_S
1779865281.954127,1925,1873,4_S
1779865281.955713,1991,1834,4_S
1779865281.955868,2087,1773,4_S
1779865281.955936,2071,1793,4_S
1779865281.9561348,1934,1869,4_S
1779865281.963903,2106,1845,4_S
1779865281.976398,2018,1916,4_S
1779865281.9770958,2198,2020,4_S
1779865281.9778612,1968,2092,4_S
1779865281.978317,1963,1997,4_S
1779865281.981905,1987,1960,4_S
1779865281.982062,2012,1889,4_S
1779865281.98217,2046,1990,4_S
1779865281.9823081,1946,2010,4_S
1779865281.9824069,1966,1914,4_S
1779865281.982481,2081,1983,4_S
1779865281.983318,1932,2010,4_S
1779865281.983396,1849,1923,4_S
1779865281.9834838,2232,1797,4_S
1779865281.98628,2324,1822,4_S
1779865281.987713,2204,1939,4_S
1779865281.9894269,1917,1912,4_S
1779865282.001343,2062,1810,4_S
1779865282.0016232,2066,1779,4_S
1779865282.007204,1946,1968,4_S
1779865282.011672,1926,2092,4_S
1779865282.012356,2032,1960,4_S
1779865282.012841,2128,1816,4_S
1779865282.015638,2178,1834,4_S
1779865282.017056,2101,2091,4_S
1779865282.017178,2187,1928,4_S
1779865282.0172951,2107,1828,4_S
1779865282.017368,2117,2116,4_S
1779865282.0174332,2056,2193,4_S
1779865282.0175612,2007,2221,4_S
1779865282.0176482,1944,2082,4_S
1779865282.019289,1990,2040,4_S
1779865282.0275462,1988,2118,4_S
1779865282.0390851,2016,2214,4_S
1779865282.042494,2075,2032,4_S
1779865282.043815,2057,1997,4_S
1779865282.043905,1988,2175,4_S
1779865282.0439758,1976,2147,4_S
1779865282.044043,2118,2040,4_S
1779865282.04411,2062,2031,4_S
1779865282.044224,2055,2130,4_S
1779865282.044308,2010,2245,4_S
1779865282.044374,2046,2076,4_S
1779865282.044439,2021,2066,4_S
1779865282.045974,1947,1897,4_S
1779865282.047443,1923,2206,4_S
1779865282.050407,2001,2118,4_S
1779865282.052311,2006,1957,4_S
1779865282.063484,2042,1999,4_S
1779865282.0668402,2013,2011,4_S
1779865282.0680552,2025,2063,4_S
1779865282.073877,1990,1729,4_S
1779865282.0747578,1976,1864,4_S
1779865282.075026,2002,1997,4_S
1779865282.075095,1968,2109,4_S
1779865282.0751538,2054,2052,4_S
1779865282.0752819,2123,1998,4_S
1779865282.0754309,2089,2054,4_S
1779865282.079391,1991,1969,4_S
1779865282.0798788,2035,2080,4_S
1779865282.08009,1876,2151,4_S
1779865282.080161,1829,2011,4_S
1779865282.081759,1878,2079,4_S
1779865282.0913432,1955,2129,4_S
1779865282.093976,2000,1965,4_S
1779865282.09486,1910,1840,4_S
1779865282.1002188,1844,2116,4_S
1779865282.1051,1938,1961,4_S
1779865282.109501,2078,2046,4_S
1779865282.109629,2091,2222,4_S
1779865282.109777,1985,2142,4_S
1779865282.109854,2010,2187,4_S
1779865282.10992,1847,2110,4_S
1779865282.1100101,1775,1993,4_S
1779865282.110164,1993,1774,4_S
1779865282.110398,2031,2001,4_S
1779865282.110572,1914,1875,4_S
1779865282.112067,1859,1840,4_S
1779865282.113483,1944,1911,4_S
1779865282.116238,1966,1701,4_S
1779865282.1245959,1974,1515,4_S
1779865282.133779,2039,1555,4_S
1779865282.141726,2035,1346,4_S
1779865282.1458292,2092,1632,4_S
1779865282.145934,2142,1588,4_S
1779865282.146262,1993,1712,4_S
1779865282.146328,1797,1545,4_S
1779865282.146518,1864,1861,4_S
1779865282.146576,2020,1860,4_S
1779865282.146793,2115,1764,4_S
1779865282.146865,1981,1789,4_S
1779865282.14693,1888,1784,4_S
1779865282.1469922,1921,1548,4_S
1779865282.147157,1985,1860,4_S
1779865282.1472902,1971,2026,4_S
1779865282.147347,1926,1937,4_S
1779865282.1493802,2048,1672,4_S
1779865282.158848,2065,2044,4_S
1779865282.1620631,1949,1926,4_S
1779865282.165601,1923,1808,4_S
1779865282.170633,2054,2036,4_S
1779865282.174287,2080,1988,4_S
1779865282.17452,1964,1763,4_S
1779865282.174654,1890,2155,4_S
1779865282.174818,1962,2076,4_S
1779865282.175029,1945,1888,4_S
1779865282.175207,2018,1940,4_S
1779865282.175385,2040,1973,4_S
1779865282.175475,2056,1972,4_S
1779865282.175678,1979,1915,4_S
1779865282.178376,2007,1849,4_S
1779865282.179744,1934,2157,4_S
1779865282.1812968,1857,2149,4_S
1779865282.192926,1981,1991,4_S
1779865282.193387,2036,1911,4_S
1779865282.1985972,2059,1937,4_S
1779865282.20662,2040,2084,4_S
1779865282.20798,2117,1922,4_S
1779865282.208266,2137,1848,4_S
1779865282.208329,2031,2040,4_S
1779865282.208407,1823,2064,4_S
1779865282.208459,1955,1891,4_S
1779865282.2086122,1987,1872,4_S
1779865282.2087529,2276,1817,4_S
1779865282.20885,2077,2076,4_S
1779865282.208904,1922,2081,4_S
1779865282.211118,1869,2030,4_S
1779865282.217776,1876,1992,4_S
1779865282.220458,1897,2179,4_S
1779865282.2260962,2014,2239,4_S
1779865282.233273,2054,2143,4_S
1779865282.244192,2019,2007,4_S
1779865282.2450402,1962,2002,4_S
1779865282.246526,1991,2083,4_S
1779865282.2754629,2165,2169,4_S
1779865282.276149,2099,2161,4_S
1779865282.276802,2012,2102,4_S
1779865282.2774882,1987,2411,4_S
1779865282.277673,2051,2276,4_S
1779865282.277952,2076,2177,4_S
1779865282.303494,2089,2221,4_S
1779865282.3037848,1988,2210,4_S
1779865282.303869,2039,2164,4_S
1779865282.3039758,2086,2163,4_S
1779865282.309782,2090,2218,4_S
1779865282.3098822,2021,2289,4_S
1779865282.309937,1988,2387,4_S
1779865282.3099892,1961,2328,4_S
1779865282.310336,2027,2226,4_S
1779865282.310484,1985,2251,4_S
1779865282.3106382,2014,2306,4_S
1779865282.3109171,1992,2220,4_S
1779865282.31098,1990,2306,4_S
1779865282.311115,1906,2158,4_S
1779865282.311389,1981,2108,4_S
1779865282.311467,2042,2080,4_S
1779865282.311521,2078,2160,4_S
1779865282.311571,2093,2099,4_S
1779865282.3116999,1998,2057,4_S
1779865282.311852,2068,2280,4_S
1779865282.312276,2012,2344,4_S
1779865282.312332,1979,2432,4_S
1779865282.312383,1952,2484,4_S
1779865282.3125188,2069,2396,4_S
1779865282.31257,2076,2430,4_S
1779865282.31262,2089,2453,4_S
1779865282.312671,1991,2453,4_S
1779865282.312723,2077,2413,4_S
1779865282.312774,2054,2381,4_S
1779865282.312823,2010,2324,4_S
1779865282.312871,1954,2330,4_S
1779865282.312918,2037,2199,4_S
1779865282.312968,2093,2019,4_S
1779865282.313015,2143,1893,4_S
1779865282.3130639,2047,1912,4_S
1779865282.313111,2085,1984,4_S
1779865282.313159,2146,1890,4_S
1779865282.3132071,2141,1880,4_S
1779865282.31344,1944,2147,4_S
1779865282.316066,1865,2124,4_S
1779865282.317416,1970,2043,4_S
1779865282.331938,2002,1966,4_S
1779865282.335458,2002,2220,4_S
1779865282.341761,1952,2346,4_S
1779865282.347003,2013,2305,4_S
1779865282.348106,1990,2197,4_S
1779865282.348254,1995,2462,4_S
1779865282.3483279,1978,2540,4_S
1779865282.348381,2115,2416,4_S
1779865282.3484302,2136,2351,4_S
1779865282.3484778,2116,2395,4_S
1779865282.348526,2030,2331,4_S
1779865282.348574,2069,2315,4_S
1779865282.348623,2084,2239,4_S
1779865282.3486872,1976,2271,4_S
1779865282.348737,1977,2245,4_S
1779865282.3572228,2046,2205,4_S
1779865282.364534,2111,2199,4_S
1779865282.364634,2119,2179,4_S
1779865282.37238,2091,2171,4_S
1779865282.372509,2048,2199,4_S
1779865282.372601,2077,2074,4_S
1779865282.3726609,1999,2012,4_S
1779865282.372818,1967,2078,4_S
1779865282.37287,1984,2165,4_S
1779865282.3729222,2020,2056,4_S
1779865282.373062,2018,2032,4_S
1779865282.373138,2006,2017,4_S
1779865282.373207,2006,2061,4_S
1779865282.375753,2097,1967,4_S
1779865282.377103,2038,1960,4_S
1779865282.386532,1962,1974,4_S
1779865282.38729,1984,2075,4_S
1779865282.3907578,2173,2008,4_S
1779865282.391006,2120,1999,4_S
1779865282.3911371,2038,1923,4_S
1779865282.391433,1977,2012,4_S
1779865282.393919,2032,2019,4_S
1779865282.401196,2067,2020,4_S
1779865282.4016252,1986,2071,4_S
1779865282.4018939,1897,2230,4_S
1779865282.402275,2010,2261,4_S
1779865282.405652,2066,2126,4_S
1779865282.4059079,2084,2139,4_S
1779865282.406218,2046,2054,4_S
1779865282.407845,2029,2084,4_S
1779865282.419818,2122,2148,4_S
1779865282.420243,2076,2095,4_S
1779865282.4226549,1988,2076,4_S
1779865282.425251,1985,2066,4_S
1779865282.429945,2066,1949,4_S
1779865282.434057,2075,1915,4_S
1779865282.434182,1992,1874,4_S
1779865282.434304,2015,1971,4_S
1779865282.434405,2127,1914,4_S
1779865282.434474,2062,1986,4_S
1779865282.4348328,1986,2030,4_S
1779865282.434898,1941,2067,4_S
1779865282.4349592,2057,1939,4_S
1779865282.435093,2079,1974,4_S
1779865282.437803,2114,1994,4_S
1779865282.439182,2114,2222,4_S
1779865282.4584708,2144,2016,4_S
1779865282.45975,2094,2008,4_S
