timestamp,ch1,ch2,label
1779865328.50334,2077,1951,5
1779865328.5172071,1984,2242,5
1779865328.5308979,1976,2180,5
1779865328.537606,2125,2026,5
1779865328.544127,2096,1983,5
1779865328.5443149,2060,2076,5
1779865328.544408,2034,2155,5
1779865328.544491,2096,2032,5
1779865328.544558,2064,2035,5
1779865328.544624,2017,2153,5
1779865328.544687,1987,2274,5
1779865328.5447521,2058,2098,5
1779865328.544827,2062,1997,5
1779865328.544896,2043,2017,5
1779865328.54504,2020,2088,5
1779865328.5451741,2050,2004,5
1779865328.545408,2054,2029,5
1779865328.545502,2021,2109,5
1779865328.545651,1970,2259,5
1779865328.545761,2045,2117,5
1779865328.545859,2070,2024,5
1779865328.5459409,2075,1990,5
1779865328.547543,2008,2052,5
1779865328.551036,2070,1981,5
1779865328.551407,2099,1953,5
1779865328.552872,2006,2065,5
1779865328.554524,1947,2212,5
1779865328.557664,2063,2163,5
1779865328.599827,2076,2050,5
1779865328.600019,2087,1988,5
1779865328.600109,2056,2034,5
1779865328.600183,2017,2100,5
1779865328.600255,2103,1993,5
1779865328.600325,2072,2053,5
1779865328.619105,2018,2150,5
1779865328.619335,1982,2210,5
1779865328.619429,2052,2103,5
1779865328.619802,2102,2029,5
1779865328.6199439,2063,1996,5
1779865328.620024,2018,2091,5
1779865328.6202948,2044,2058,5
1779865328.6203709,2066,2001,5
1779865328.621155,2003,2112,5
1779865328.621376,1975,2233,5
1779865328.648422,2040,2146,5
1779865328.649765,2050,1993,5
1779865328.64989,2086,1984,5
1779865328.6499681,2067,2061,5
1779865328.650176,2088,2112,5
1779865328.650249,2081,1980,5
1779865328.6503198,2051,2021,5
1779865328.65039,1956,2147,5
1779865328.650461,2023,2218,5
1779865328.650541,2046,2043,5
1779865328.6506119,2084,2019,5
1779865328.6506891,2032,2060,5
1779865328.650765,2029,2272,5
1779865328.651247,2123,2189,5
1779865328.651325,2062,2267,5
1779865328.6514711,1974,2384,5
1779865328.651558,1968,2413,5
1779865328.651625,2097,2247,5
1779865328.651687,2079,2222,5
1779865328.651747,2065,2172,5
1779865328.651807,2009,2199,5
1779865328.6518679,2056,2084,5
1779865328.651926,2081,2101,5
1779865328.652033,2001,2180,5
1779865328.6522381,1978,2379,5
1779865328.652299,2087,2274,5
1779865328.6523578,2094,2187,5
1779865328.652417,2080,2088,5
1779865328.652477,2040,2144,5
1779865328.6525362,2066,2087,5
1779865328.6525939,2104,2017,5
1779865328.652786,2019,2042,5
1779865328.6690822,2021,2187,5
1779865328.6758568,2053,2246,5
1779865328.681849,2042,2114,5
1779865328.682212,2096,2061,5
1779865328.682305,2037,2094,5
1779865328.6823769,2021,2084,5
1779865328.682443,2072,1923,5
1779865328.682507,2039,2096,5
1779865328.68257,2002,2262,5
1779865328.6826339,1955,2325,5
1779865328.682703,2049,2126,5
1779865328.6827662,2073,2067,5
1779865328.682827,2084,2089,5
1779865328.682889,2039,2112,5
1779865328.682953,2059,2062,5
1779865328.68418,2081,2033,5
1779865328.6869838,2014,2163,5
1779865328.690006,1946,2315,5
1779865328.690858,2051,2196,5
1779865328.7016919,2065,2077,5
1779865328.716747,2119,2016,5
1779865328.722676,2072,2151,5
1779865328.723029,2077,2208,5
1779865328.723207,2088,2105,5
1779865328.723296,2010,2152,5
1779865328.7233658,1953,2261,5
1779865328.723434,1992,2232,5
1779865328.723503,2045,2106,5
1779865328.7235682,2060,2023,5
1779865328.723735,2068,2127,5
1779865328.7241,2019,2164,5
1779865328.724511,2091,2058,5
1779865328.724664,2098,2130,5
1779865328.724758,2023,2173,5
1779865328.724824,1935,2277,5
1779865328.7248929,2012,2080,5
1779865328.726551,2017,1975,5
1779865328.751791,2013,1969,5
1779865328.757896,2007,2089,5
1779865328.758585,2021,2078,5
1779865328.758702,2102,2038,5
1779865328.758806,2070,2115,5
1779865328.7589161,1988,2247,5
1779865328.7589881,2055,2162,5
1779865328.7591228,2105,2088,5
1779865328.759197,2084,2122,5
1779865328.759306,2043,2091,5
1779865328.759381,2050,2087,5
1779865328.759507,2047,1958,5
1779865328.759609,2014,2047,5
1779865328.759685,1983,2226,5
1779865328.7597618,2051,2200,5
1779865328.759914,2090,2142,5
1779865328.7601202,2117,2060,5
1779865328.762971,2068,2050,5
1779865328.7643678,1991,2087,5
1779865328.767353,2052,1980,5
1779865328.785923,2084,2152,5
1779865328.796288,2011,2252,5
1779865328.800875,1994,2243,5
1779865328.80221,2035,2072,5
1779865328.80234,2081,1993,5
1779865328.802575,2089,1998,5
1779865328.802728,2019,2061,5
1779865328.8029351,2068,1986,5
1779865328.8030112,2059,2029,5
1779865328.803082,1969,2145,5
1779865328.803147,1957,2269,5
1779865328.803348,2081,2175,5
1779865328.803489,2091,2046,5
1779865328.803612,2105,1976,5
1779865328.803682,2081,2061,5
1779865328.803749,2093,2116,5
1779865328.804018,2075,2010,5
1779865328.8041012,2035,2042,5
1779865328.80427,1963,2212,5
1779865328.817703,2021,2264,5
1779865328.8293262,2051,2138,5
1779865328.836638,2049,2013,5
1779865328.8388538,2069,2073,5
1779865328.8389802,2021,2134,5
1779865328.8390589,2102,2017,5
1779865328.839125,2085,2023,5
1779865328.839189,2005,2181,5
1779865328.839249,1990,2342,5
1779865328.8393111,2074,2121,5
1779865328.840162,2083,2001,5
1779865328.840265,2081,2048,5
1779865328.840451,2073,2122,5
1779865328.840537,2058,2038,5
1779865328.8406148,2079,2052,5
1779865328.8407838,2008,2089,5
1779865328.8408582,1956,2196,5
1779865328.840922,2018,2084,5
1779865328.842392,2029,2059,5
1779865328.845262,2077,2092,5
1779865328.846751,2062,2115,5
1779865328.848737,2037,2094,5
1779865328.8760588,2129,1996,5
1779865328.8796759,2141,2170,5
1779865328.886852,2051,2270,5
1779865328.887014,2026,2228,5
1779865328.887094,2037,2111,5
1779865328.8871639,2064,2042,5
1779865328.887229,2076,2005,5
1779865328.887302,2038,2042,5
1779865328.889246,2075,1987,5
1779865328.889583,2010,2022,5
1779865328.8896692,1987,2106,5
1779865328.889735,1972,2226,5
1779865328.8897989,2090,2133,5
1779865328.890326,2129,1998,5
1779865328.8906188,2144,2004,5
1779865328.891188,2060,2126,5
1779865328.8923242,2034,1965,5
1779865328.909426,2079,2090,5
1779865328.920244,2001,2199,5
1779865328.9263868,2011,2242,5
1779865328.926624,2072,2138,5
1779865328.926843,2070,2039,5
1779865328.927146,2083,2029,5
1779865328.927312,2056,2081,5
1779865328.927476,2067,2078,5
1779865328.927559,2081,2063,5
1779865328.927637,2045,2093,5
1779865328.927867,1982,2198,5
1779865328.928041,2004,2198,5
1779865328.928205,2081,2063,5
1779865328.928438,2089,1967,5
1779865328.928514,2045,1997,5
1779865328.9287,2008,2065,5
1779865328.929007,2089,1992,5
1779865328.929088,2073,2014,5
1779865328.929217,2051,2148,5
1779865328.929302,2024,2207,5
1779865328.929396,2076,2207,5
1779865328.929478,2078,2075,5
1779865328.92959,2113,2030,5
1779865328.9311628,2070,2074,5
1779865328.93265,2069,2047,5
1779865328.9343581,2096,2028,5
1779865328.947924,2040,2171,5
1779865328.967,1938,2163,5
1779865328.973784,2012,2116,5
1779865328.9740381,2062,2072,5
1779865328.974129,2082,2024,5
1779865328.974198,2076,2071,5
1779865328.974263,2034,2150,5
1779865328.974325,2083,2006,5
1779865328.974426,2029,2025,5
1779865328.974717,2010,2163,5
1779865328.974793,2044,2304,5
1779865328.974863,2032,2143,5
1779865328.974925,2046,2051,5
1779865328.974986,2064,2039,5
1779865328.9750478,2041,2112,5
1779865328.97525,2066,1990,5
1779865328.975318,2041,2035,5
1779865328.975379,2062,2164,5
1779865328.9755461,2005,2292,5
1779865328.9774988,2068,2119,5
1779865328.9777641,2108,1937,5
1779865328.978652,2117,1937,5
1779865329.003903,2059,2159,5
1779865329.010987,2082,2082,5
1779865329.011138,2054,2038,5
1779865329.011245,2063,2182,5
1779865329.0113852,1982,2272,5
1779865329.011461,2015,2199,5
1779865329.011675,2061,2119,5
1779865329.012043,2111,2113,5
1779865329.012223,2084,2134,5
1779865329.01239,2061,2134,5
1779865329.0124722,2091,1997,5
1779865329.012542,2059,2060,5
1779865329.012647,2020,2225,5
1779865329.0127628,2023,2257,5
1779865329.0128372,2097,2087,5
1779865329.0134962,2111,2018,5
1779865329.013963,2078,2005,5
1779865329.014051,2070,2086,5
1779865329.017212,2122,2018,5
1779865329.018875,2090,2010,5
1779865329.0203898,1977,2105,5
1779865329.022366,1982,2231,5
1779865329.044109,2050,2104,5
1779865329.052329,2040,2079,5
1779865329.054893,2085,2067,5
1779865329.055233,2044,2154,5
1779865329.0559611,2083,2089,5
1779865329.056306,2067,2003,5
1779865329.057079,2032,2094,5
1779865329.057585,2023,2372,5
1779865329.05772,2119,2218,5
1779865329.057813,2122,2058,5
1779865329.057965,2051,1940,5
1779865329.0580559,2015,2077,5
1779865329.0582578,2046,2199,5
1779865329.058362,2097,2017,5
1779865329.058434,2055,2115,5
1779865329.058505,1993,2232,5
1779865329.058689,2001,2208,5
1779865329.0587578,2058,2096,5
1779865329.068609,2098,2058,5
1779865329.077966,2071,2074,5
1779865329.0947142,2045,2115,5
1779865329.094891,2042,1980,5
1779865329.0949771,2056,2010,5
1779865329.0950541,2008,2172,5
1779865329.095123,1959,2305,5
1779865329.095188,2091,2204,5
1779865329.095249,2111,2142,5
1779865329.0954409,2108,1989,5
1779865329.0956328,2067,2087,5
1779865329.095849,2099,2065,5
1779865329.095967,2088,2051,5
1779865329.096222,2075,2127,5
1779865329.096395,1992,2218,5
1779865329.096468,2073,2167,5
1779865329.096535,2095,2045,5
1779865329.096753,2091,2047,5
1779865329.096826,2019,1990,5
1779865329.098349,2035,2002,5
1779865329.1008399,2089,1990,5
1779865329.102201,2017,2049,5
1779865329.120407,1956,2178,5
1779865329.124497,1990,2284,5
1779865329.1324868,2028,2129,5
1779865329.133541,2058,2047,5
1779865329.14031,2046,2050,5
1779865329.140578,2047,2108,5
1779865329.140702,2125,2016,5
1779865329.140922,2071,2030,5
1779865329.141228,2016,2157,5
1779865329.1413891,1954,2216,5
1779865329.14148,2055,2094,5
1779865329.141692,2143,1997,5
1779865329.1419399,2158,2085,5
1779865329.142177,2112,2164,5
1779865329.1424582,2136,2073,5
1779865329.142636,2116,2019,5
1779865329.14326,2024,2100,5
1779865329.1494122,1963,2180,5
1779865329.1527512,2028,2103,5
1779865329.16187,2055,2024,5
1779865329.169076,2042,1932,5
1779865329.1698291,2001,2042,5
1779865329.170256,2063,2064,5
1779865329.170914,2058,2009,5
1779865329.1764538,2052,2089,5
1779865329.176615,2010,2301,5
1779865329.176781,2014,2272,5
1779865329.1770492,2109,2048,5
1779865329.1771488,2089,2008,5
1779865329.1772459,2054,2020,5
1779865329.177321,2027,2081,5
1779865329.177402,2047,1981,5
1779865329.177472,2052,2011,5
1779865329.177537,2013,2131,5
1779865329.1776042,1987,2276,5
1779865329.1777139,2068,2070,5
1779865329.177828,2058,1925,5
1779865329.177949,2059,1866,5
1779865329.180823,2020,1965,5
1779865329.1823921,2076,1930,5
1779865329.1838899,2108,1824,5
1779865329.196251,2053,1998,5
1779865329.214242,2025,2151,5
1779865329.225705,2081,2036,5
1779865329.22584,2092,2011,5
1779865329.225923,2099,1988,5
1779865329.225997,2022,1979,5
1779865329.226068,2019,2006,5
1779865329.226175,2055,1902,5
1779865329.22625,2047,1974,5
1779865329.226322,2002,2156,5
1779865329.226531,1995,2260,5
1779865329.22663,2013,2026,5
1779865329.226711,2019,1947,5
1779865329.2268002,2087,1966,5
1779865329.226878,2040,2084,5
1779865329.226959,2111,1937,5
1779865329.22703,2115,1946,5
1779865329.227147,2061,2108,5
1779865329.2272189,1977,2256,5
1779865329.2272909,2037,1989,5
1779865329.227421,2106,1967,5
1779865329.2290719,2122,1990,5
1779865329.2638679,2047,2121,5
1779865329.263972,2065,2021,5
1779865329.264042,2113,1938,5
1779865329.2642062,2006,1998,5
1779865329.2643359,1964,2162,5
1779865329.2644181,2071,2140,5
1779865329.264482,2118,1972,5
1779865329.264545,2088,1860,5
1779865329.264619,2038,2005,5
1779865329.26469,2015,2006,5
1779865329.264864,2076,1899,5
1779865329.264961,2060,1916,5
1779865329.265057,1993,2056,5
1779865329.265195,1957,2149,5
1779865329.265269,2084,1982,5
1779865329.265345,2099,1891,5
1779865329.265419,2099,1874,5
1779865329.2658792,2069,1956,5
1779865329.265973,2111,1876,5
1779865329.268789,2107,1864,5
1779865329.270935,2019,2027,5
1779865329.295536,1970,2194,5
1779865329.310236,2076,2001,5
1779865329.310357,2108,1884,5
1779865329.310451,2120,1892,5
1779865329.3105159,2083,2041,5
1779865329.3105779,2072,2012,5
1779865329.310719,2084,1889,5
1779865329.310783,2026,2006,5
1779865329.310843,2005,2162,5
1779865329.311193,2094,2189,5
1779865329.311337,2092,1961,5
1779865329.3114,2060,1927,5
1779865329.31146,2065,2166,5
1779865329.311656,2058,2114,5
1779865329.311965,2083,1964,5
1779865329.312284,2048,2049,5
1779865329.312364,2019,2231,5
1779865329.312478,1992,2342,5
1779865329.312549,2073,2075,5
1779865329.3126159,2103,2075,5
1779865329.312721,2068,2094,5
1779865329.330889,2054,2234,5
1779865329.348403,2115,2095,5
1779865329.3485599,2079,2100,5
1779865329.348741,2004,2257,5
1779865329.348873,1952,2446,5
1779865329.348984,2042,2265,5
1779865329.349615,2100,2114,5
1779865329.349945,2155,2183,5
1779865329.3501189,2061,2189,5
1779865329.350247,2060,2165,5
1779865329.350316,2049,2077,5
1779865329.3503811,1996,2180,5
1779865329.350444,2009,2393,5
1779865329.350517,2035,2320,5
1779865329.350724,2058,2166,5
1779865329.3507981,2078,2079,5
1779865329.350861,2028,2076,5
1779865329.350934,2011,2100,5
1779865329.350998,2166,1978,5
1779865329.352405,2091,2111,5
1779865329.354101,1977,2221,5
1779865329.356956,1953,2272,5
1779865329.385322,2071,2124,5
1779865329.390541,2069,2059,5
1779865329.390949,2049,2073,5
1779865329.3911738,2032,2126,5
1779865329.391243,2064,2000,5
1779865329.391367,2088,1974,5
1779865329.391446,2020,2151,5
1779865329.391843,1989,2246,5
1779865329.391937,2036,2071,5
1779865329.392002,2103,2047,5
1779865329.392064,2056,1993,5
1779865329.3921258,2078,2144,5
1779865329.3921869,2035,2146,5
1779865329.392249,2017,2035,5
1779865329.392313,2014,2149,5
1779865329.3923771,2019,2279,5
1779865329.3924422,2046,2228,5
1779865329.3925061,2074,2034,5
1779865329.39394,2092,1979,5
1779865329.4149508,2051,2094,5
1779865329.431391,2053,2130,5
1779865329.431506,2076,1950,5
1779865329.4315908,2092,2017,5
1779865329.43183,1977,2173,5
1779865329.4319391,2049,2323,5
1779865329.43201,2073,2089,5
1779865329.4320729,2083,1965,5
1779865329.43239,2091,2017,5
1779865329.4325361,2060,2036,5
1779865329.432706,2106,1989,5
1779865329.432777,2073,1972,5
1779865329.4328399,2032,2224,5
1779865329.4329011,1991,2420,5
1779865329.4337761,2044,2240,5
1779865329.433909,2086,2037,5
1779865329.434039,2071,2066,5
1779865329.434314,2013,2052,5
1779865329.434556,2082,2016,5
1779865329.434628,2116,2057,5
1779865329.436117,2020,2095,5
1779865329.438623,1943,2198,5
1779865329.440508,2028,2109,5
1779865329.4797251,2084,2000,5
1779865329.480012,2093,2007,5
1779865329.480205,2076,2028,5
1779865329.480445,2071,2118,5
1779865329.4807081,2120,1999,5
1779865329.4808588,2053,2013,5
1779865329.480948,2079,2140,5
1779865329.481009,2103,2366,5
1779865329.48112,2135,2146,5
1779865329.481341,2044,2050,5
1779865329.481407,2011,2067,5
1779865329.481518,1959,2216,5
1779865329.481581,2049,2055,5
1779865329.481641,2129,2043,5
1779865329.4817832,2218,2245,5
1779865329.481865,2039,2296,5
1779865329.481926,2242,2106,5
1779865329.4820402,2789,1923,5
1779865329.482294,2268,2139,5
1779865329.4825752,1631,2087,5
1779865329.482713,1593,1970,5
1779865329.514436,2562,1802,5
1779865329.5147269,2386,2099,5
1779865329.5148091,2010,2199,5
1779865329.514875,1673,2263,5
1779865329.514941,1952,2135,5
1779865329.515002,2569,1903,5
1779865329.515064,1735,2353,5
1779865329.515131,1548,2230,5
1779865329.515195,1945,2191,5
1779865329.5152588,1947,2171,5
1779865329.515438,1794,2370,5
1779865329.5156422,1678,2464,5
1779865329.5157719,1862,2180,5
1779865329.515851,2119,2111,5
1779865329.515968,2170,2148,5
1779865329.5160398,2328,2098,5
1779865329.516196,2381,1990,5
1779865329.517906,2659,1902,5
1779865329.5198889,2235,2264,5
1779865329.521914,1881,2236,5
1779865329.524758,1965,2174,5
1779865329.5597,1747,2084,5
1779865329.561462,1813,2053,5
1779865329.561732,1914,2121,5
1779865329.561833,2190,2080,5
1779865329.5621629,2197,1869,5
1779865329.5625758,2151,2159,5
1779865329.5631738,1779,2376,5
1779865329.563319,1964,2205,5
1779865329.563482,2149,2005,5
1779865329.563704,2152,1898,5
1779865329.5641322,2125,2040,5
1779865329.564203,2082,2109,5
1779865329.564714,1950,1988,5
1779865329.5647879,1968,2076,5
1779865329.564852,1932,2190,5
1779865329.56569,1978,2244,5
1779865329.5658062,2134,1999,5
1779865329.565877,2217,1909,5
1779865329.5670972,2235,2021,5
1779865329.5867531,2082,2118,5
1779865329.5945852,2031,2019,5
1779865329.599243,2045,1987,5
1779865329.600117,1890,2042,5
1779865329.600283,1931,2168,5
1779865329.60049,2151,2369,5
1779865329.600814,2047,2075,5
1779865329.600893,2054,1969,5
1779865329.601046,2004,2042,5
1779865329.6011221,2102,2005,5
1779865329.601249,1975,1914,5
1779865329.601368,2035,2142,5
1779865329.60143,1966,2275,5
1779865329.601533,2061,2164,5
1779865329.6015959,2130,1971,5
1779865329.601677,2091,1989,5
1779865329.601742,2165,2013,5
1779865329.601807,2236,2061,5
1779865329.6019578,2216,1926,5
1779865329.6020212,1993,1992,5
1779865329.606022,1781,2165,5
1779865329.6061509,2077,2269,5
1779865329.609068,2161,2123,5
1779865329.61028,1927,2038,5
1779865329.6294012,1972,2092,5
1779865329.644323,1993,1994,5
1779865329.644503,2245,1946,5
1779865329.6447098,2012,1871,5
1779865329.644898,2051,2048,5
1779865329.645052,1969,2429,5
1779865329.645334,1962,2129,5
1779865329.6455019,2196,1957,5
1779865329.645578,2409,1927,5
1779865329.6456609,1872,1909,5
1779865329.645814,1925,1838,5
1779865329.645895,1801,1679,5
1779865329.646004,2126,2441,5
1779865329.646083,2349,2104,5
1779865329.64616,2078,1990,5
1779865329.6463192,2237,1906,5
1779865329.646401,2204,1863,5
1779865329.646506,2270,1978,5
1779865329.648337,2006,2102,5
1779865329.680085,2133,1955,5
1779865329.686814,1985,2020,5
1779865329.686979,1901,2184,5
1779865329.687168,1975,2326,5
1779865329.6902962,2148,1926,5
1779865329.691126,1981,1935,5
1779865329.691623,2095,2022,5
1779865329.69172,1950,2242,5
1779865329.69179,2404,2296,5
1779865329.69204,2202,2105,5
1779865329.692124,2099,2137,5
1779865329.6921978,1981,2329,5
1779865329.692271,2041,2193,5
1779865329.6932008,1995,2119,5
1779865329.6933692,2253,2259,5
1779865329.6935391,2122,2267,5
1779865329.6936069,2167,2168,5
1779865329.693673,1753,2346,5
1779865329.6937358,2260,2399,5
1779865329.69381,1985,2496,5
1779865329.6938791,1964,2448,5
1779865329.693952,2149,2357,5
1779865329.694143,2138,2199,5
1779865329.6960871,2039,2188,5
1779865329.69771,1653,2195,5
1779865329.710598,2418,1976,5
1779865329.718797,2324,1797,5
1779865329.732911,1973,1949,5
1779865329.733291,1931,2536,5
1779865329.7344089,2009,2325,5
1779865329.734559,2016,2163,5
1779865329.734678,2152,2138,5
1779865329.734756,2208,2379,5
1779865329.734924,2257,2426,5
1779865329.735086,2160,2177,5
1779865329.735164,2062,2209,5
1779865329.7352371,1997,2339,5
1779865329.735308,2075,2043,5
1779865329.735378,2095,1757,5
1779865329.735459,2116,2183,5
1779865329.7355762,1965,2433,5
1779865329.735726,1720,2092,5
1779865329.735796,1666,1749,5
1779865329.735865,1926,1980,5
1779865329.7535539,2343,2877,5
1779865329.774299,2193,3064,5
1779865329.7745438,1930,2561,5
1779865329.774676,2095,2084,5
1779865329.774771,2136,2071,5
1779865329.774838,2126,2200,5
1779865329.774903,2177,2113,5
1779865329.774973,2094,2162,5
1779865329.775039,1911,2215,5
1779865329.775109,1779,2132,5
1779865329.775171,2116,2051,5
1779865329.775234,1919,1998,5
1779865329.775303,2033,1962,5
1779865329.775553,2186,2034,5
1779865329.775638,2051,1663,5
1779865329.7757509,1978,1920,5
1779865329.775917,2000,2552,5
1779865329.776156,1933,2665,5
1779865329.7762299,2214,2231,5
1779865329.776298,2041,2569,5
1779865329.777677,1973,2382,5
1779865329.7814898,1988,2272,5
1779865329.781661,1729,2245,5
1779865329.801106,2262,2073,5
1779865329.815205,2175,2139,5
1779865329.823692,2154,2316,5
1779865329.824173,2166,2229,5
1779865329.834186,2055,1943,5
1779865329.861058,2170,1824,5
1779865329.861372,2087,2054,5
1779865329.861522,1889,2298,5
1779865329.8616772,1844,2110,5
1779865329.86182,2140,2090,5
1779865329.861922,2011,2386,5
1779865329.861992,1699,2312,5
1779865329.862059,1807,1940,5
1779865329.862205,2016,1813,5
1779865329.862396,2091,1972,5
1779865329.862564,2304,2125,5
1779865329.862745,2326,1917,5
1779865329.862821,2158,1969,5
1779865329.8629,2282,2120,5
1779865329.8629692,2205,2499,5
1779865329.863035,2209,1968,5
1779865329.863104,2066,2014,5
1779865329.863168,1991,2026,5
1779865329.863335,1989,2043,5
1779865329.863584,2046,2027,5
1779865329.863728,2340,1637,5
1779865329.8638542,2088,1747,5
1779865329.864009,1709,2560,5
1779865329.864125,1842,2521,5
1779865329.8642461,2118,1665,5
1779865329.864489,2064,1793,5
1779865329.864626,2040,1898,5
1779865329.8647418,2041,2092,5
1779865329.864824,2078,2047,5
1779865329.864921,1920,2139,5
1779865329.86501,1872,2108,5
1779865329.865119,1968,1986,5
1779865329.865191,2265,2009,5
1779865329.865288,1904,1640,5
1779865329.865408,1906,1356,5
1779865329.865489,1994,1864,5
1779865329.865577,2214,2004,5
1779865329.8683121,3073,1306,5
1779865329.869733,2859,2081,5
1779865329.8873348,1614,2227,5
1779865329.900982,1529,2021,5
1779865329.908818,2200,1929,5
1779865329.909245,2295,1915,5
1779865329.909467,2145,2147,5
1779865329.909651,2910,1688,5
1779865329.909745,1609,2217,5
1779865329.909835,1151,2455,5
1779865329.909908,1495,1974,5
1779865329.909975,2435,1890,5
1779865329.910083,3337,1851,5
1779865329.91017,2274,2201,5
1779865329.910235,1591,2100,5
1779865329.910296,1252,2177,5
1779865329.9103549,1570,1973,5
1779865329.910412,1938,1815,5
1779865329.9104698,2157,1904,5
1779865329.910527,2448,1932,5
1779865329.910615,1667,2031,5
1779865329.910799,2343,1713,5
1779865329.912262,2994,1651,5
1779865329.942553,3099,1855,5
1779865329.942654,2318,2004,5
1779865329.942719,3130,1531,5
1779865329.942776,550,2617,5
1779865329.942831,550,2501,5
1779865329.94289,1294,2081,5
1779865329.9429471,2020,1695,5
1779865329.943004,1685,2043,5
1779865329.94306,1425,2647,5
1779865329.9431171,1517,2415,5
1779865329.943176,1923,2066,5
1779865329.943489,2296,1794,5
1779865329.943729,3376,1922,5
1779865329.94382,3831,2155,5
1779865329.943889,3994,1242,5
1779865329.944011,809,2530,5
1779865329.9455569,501,2151,5
1779865329.9482582,995,2014,5
1779865329.949636,1718,1766,5
1779865329.9522922,2134,1837,5
1779865329.964542,1822,2232,5
1779865329.970784,1284,2553,5
1779865329.993139,1408,2230,5
1779865329.9933498,2737,1646,5
1779865329.993432,3553,1549,5
1779865329.9935129,3875,1581,5
1779865329.993578,2067,2498,5
1779865329.993641,2592,1628,5
1779865329.993715,3845,1303,5
1779865329.993779,2514,2364,5
1779865329.993838,817,2578,5
1779865329.993897,468,2307,5
1779865329.99396,1403,2169,5
1779865329.994115,1661,2137,5
1779865329.994223,2124,2143,5
1779865329.994328,1728,2623,5
1779865329.994477,2181,2165,5
1779865329.994564,3426,1660,5
1779865329.9946299,2156,1871,5
1779865329.994688,991,2608,5
1779865329.994751,1964,2246,5
1779865329.996138,2165,2035,5
1779865330.011682,1938,1692,5
1779865330.012396,1568,2146,5
1779865330.030496,3220,1821,5
1779865330.032335,2270,3189,5
1779865330.032466,577,2582,5
1779865330.032577,1247,1582,5
1779865330.0331168,2406,1462,5
1779865330.033395,3341,1951,5
1779865330.03349,2712,2166,5
1779865330.033684,1723,2003,5
1779865330.033798,1778,2238,5
1779865330.034125,1767,2316,5
1779865330.034257,2977,2295,5
1779865330.0344052,3100,2418,5
1779865330.034684,2995,2135,5
1779865330.034751,2557,1930,5
1779865330.034983,2311,2187,5
1779865330.035051,2523,2341,5
1779865330.035114,2704,1856,5
1779865330.036771,2399,2138,5
1779865330.0577888,1935,2404,5
1779865330.075704,2446,2542,5
1779865330.077187,2709,2040,5
1779865330.077333,2750,2045,5
1779865330.077413,2800,2301,5
1779865330.0774772,2640,2478,5
1779865330.077539,2679,2179,5
1779865330.0776021,2331,2278,5
1779865330.077664,2131,2386,5
1779865330.077727,2417,2508,5
1779865330.077794,2721,2443,5
1779865330.07786,3078,2362,5
1779865330.077923,2792,2373,5
1779865330.0780008,2512,2590,5
1779865330.0780659,2727,2445,5
1779865330.078204,2585,2519,5
1779865330.078318,2735,2380,5
1779865330.078398,3080,2452,5
1779865330.078523,2704,2450,5
1779865330.0788639,1777,2703,5
1779865330.078946,1904,2384,5
1779865330.080499,2373,2324,5
1779865330.109376,2434,2190,5
1779865330.110861,2364,2236,5
1779865330.111425,2126,2413,5
1779865330.111593,1997,2393,5
1779865330.112094,2193,2467,5
1779865330.112333,2463,2379,5
1779865330.1127942,2616,2162,5
1779865330.113027,2527,2237,5
1779865330.113255,2518,2106,5
1779865330.1133928,2236,1988,5
1779865330.113468,1870,2145,5
1779865330.11368,2093,2274,5
1779865330.1137862,2062,2162,5
1779865330.113892,2230,2133,5
1779865330.1141078,1857,2225,5
1779865330.114364,1783,1980,5
1779865330.114465,1897,2004,5
1779865330.116113,2022,2048,5
1779865330.118191,1864,2105,5
1779865330.1196601,1541,2317,5
1779865330.132436,1606,2159,5
1779865330.137304,1712,1688,5
1779865330.141854,1387,1772,5
1779865330.144219,2059,1595,5
1779865330.155638,2275,2082,5
1779865330.15594,1960,1618,5
1779865330.1561332,1879,1495,5
1779865330.156262,1863,1766,5
1779865330.156449,1736,1834,5
1779865330.15666,1701,1857,5
1779865330.156833,1775,1451,5
1779865330.1569762,1518,1380,5
1779865330.1571069,1657,1304,5
1779865330.157282,1612,1662,5
1779865330.157443,1421,1572,5
1779865330.157512,1549,1602,5
1779865330.157579,1623,1866,5
1779865330.157673,1816,1816,5
1779865330.157807,1932,1691,5
1779865330.168459,1681,1743,5
1779865330.177056,1810,1522,5
1779865330.177481,1990,1749,5
1779865330.183485,1878,1581,5
1779865330.184275,1975,1634,5
1779865330.188431,1697,1699,5
1779865330.188789,1505,1671,5
1779865330.189213,1544,1717,5
1779865330.1893601,1769,1840,5
1779865330.1894941,1750,1749,5
1779865330.189644,1868,1779,5
1779865330.189717,1869,1795,5
1779865330.189919,1644,1785,5
1779865330.190047,1551,1659,5
1779865330.19019,1964,1910,5
1779865330.190314,1940,1938,5
1779865330.191821,1723,1694,5
1779865330.1933079,1716,1886,5
1779865330.196002,1775,1922,5
1779865330.1979468,1660,1963,5
1779865330.2120461,1752,1873,5
1779865330.220821,1721,2094,5
1779865330.22189,1975,2171,5
1779865330.226121,1930,1998,5
1779865330.226398,1868,1890,5
1779865330.2265909,2045,1946,5
1779865330.22678,1868,1991,5
1779865330.2270532,2150,1733,5
1779865330.2271638,2056,1952,5
1779865330.227298,1994,1796,5
1779865330.227477,1847,1871,5
1779865330.2275462,1993,2135,5
1779865330.2277818,2008,1946,5
1779865330.2278972,2077,1817,5
1779865330.2280269,2196,1793,5
1779865330.235138,2132,1943,5
1779865330.241847,2041,1912,5
1779865330.242219,1892,1838,5
1779865330.2479649,1999,1986,5
1779865330.254084,2159,2104,5
1779865330.258105,2063,2186,5
1779865330.258576,2074,2011,5
1779865330.2587252,2132,2048,5
1779865330.2588181,2028,2055,5
1779865330.258973,1837,2076,5
1779865330.259209,1833,2094,5
1779865330.2593548,2108,2184,5
1779865330.2594318,1867,2040,5
1779865330.259582,1718,1941,5
1779865330.25966,1970,1980,5
1779865330.259765,2217,2051,5
1779865330.2625148,2364,2086,5
1779865330.264343,2079,1947,5
1779865330.265732,1951,1766,5
1779865330.291212,2201,2184,5
1779865330.291724,2464,2427,5
1779865330.2960792,2307,2168,5
1779865330.296174,1958,2023,5
1779865330.296269,2150,2066,5
1779865330.2963488,2040,2184,5
1779865330.296415,2176,2114,5
1779865330.2965078,2188,2002,5
1779865330.296581,2167,1978,5
1779865330.296642,1911,2004,5
1779865330.29681,1617,2061,5
1779865330.296881,2011,2396,5
1779865330.296958,2212,2145,5
1779865330.297045,1878,2031,5
1779865330.2971148,1923,2011,5
1779865330.29858,2053,2006,5
1779865330.30984,2443,2132,5
1779865330.312675,2224,2355,5
1779865330.32388,2152,2291,5
1779865330.324567,1762,2136,5
1779865330.324967,1649,1924,5
1779865330.331895,1947,1950,5
1779865330.332253,2283,2224,5
1779865330.332335,1960,2290,5
1779865330.332404,1891,2126,5
1779865330.332483,1862,1889,5
1779865330.3325472,2293,2200,5
1779865330.332609,2293,2360,5
1779865330.3326778,2215,2153,5
1779865330.3327491,2260,2066,5
1779865330.332811,2145,2104,5
1779865330.332949,1930,2121,5
1779865330.333036,2030,2167,5
1779865330.333172,2037,2132,5
1779865330.3359182,2019,2216,5
1779865330.337462,2061,2265,5
1779865330.340391,1879,2116,5
1779865330.373003,1863,1773,5
1779865330.377568,2055,1934,5
1779865330.37778,2154,2499,5
1779865330.3779762,2380,2386,5
1779865330.378261,1929,2073,5
1779865330.3784819,2007,2075,5
1779865330.3785658,2140,2237,5
1779865330.378886,1947,2287,5
1779865330.378966,2187,2114,5
1779865330.379029,2088,2200,5
1779865330.379183,2037,2120,5
1779865330.3792582,2154,2129,5
1779865330.379634,2046,1910,5
1779865330.379782,2128,1868,5
1779865330.3798552,2058,2127,5
1779865330.3799329,1981,2193,5
1779865330.38021,1896,2252,5
1779865330.380383,2058,2232,5
1779865330.380507,2185,1989,5
1779865330.380712,2048,2056,5
1779865330.395087,1849,2056,5
1779865330.407988,2012,2036,5
1779865330.412543,2196,2044,5
1779865330.4129221,1984,2160,5
1779865330.413145,1981,2161,5
1779865330.413229,2158,2040,5
1779865330.413375,1782,2060,5
1779865330.413449,1483,1748,5
1779865330.413598,1997,1941,5
1779865330.413676,2576,2340,5
1779865330.413816,2255,2174,5
1779865330.41388,1734,2017,5
1779865330.413994,1916,2236,5
1779865330.414117,2009,2143,5
1779865330.414195,2172,2066,5
1779865330.41426,2276,2065,5
1779865330.414325,2035,2082,5
1779865330.415754,2014,2038,5
1779865330.417336,1749,1950,5
1779865330.4201422,1780,2121,5
1779865330.450612,1904,2408,5
1779865330.450874,2409,2377,5
1779865330.450995,2052,2241,5
1779865330.4510689,2220,2369,5
1779865330.4511309,2142,2319,5
1779865330.45119,1980,2269,5
1779865330.4512482,2113,2170,5
1779865330.4513159,1999,1986,5
1779865330.4513762,1979,2131,5
1779865330.451798,2018,2387,5
1779865330.451923,2057,2243,5
1779865330.452014,2055,2202,5
1779865330.4520829,1972,2132,5
1779865330.4521668,2066,2171,5
1779865330.452232,2121,2085,5
1779865330.4523368,1976,2057,5
1779865330.454933,1857,2180,5
1779865330.4704041,1868,2258,5
1779865330.480174,1701,2108,5
1779865330.4846232,2004,1993,5
1779865330.485064,2291,2005,5
1779865330.485297,2086,1985,5
1779865330.485408,1956,2008,5
1779865330.485485,2003,2102,5
1779865330.485621,2073,2113,5
1779865330.4857018,2166,2237,5
1779865330.4857721,2063,2115,5
1779865330.485835,2109,1948,5
1779865330.485901,2125,1943,5
1779865330.485965,1900,2022,5
1779865330.4860249,1896,2113,5
1779865330.486089,2043,2087,5
1779865330.486149,1935,2125,5
1779865330.4876008,2061,2127,5
1779865330.489324,2069,2012,5
1779865330.491969,2036,1929,5
1779865330.4933991,1996,2151,5
1779865330.507139,2027,2101,5
1779865330.5109172,1979,2150,5
1779865330.519239,2024,2066,5
1779865330.520461,1907,1937,5
1779865330.5251148,2274,2288,5
1779865330.525219,2043,2431,5
1779865330.5255182,1968,2104,5
1779865330.5256782,2084,1934,5
1779865330.525773,2115,1946,5
1779865330.525835,1972,1979,5
1779865330.5259562,1844,1998,5
1779865330.526016,2041,2070,5
1779865330.5261812,2231,2058,5
1779865330.526262,1966,2173,5
1779865330.526326,2023,2225,5
1779865330.526386,1959,2178,5
1779865330.527919,2094,2044,5
1779865330.542355,2053,2109,5
1779865330.5435379,2118,2063,5
1779865330.557618,2227,2027,5
1779865330.561384,2136,1983,5
1779865330.563468,1953,2033,5
1779865330.563639,1947,2074,5
1779865330.563721,2050,2018,5
1779865330.563843,2191,2083,5
1779865330.563957,1869,2082,5
1779865330.5640562,1813,2137,5
1779865330.5641909,2191,1945,5
1779865330.564283,2131,2089,5
1779865330.564385,1899,2158,5
1779865330.564446,1960,2141,5
1779865330.564505,2143,2133,5
1779865330.564599,2076,2034,5
1779865330.564663,2036,2025,5
1779865330.564768,2074,2096,5
1779865330.566356,2289,2140,5
1779865330.5678809,2186,2102,5
1779865330.5693161,1991,2060,5
1779865330.572591,1947,2084,5
1779865330.5922391,1645,2112,5
1779865330.60104,1968,1971,5
1779865330.607456,2212,1928,5
1779865330.607699,2118,1988,5
1779865330.607862,2059,2155,5
1779865330.607949,2173,2287,5
1779865330.608136,2190,2147,5
1779865330.6082711,2103,2362,5
1779865330.6083882,1913,2259,5
1779865330.608503,2022,2067,5
1779865330.608568,2182,2111,5
1779865330.608632,2069,2080,5
1779865330.6088371,2054,2077,5
1779865330.609013,2059,1970,5
1779865330.609208,1965,1932,5
1779865330.60931,1903,2026,5
1779865330.609469,2004,2227,5
1779865330.609621,2112,2095,5
1779865330.609774,2170,2040,5
1779865330.611147,2109,2066,5
1779865330.6243699,2071,2113,5
1779865330.630398,2042,2092,5
1779865330.640231,2038,1973,5
1779865330.641512,1936,2070,5
1779865330.641685,2008,2145,5
1779865330.641797,2095,2143,5
1779865330.641897,2117,2042,5
1779865330.642039,2051,1985,5
1779865330.64221,2023,2016,5
1779865330.64238,2012,1761,5
1779865330.642472,2084,1658,5
1779865330.642543,2054,1712,5
1779865330.6426072,2023,1798,5
1779865330.642668,2005,1854,5
1779865330.642743,2118,1755,5
1779865330.644247,2094,1730,5
1779865330.645619,2069,1805,5
1779865330.647095,2012,1907,5
1779865330.649992,2033,1864,5
1779865330.6594932,2042,1936,5
1779865330.659659,2025,2045,5
1779865330.66153,1980,2194,5
1779865330.676713,2043,2105,5
1779865330.6776059,2074,1993,5
1779865330.683114,2075,1965,5
1779865330.683419,2007,2073,5
1779865330.6836932,2059,2097,5
1779865330.6837819,2058,2009,5
1779865330.683847,2014,2123,5
1779865330.683939,1979,2115,5
1779865330.68419,2018,2101,5
1779865330.684305,2085,2079,5
1779865330.6843789,2092,2067,5
1779865330.684444,2075,2057,5
1779865330.6845078,2071,2083,5
1779865330.6845708,2089,2094,5
1779865330.686526,2014,2037,5
1779865330.697776,1928,2118,5
1779865330.712846,1971,2211,5
1779865330.717815,2090,2152,5
1779865330.7180958,2060,2085,5
1779865330.718189,2048,2125,5
1779865330.7184918,2027,2158,5
1779865330.718708,2049,2098,5
1779865330.718831,2068,2046,5
1779865330.718997,2041,2162,5
1779865330.719132,1995,2177,5
1779865330.719265,2039,2054,5
1779865330.719342,2076,2003,5
1779865330.7196019,2057,2036,5
1779865330.719999,2006,2104,5
1779865330.7201622,2079,2130,5
1779865330.7216582,2091,1917,5
1779865330.721746,1990,1962,5
1779865330.722255,2041,2216,5
1779865330.7236538,2131,2255,5
1779865330.725023,2082,2193,5
1779865330.7347252,2033,1932,5
1779865330.7407758,2146,1839,5
1779865330.7438579,2044,1854,5
1779865330.745016,1883,2163,5
1779865330.758235,2098,2403,5
1779865330.7588842,1994,2512,5
1779865330.759001,1935,2132,5
1779865330.759212,1931,1815,5
1779865330.75933,2129,1991,5
1779865330.759399,2165,2371,5
1779865330.759499,2134,2317,5
1779865330.759648,2131,1928,5
1779865330.7598069,2082,1932,5
1779865330.7599502,2058,2048,5
1779865330.760057,2116,2168,5
1779865330.7601469,2067,2112,5
1779865330.760281,2055,1994,5
1779865330.762502,2062,1942,5
1779865330.773466,2014,1771,5
1779865330.776556,2046,1861,5
1779865330.779955,2047,1882,5
1779865330.788983,2013,1866,5
1779865330.793178,2003,1925,5
1779865330.7932649,1955,1976,5
1779865330.793355,2121,1945,5
1779865330.793424,2086,2014,5
1779865330.793628,1983,1947,5
1779865330.7938628,2119,2062,5
1779865330.794112,2270,1985,5
1779865330.794334,2017,2020,5
1779865330.794589,1897,2093,5
1779865330.7947369,1965,2099,5
1779865330.794881,2229,2026,5
1779865330.795024,2240,1955,5
1779865330.795299,2138,1601,5
1779865330.797982,2074,2053,5
1779865330.8009589,2070,2415,5
1779865330.8010361,2212,2153,5
1779865330.813993,1908,2079,5
1779865330.824925,1893,2011,5
1779865330.825186,1760,1959,5
1779865330.838336,1946,2045,5
1779865330.838497,2080,2142,5
1779865330.838869,2009,2084,5
1779865330.838977,1974,1821,5
1779865330.839382,2138,2058,5
1779865330.839991,2095,2091,5
1779865330.8401291,2220,1818,5
1779865330.84025,2141,1769,5
1779865330.840553,2130,1854,5
1779865330.841283,2063,1883,5
1779865330.853604,1830,1288,5
1779865330.858416,1670,1580,5
1779865330.8614569,2047,2113,5
1779865330.8652968,2235,2438,5
1779865330.875753,2053,2242,5
1779865330.8758972,2014,2105,5
1779865330.876021,2222,2285,5
1779865330.8761868,2236,2201,5
1779865330.876373,2229,1994,5
1779865330.8765,1996,2008,5
1779865330.87658,2274,1966,5
1779865330.876692,2061,1747,5
1779865330.8767822,1921,1817,5
1779865330.8769221,1797,2023,5
1779865330.876985,1981,2046,5
1779865330.877078,2069,2115,5
1779865330.8771431,2224,2302,5
1779865330.877208,1970,2273,5
1779865330.8772988,2034,1988,5
1779865330.8774002,1962,2334,5
1779865330.8774788,1938,2457,5
1779865330.8777442,1950,2522,5
1779865330.877897,1978,2540,5
1779865330.8780642,2058,2498,5
1779865330.8782332,2025,2561,5
1779865330.879862,2027,2532,5
1779865330.881397,1990,2582,5
1779865330.884081,2279,2417,5
1779865330.8960981,2168,2292,5
1779865330.9014452,1731,2128,5
1779865330.91101,1850,2257,5
1779865330.911562,2031,2349,5
1779865330.916302,2103,2293,5
1779865330.9165099,2325,2260,5
1779865330.916904,2187,2210,5
1779865330.917038,1952,2026,5
1779865330.917183,2107,1900,5
1779865330.917264,1882,2012,5
1779865330.917344,1941,2170,5
1779865330.917564,2116,2193,5
1779865330.9177809,1980,2030,5
1779865330.917956,2108,1966,5
1779865330.918117,1995,2114,5
1779865330.918293,1911,2219,5
1779865330.918398,2076,2185,5
1779865330.92571,2198,2191,5
1779865330.926605,1982,2291,5
1779865330.933579,2143,2335,5
1779865330.937491,2196,2202,5
1779865330.940514,1881,2093,5
1779865330.946937,1977,2034,5
1779865330.9517472,1923,1958,5
1779865330.95186,2244,1946,5
1779865330.951971,2202,1932,5
1779865330.9520488,2238,1947,5
1779865330.952269,1910,1995,5
1779865330.9529102,2339,1893,5
1779865330.952985,2018,1873,5
1779865330.9530728,2154,1982,5
1779865330.953214,2018,2075,5
1779865330.95345,2020,2047,5
1779865330.956275,2052,1984,5
1779865330.956364,1777,1990,5
1779865330.9564319,1895,2150,5
1779865330.957761,2248,2218,5
1779865330.959154,2107,2129,5
1779865330.974208,2010,2070,5
1779865330.974884,2029,2100,5
1779865330.986034,2006,2052,5
1779865330.9869812,2021,2030,5
1779865330.992146,1985,2070,5
1779865330.99226,2127,2221,5
1779865330.9924018,2235,2209,5
1779865330.992487,2292,2258,5
1779865330.992555,2065,2191,5
1779865330.992625,2013,2168,5
1779865330.992693,1909,2162,5
1779865330.993304,2259,2131,5
1779865330.9934778,2224,2148,5
1779865330.9938078,2084,2180,5
1779865330.994209,1808,2197,5
1779865330.994283,1873,2101,5
1779865330.9944441,2156,2211,5
1779865331.008203,2136,2180,5
1779865331.0147572,2067,2094,5
1779865331.0206962,2156,2065,5
1779865331.025562,2126,2042,5
1779865331.025988,2002,2243,5
1779865331.026114,1683,2404,5
1779865331.026319,2123,2342,5
1779865331.0264478,2248,2271,5
1779865331.026546,1995,2232,5
1779865331.026638,2170,2280,5
1779865331.026887,2094,2314,5
1779865331.027065,2253,2313,5
1779865331.027128,2145,2299,5
1779865331.027345,1977,2340,5
1779865331.027488,1917,2286,5
1779865331.0275671,2126,2367,5
1779865331.0276558,2092,2417,5
1779865331.029153,2045,2424,5
1779865331.03179,1954,2408,5
1779865331.033252,2065,2220,5
1779865331.053298,2105,2288,5
1779865331.054524,2058,2426,5
1779865331.069334,1995,2649,5
1779865331.0701609,2045,2475,5
1779865331.07025,2144,2309,5
1779865331.070487,2030,2247,5
1779865331.0706508,2000,2432,5
1779865331.07081,2046,2389,5
1779865331.070884,2087,2351,5
1779865331.070949,2023,2483,5
1779865331.072682,2035,2536,5
1779865331.0729332,2036,2323,5
1779865331.073094,2074,2199,5
1779865331.074047,2094,2120,5
1779865331.082336,2055,2194,5
1779865331.0927732,2111,2158,5
1779865331.1010602,2058,2050,5
1779865331.101842,2054,2190,5
1779865331.10235,2015,2349,5
1779865331.107368,2013,2281,5
1779865331.107463,2092,2143,5
1779865331.107529,2149,2085,5
1779865331.107628,2049,2043,5
1779865331.107966,2022,2102,5
1779865331.108146,2071,2000,5
1779865331.108289,2147,2075,5
1779865331.10849,2008,2165,5
1779865331.108556,1977,2252,5
1779865331.108619,2051,2100,5
1779865331.1087518,2134,2058,5
1779865331.1088278,2084,1991,5
1779865331.108893,1997,2046,5
1779865331.109001,2056,2013,5
1779865331.10929,2048,2004,5
1779865331.1096032,1994,2097,5
1779865331.109792,1982,2244,5
1779865331.109885,1963,2193,5
1779865331.109946,1926,2084,5
1779865331.111388,2141,2048,5
1779865331.11295,1980,2076,5
1779865331.124337,2174,2067,5
1779865331.127904,2118,1878,5
1779865331.133313,2139,2059,5
1779865331.138643,2079,2178,5
1779865331.143039,2025,2171,5
1779865331.1433332,1996,2013,5
1779865331.143554,2084,1984,5
1779865331.143751,2033,2020,5
1779865331.144119,2047,2113,5
1779865331.144236,1929,1933,5
1779865331.144765,1920,2017,5
1779865331.144949,1948,2175,5
1779865331.145163,1975,2297,5
1779865331.145378,2112,2178,5
1779865331.145498,2022,2062,5
1779865331.1457548,2008,2019,5
1779865331.157738,2042,2079,5
1779865331.160618,2069,2041,5
1779865331.168559,2087,2045,5
1779865331.172853,2047,2140,5
1779865331.173623,1945,2197,5
1779865331.173714,2019,2123,5
1779865331.173919,2051,2040,5
1779865331.174048,2033,1996,5
1779865331.174113,2001,2081,5
1779865331.174228,2056,2110,5
1779865331.174301,2071,2048,5
1779865331.174369,1994,2116,5
1779865331.174443,1947,2257,5
1779865331.174633,1973,2252,5
1779865331.174933,2045,2081,5
1779865331.1779242,2033,2040,5
1779865331.179306,2035,2075,5
1779865331.194298,2065,2225,5
1779865331.208744,2062,2056,5
1779865331.210294,2015,2016,5
1779865331.210489,1962,2131,5
1779865331.210751,1980,2263,5
1779865331.2111092,2065,2077,5
1779865331.211188,2060,1968,5
1779865331.211315,2058,1973,5
1779865331.2115,2049,2122,5
1779865331.21163,2052,2071,5
1779865331.2116961,1953,2037,5
1779865331.211769,1956,2135,5
1779865331.211988,1976,2308,5
1779865331.2121332,2054,2251,5
1779865331.2122638,2042,2158,5
1779865331.212553,2092,2053,5
1779865331.21425,2072,2085,5
1779865331.22545,2122,2133,5
1779865331.235649,2036,2034,5
1779865331.236081,1936,2011,5
1779865331.2364218,1936,2103,5
1779865331.2403588,2077,2110,5
1779865331.240824,2158,1884,5
1779865331.24096,2037,1806,5
1779865331.2411299,1968,1775,5
1779865331.241239,2008,1867,5
1779865331.241489,2054,1683,5
1779865331.241628,2054,1731,5
1779865331.24174,1982,1872,5
1779865331.241834,1961,2041,5
1779865331.241974,1955,1863,5
1779865331.243507,2045,1791,5
1779865331.245037,2121,1771,5
1779865331.2477329,1970,1873,5
1779865331.25691,2002,1815,5
1779865331.2577658,2094,1795,5
1779865331.2641358,2018,1888,5
1779865331.2709131,1997,2074,5
1779865331.275429,2018,2021,5
1779865331.275528,2053,1882,5
1779865331.275603,2045,1960,5
1779865331.275668,1942,2107,5
1779865331.2757308,2037,2110,5
1779865331.2757912,2103,2046,5
1779865331.2758532,2037,2080,5
1779865331.27602,2015,2236,5
1779865331.276117,1974,2295,5
1779865331.276188,2032,2138,5
1779865331.278064,1977,2069,5
1779865331.291332,2120,2052,5
1779865331.3018491,2103,2170,5
1779865331.302026,2088,1969,5
1779865331.30632,2032,1945,5
1779865331.306558,1972,2145,5
1779865331.306837,2016,2295,5
1779865331.30692,2055,2032,5
1779865331.307076,2100,2018,5
1779865331.3072069,2001,2056,5
1779865331.307422,1975,2053,5
1779865331.30758,2093,2008,5
1779865331.307692,2071,1988,5
1779865331.307762,2016,2115,5
1779865331.307828,1977,2191,5
1779865331.30789,2061,2170,5
1779865331.309279,2067,2077,5
1779865331.311934,2056,2055,5
1779865331.313344,2018,2093,5
1779865331.3264441,2023,2176,5
1779865331.326686,2072,2147,5
1779865331.335739,2018,2254,5
1779865331.337122,2009,2352,5
1779865331.341176,2008,2438,5
1779865331.341312,2112,2284,5
1779865331.341391,2104,2103,5
1779865331.341524,2079,2151,5
1779865331.3416069,2000,2146,5
1779865331.341673,2047,2034,5
1779865331.3417358,2011,2101,5
1779865331.341803,1943,2191,5
1779865331.341933,1948,2284,5
1779865331.34206,2122,2209,5
1779865331.34346,1973,2139,5
1779865331.359191,2022,2083,5
1779865331.362331,2057,2168,5
1779865331.3668501,2116,2138,5
1779865331.367351,2068,1970,5
1779865331.367723,2030,2052,5
1779865331.372619,1890,2093,5
1779865331.3727849,2064,2123,5
1779865331.3734279,2084,2009,5
1779865331.373566,2045,1872,5
1779865331.3737311,2013,1971,5
1779865331.373805,2077,2064,5
1779865331.373871,2083,1932,5
1779865331.373933,2026,2044,5
1779865331.3740108,1973,2187,5
1779865331.374075,1978,2104,5
1779865331.3755322,2051,2076,5
1779865331.376908,2069,2059,5
1779865331.379659,2062,2072,5
1779865331.3817139,2023,2142,5
1779865331.393801,2034,2062,5
1779865331.399976,1989,2035,5
1779865331.408749,1931,2140,5
1779865331.4089332,1915,2248,5
1779865331.409008,1999,2085,5
1779865331.409302,2016,2022,5
1779865331.409399,2028,2005,5
1779865331.409466,2070,2141,5
1779865331.409528,2156,2063,5
1779865331.4095922,2131,1984,5
1779865331.4098299,2031,1968,5
1779865331.409906,1972,2208,5
1779865331.410101,2009,2175,5
1779865331.4101918,2174,1996,5
1779865331.411623,2056,2015,5
1779865331.4242492,2036,2010,5
1779865331.424586,2091,2017,5
1779865331.4248059,2135,1939,5
1779865331.42502,2005,2058,5
1779865331.43069,2018,2187,5
1779865331.438955,2305,2236,5
1779865331.439532,2166,2212,5
1779865331.4399402,2280,1914,5
1779865331.440178,1979,1952,5
1779865331.440386,1900,2204,5
1779865331.440522,1908,2074,5
1779865331.440703,1980,2127,5
1779865331.4407659,2133,2256,5
1779865331.4409258,2065,2423,5
1779865331.4410481,2235,2150,5
1779865331.44399,2166,2030,5
1779865331.445367,1663,2217,5
1779865331.4761899,2421,2062,5
1779865331.521295,2764,2060,5
1779865331.52144,2172,2046,5
1779865331.5215669,1873,2177,5
1779865331.521638,1528,2263,5
1779865331.521705,1587,2096,5
1779865331.521834,1726,2062,5
1779865331.522021,2087,2022,5
1779865331.52209,2253,2174,5
1779865331.522154,1806,2092,5
1779865331.522775,1629,2032,5
1779865331.523081,1689,1808,5
1779865331.523247,1803,2096,5
1779865331.523319,2158,2160,5
1779865331.523384,2188,1829,5
1779865331.523621,2104,1873,5
1779865331.523778,2112,1924,5
1779865331.524058,2137,1931,5
1779865331.524584,2306,1641,5
1779865331.544032,2456,1815,5
1779865331.545022,2163,2275,5
1779865331.549354,1957,2147,5
1779865331.5494459,2034,2104,5
1779865331.5495129,1995,1918,5
1779865331.5499609,2115,1958,5
1779865331.5500648,1875,2038,5
1779865331.550129,1924,2101,5
1779865331.5501912,1867,2078,5
1779865331.5503411,2554,1864,5
1779865331.550519,2343,2603,5
1779865331.5506089,2197,2261,5
1779865331.550688,2459,2183,5
1779865331.550824,1695,2448,5
1779865331.550897,1779,2305,5
1779865331.550963,2039,2166,5
1779865331.551054,2096,2123,5
1779865331.5511942,1769,2446,5
1779865331.551301,1664,2406,5
1779865331.551435,1863,2307,5
1779865331.551598,2044,2029,5
1779865331.551699,2223,2227,5
1779865331.551852,2253,2184,5
1779865331.5519218,2344,2165,5
1779865331.552017,2131,2243,5
1779865331.552208,2012,2407,5
1779865331.552356,1876,1896,5
1779865331.552882,2369,2320,5
1779865331.552974,1960,2449,5
1779865331.559973,2001,2279,5
1779865331.567751,2050,1884,5
1779865331.574472,1935,2112,5
1779865331.574829,1945,2138,5
1779865331.575191,2198,2030,5
1779865331.575572,2258,2054,5
1779865331.575794,2249,2329,5
1779865331.576022,2108,2453,5
1779865331.5803351,1912,2130,5
1779865331.580461,1963,1939,5
1779865331.580578,2078,2153,5
1779865331.5807428,2081,2180,5
1779865331.580821,2111,2222,5
1779865331.580887,2157,2135,5
1779865331.58098,1997,2214,5
1779865331.581124,2085,2024,5
1779865331.581215,2316,1875,5
1779865331.5812852,1936,1811,5
1779865331.5813498,1970,2022,5
1779865331.581414,2016,1795,5
1779865331.582766,2093,1887,5
1779865331.5855548,1850,1801,5
1779865331.586754,1775,1942,5
1779865331.60362,1900,1964,5
1779865331.6072462,2046,2027,5
1779865331.607477,2071,2025,5
1779865331.607744,2037,1957,5
1779865331.6128068,2052,2077,5
1779865331.613626,2104,2001,5
1779865331.617572,2111,2117,5
1779865331.618507,1957,2212,5
1779865331.6186619,1938,2330,5
1779865331.6188202,2006,2421,5
1779865331.6189818,2092,2273,5
1779865331.6192288,2179,2239,5
1779865331.619364,2228,2073,5
1779865331.619467,2134,1992,5
1779865331.619534,2132,1782,5
1779865331.619596,2090,1831,5
1779865331.621001,1997,2036,5
1779865331.6360981,1809,2204,5
1779865331.637234,1952,2039,5
1779865331.639478,1907,1888,5
1779865331.643786,2031,1887,5
1779865331.644816,2114,1982,5
1779865331.6452549,2068,1887,5
1779865331.649289,2049,1896,5
1779865331.649429,2058,2068,5
1779865331.649506,2047,2215,5
1779865331.649573,2114,2074,5
1779865331.649638,2083,1977,5
1779865331.649699,2033,1948,5
1779865331.6497622,2028,2045,5
1779865331.649825,2017,2063,5
1779865331.651231,2027,1997,5
1779865331.652714,1996,2088,5
1779865331.655939,1956,2252,5
1779865331.657325,2020,2294,5
1779865331.6741319,2109,2141,5
1779865331.682509,2157,2104,5
1779865331.683101,2079,2092,5
1779865331.683424,2070,2125,5
1779865331.683891,2050,1964,5
1779865331.683973,2055,2074,5
1779865331.684043,1994,2200,5
1779865331.6841059,2015,2267,5
1779865331.684167,2142,2047,5
1779865331.684227,2108,1995,5
1779865331.684287,2078,1984,5
1779865331.685159,1988,2058,5
1779865331.685351,1996,1933,5
1779865331.685438,2011,2029,5
1779865331.693643,2059,2157,5
1779865331.6987782,1968,2162,5
1779865331.70496,1910,1957,5
1779865331.709087,1944,1955,5
1779865331.709426,2069,2015,5
1779865331.7098932,2086,2106,5
1779865331.7139342,2045,1939,5
1779865331.715188,2120,1712,5
1779865331.715275,2114,1897,5
1779865331.7153559,1854,2103,5
1779865331.715494,1840,2117,5
1779865331.7155662,2212,1855,5
1779865331.715631,2171,1824,5
1779865331.715693,2013,1826,5
1779865331.715754,2068,1915,5
1779865331.717161,2221,1785,5
1779865331.718552,2264,1915,5
1779865331.721945,2114,2067,5
1779865331.723466,2020,2083,5
1779865331.732024,1973,1871,5
1779865331.735563,2199,1906,5
1779865331.737483,2075,1866,5
1779865331.7456472,1940,1927,5
1779865331.746423,1733,1862,5
1779865331.7466,2005,1838,5
1779865331.750915,2096,1957,5
1779865331.751044,1850,2192,5
1779865331.7511199,2026,2261,5
1779865331.7512262,2104,2186,5
1779865331.751297,1991,2108,5
1779865331.751364,2449,2271,5
1779865331.751483,2245,2268,5
1779865331.751654,2004,2025,5
1779865331.753046,1840,1965,5
1779865331.762537,1999,2271,5
1779865331.775535,2258,2383,5
1779865331.77608,2196,2015,5
1779865331.776356,1973,1556,5
1779865331.776978,2026,1701,5
1779865331.77738,2022,2304,5
1779865331.780778,2025,2511,5
1779865331.78142,2072,2247,5
1779865331.781503,2314,2275,5
1779865331.78175,2204,2077,5
1779865331.781811,1979,1987,5
1779865331.781871,2275,2070,5
1779865331.781929,2363,1919,5
1779865331.7819872,2125,1715,5
1779865331.783446,2083,1880,5
1779865331.784908,2388,1938,5
1779865331.797003,2232,2321,5
1779865331.801504,1748,2386,5
1779865331.805249,1866,1989,5
1779865331.807477,2069,1981,5
1779865331.815831,2126,2030,5
1779865331.817368,2005,1988,5
1779865331.817556,2047,1810,5
1779865331.817759,1987,1679,5
1779865331.817858,1899,1945,5
1779865331.817929,1940,2202,5
1779865331.818017,2342,2196,5
1779865331.818126,1948,1818,5
1779865331.818403,1890,1897,5
1779865331.818503,1750,2078,5
1779865331.818789,2132,2174,5
1779865331.8189812,2534,2269,5
1779865331.81909,2331,2133,5
1779865331.827636,1730,2227,5
1779865331.83339,2083,2382,5
1779865331.8337998,2022,2127,5
1779865331.8368618,2174,2151,5
1779865331.843595,2145,2099,5
1779865331.8442082,2120,2173,5
1779865331.844812,2338,2155,5
1779865331.849579,1938,2132,5
1779865331.84972,2162,2363,5
1779865331.8498409,2181,2351,5
1779865331.849986,2531,2233,5
1779865331.850066,2323,2181,5
1779865331.850132,2130,2275,5
1779865331.850195,1975,2532,5
1779865331.8502588,2013,2588,5
1779865331.8516202,2243,2488,5
1779865331.8530838,2107,2347,5
1779865331.8575602,1735,2326,5
1779865331.857693,1956,2112,5
1779865331.865354,1710,2400,5
1779865331.879276,2328,2203,5
1779865331.884398,2195,2405,5
1779865331.8845508,2284,2482,5
1779865331.884736,2340,1979,5
1779865331.88497,2000,2119,5
1779865331.885111,2011,2394,5
1779865331.885184,2087,2385,5
1779865331.8853009,2379,2189,5
1779865331.885417,2221,1906,5
1779865331.885789,2153,1855,5
1779865331.885998,2304,1976,5
1779865331.886152,2201,1870,5
1779865331.886299,2095,1912,5
1779865331.886507,1992,2167,5
1779865331.9082692,1896,2412,5
1779865331.908621,1922,2302,5
1779865331.909006,2455,2019,5
1779865331.909642,1923,2211,5
1779865331.91039,1898,2283,5
1779865331.914444,2134,2043,5
1779865331.914617,2450,1627,5
1779865331.914693,2035,2077,5
1779865331.91479,2314,2024,5
1779865331.914867,2338,1603,5
1779865331.9149399,1851,1841,5
1779865331.915006,2047,2546,5
1779865331.91507,1727,2473,5
1779865331.915145,1863,1885,5
1779865331.9165099,2283,2174,5
1779865331.919168,2362,2344,5
1779865331.920557,2223,2565,5
1779865331.932054,3096,1795,5
1779865331.940435,3454,1885,5
1779865331.944919,2683,2168,5
1779865331.946102,1281,1926,5
1779865331.9501,1146,1941,5
1779865331.950714,2363,1653,5
1779865331.950927,2462,1473,5
1779865331.951078,1382,2323,5
1779865331.951191,1170,2390,5
1779865331.951285,1705,1990,5
1779865331.951351,1865,1622,5
1779865331.951543,2264,1813,5
1779865331.951628,2687,1894,5
1779865331.951692,2368,1956,5
1779865331.951784,2650,1699,5
1779865331.9531431,3034,2294,5
1779865331.9615061,2619,3285,5
1779865331.966452,1204,1982,5
1779865331.976013,1651,1706,5
1779865331.976453,2399,1829,5
1779865331.9770932,2260,2168,5
1779865331.9777641,2257,1932,5
1779865331.9808,1897,2044,5
1779865331.98209,1805,2040,5
1779865331.982226,2049,1694,5
1779865331.982301,2406,1941,5
1779865331.98243,2663,2209,5
1779865331.982502,3080,2409,5
1779865331.98257,3001,2389,5
1779865331.982636,2690,2208,5
1779865331.9827,2383,2049,5
1779865331.985417,1763,2091,5
1779865331.98673,1784,2205,5
1779865331.989438,2006,2294,5
1779865332.008061,2285,2211,5
1779865332.008499,2347,2048,5
1779865332.0131788,2224,1781,5
1779865332.0139399,2463,2092,5
1779865332.014555,2835,2379,5
1779865332.0185442,2885,2159,5
1779865332.018986,2853,2267,5
1779865332.019063,2519,2363,5
1779865332.0191748,2530,2381,5
1779865332.019286,3022,2198,5
1779865332.019393,2726,2075,5
1779865332.019488,2315,2063,5
1779865332.019665,2272,1976,5
1779865332.019784,2837,1973,5
1779865332.019857,3109,2107,5
1779865332.02157,3180,2148,5
1779865332.0303948,2796,1926,5
1779865332.035993,2362,2477,5
1779865332.036331,2390,1978,5
1779865332.042049,2350,2007,5
1779865332.0430331,2691,2125,5
1779865332.046474,3005,2197,5
1779865332.046596,2903,2063,5
1779865332.0466769,2719,2068,5
1779865332.046744,2550,2133,5
1779865332.046806,2793,2041,5
1779865332.0469298,3208,1769,5
1779865332.046998,3240,1889,5
1779865332.047062,3104,2308,5
1779865332.048513,2855,2213,5
1779865332.051216,3023,1931,5
1779865332.052623,2640,1816,5
1779865332.0621061,2314,2178,5
1779865332.064752,2614,2075,5
1779865332.074574,2988,1859,5
1779865332.075283,2968,2339,5
1779865332.0787368,2577,2266,5
1779865332.078803,2374,1906,5
1779865332.078915,2835,1949,5
1779865332.078966,2522,2076,5
1779865332.079015,2372,1939,5
1779865332.0790641,2281,2148,5
1779865332.079319,2300,2192,5
1779865332.0794199,2112,1851,5
1779865332.079513,2298,1767,5
1779865332.080884,2891,1820,5
1779865332.098026,2605,1888,5
1779865332.098537,2334,1982,5
1779865332.0988832,2374,2116,5
1779865332.1082098,2291,2230,5
1779865332.108657,3123,1477,5
1779865332.108781,2468,2074,5
1779865332.108938,1407,2070,5
1779865332.109077,1122,1357,5
1779865332.1092181,1720,1852,5
1779865332.109332,1676,1795,5
1779865332.109461,1904,2040,5
1779865332.109587,1991,2259,5
1779865332.10972,2235,2113,5
1779865332.109888,2217,1974,5
1779865332.111315,2466,2215,5
1779865332.113216,2481,2149,5
1779865332.114629,2439,2031,5
1779865332.117584,2776,1504,5
1779865332.12508,2435,1920,5
1779865332.12735,1718,2232,5
1779865332.136601,2321,2197,5
1779865332.141393,2386,2053,5
1779865332.1420338,2059,1810,5
1779865332.1423008,2451,2153,5
1779865332.142621,2734,2008,5
1779865332.14655,2673,1831,5
1779865332.1472042,1153,2587,5
1779865332.1473238,799,2027,5
1779865332.147424,1618,1751,5
1779865332.1475992,1704,2084,5
1779865332.147676,1319,2049,5
1779865332.147742,1610,1992,5
1779865332.1478028,1511,2164,5
1779865332.149199,1696,2060,5
1779865332.1571698,2116,1725,5
1779865332.159368,2329,2020,5
1779865332.163203,2148,2160,5
1779865332.1727302,2431,2185,5
1779865332.172941,3161,1612,5
1779865332.173148,1906,2391,5
1779865332.173373,1059,2336,5
1779865332.173526,1356,1840,5
1779865332.1737769,2073,2010,5
1779865332.174007,2115,2109,5
1779865332.1741939,1814,2090,5
1779865332.177265,1732,2125,5
1779865332.178102,1737,2107,5
1779865332.178327,1743,1910,5
1779865332.178449,1841,1898,5
1779865332.181036,2023,1940,5
1779865332.1838,2249,2230,5
1779865332.1854951,2244,2099,5
1779865332.204161,2120,2073,5
1779865332.209175,2110,2024,5
1779865332.209876,1801,2035,5
1779865332.213572,1686,1943,5
1779865332.2136588,1899,1927,5
1779865332.213728,2060,1797,5
1779865332.213801,2208,1919,5
1779865332.213862,2542,2037,5
1779865332.2142699,1855,2108,5
1779865332.214404,1638,1777,5
1779865332.2145238,1349,1938,5
1779865332.2145898,1558,2233,5
1779865332.214729,2415,2257,5
1779865332.214792,2421,1981,5
1779865332.214924,2064,2021,5
1779865332.216647,1943,2012,5
1779865332.2232609,1967,2007,5
1779865332.2234292,1659,1916,5
1779865332.226872,1867,2112,5
1779865332.236587,2047,2016,5
1779865332.237049,2156,1689,5
1779865332.240459,2040,1943,5
1779865332.241668,1602,2231,5
1779865332.2418408,1640,2274,5
1779865332.242033,2073,2349,5
1779865332.242165,1959,2166,5
1779865332.2422311,2007,2019,5
1779865332.242293,2299,2088,5
1779865332.242351,1941,2113,5
1779865332.2451358,1893,2028,5
1779865332.246565,1991,2006,5
1779865332.24963,1935,1993,5
1779865332.261763,1960,1825,5
1779865332.262391,1927,1855,5
1779865332.27377,1681,1960,5
1779865332.27448,1845,2205,5
1779865332.279488,1660,2209,5
1779865332.279822,1741,1852,5
1779865332.279936,1704,1652,5
1779865332.280003,2031,1937,5
1779865332.280065,2137,2246,5
1779865332.280189,1968,2232,5
1779865332.280457,1699,1970,5
1779865332.280531,2010,2303,5
1779865332.280622,1948,2275,5
1779865332.280683,1528,2165,5
1779865332.280743,1836,2050,5
1779865332.2808042,1912,2164,5
1779865332.2997792,2066,2055,5
1779865332.309084,2171,1896,5
1779865332.309624,1883,2023,5
1779865332.309702,2072,2000,5
1779865332.309771,1763,1829,5
1779865332.309833,2505,2018,5
1779865332.310005,2751,2267,5
1779865332.310085,2320,1991,5
1779865332.3101609,1779,1894,5
1779865332.3102238,2035,2059,5
1779865332.310356,2292,2202,5
1779865332.310421,2327,2254,5
1779865332.310501,1802,2310,5
1779865332.310588,1697,2113,5
1779865332.310744,2205,2000,5
1779865332.313489,2311,1814,5
1779865332.31497,2342,1904,5
1779865332.3165472,2145,1932,5
1779865332.344471,1897,1879,5
1779865332.34592,1908,1907,5
1779865332.35039,2049,2018,5
1779865332.350521,2156,1950,5
1779865332.3506,2205,1972,5
1779865332.350705,2169,2169,5
1779865332.350778,2017,2085,5
1779865332.3508322,2024,1974,5
1779865332.350882,2089,1910,5
1779865332.350932,1985,2037,5
1779865332.350982,1920,2217,5
1779865332.351031,2105,2172,5
1779865332.35108,2179,2040,5
1779865332.351128,2085,1892,5
1779865332.351177,1613,2054,5
1779865332.3512268,1730,1970,5
1779865332.351351,1943,2044,5
1779865332.353164,1775,2059,5
1779865332.364537,1707,2232,5
1779865332.376073,1868,2278,5
1779865332.380903,2508,2141,5
1779865332.3823628,2130,2124,5
1779865332.3824482,1848,2188,5
1779865332.382684,2220,2055,5
1779865332.382765,2012,2137,5
1779865332.3828359,1806,2030,5
1779865332.382902,2206,1839,5
1779865332.383001,2085,1978,5
1779865332.38307,1793,1867,5
1779865332.383224,1826,2343,5
1779865332.3835049,1874,2526,5
1779865332.383737,1783,1774,5
1779865332.3840551,1908,1716,5
1779865332.385409,2424,2261,5
1779865332.387022,2091,2407,5
1779865332.388704,1745,2201,5
1779865332.390382,1932,2103,5
1779865332.4134479,2185,2001,5
1779865332.4143622,2185,1913,5
1779865332.41838,2261,1894,5
1779865332.4185421,1939,2109,5
1779865332.4189188,1768,2013,5
1779865332.419039,1700,2036,5
1779865332.419106,1762,2196,5
1779865332.4192278,2017,2258,5
1779865332.4193149,1987,2284,5
1779865332.419426,1775,2310,5
1779865332.41952,2363,2103,5
1779865332.419652,1971,2000,5
1779865332.4197419,1807,1931,5
1779865332.4199932,2059,2174,5
1779865332.421949,2474,2284,5
1779865332.444375,1837,1954,5
1779865332.449145,1466,1835,5
1779865332.44927,1637,1754,5
1779865332.4496052,1914,1866,5
1779865332.449953,2123,2139,5
1779865332.450024,2132,2020,5
1779865332.4500859,2084,1999,5
1779865332.4501991,2016,2107,5
1779865332.4502668,2043,2231,5
1779865332.45035,2049,1973,5
1779865332.450481,1891,1860,5
1779865332.450593,2103,2020,5
1779865332.4506629,1894,1918,5
1779865332.450758,1904,1791,5
1779865332.450837,2063,2072,5
1779865332.452566,2105,2092,5
1779865332.483691,1947,2010,5
1779865332.4838269,2021,2137,5
1779865332.484488,2267,2063,5
1779865332.490936,2154,2019,5
1779865332.491035,1976,2114,5
1779865332.491101,1852,2078,5
1779865332.4911628,1740,1815,5
1779865332.491223,1866,1715,5
1779865332.4912798,2047,1901,5
1779865332.491339,1466,2047,5
1779865332.4913971,1883,2137,5
1779865332.491454,2387,2168,5
1779865332.491512,2023,2229,5
1779865332.5150259,1954,2089,5
1779865332.527331,2204,2298,5
1779865332.527585,2034,2254,5
1779865332.5277498,1880,2179,5
1779865332.527925,1908,2131,5
1779865332.52814,1963,2154,5
1779865332.5282261,2002,2125,5
1779865332.528325,2069,2038,5
1779865332.528498,1969,1990,5
1779865332.529238,1813,1782,5
1779865332.529919,1673,1761,5
1779865332.5303009,2005,2332,5
1779865332.530375,1871,2162,5
1779865332.5306828,2067,2200,5
1779865332.530824,2133,2219,5
1779865332.530983,2200,2079,5
1779865332.531103,2058,1972,5
1779865332.53138,1958,2119,5
1779865332.531872,2138,2097,5
1779865332.534296,2224,2078,5
1779865332.534689,2394,2041,5
1779865332.5347662,1931,2355,5
1779865332.534865,1756,2104,5
1779865332.5349429,1649,1960,5
1779865332.535003,1898,1997,5
1779865332.535062,1898,2110,5
1779865332.535119,2001,2170,5
1779865332.5351858,2001,2079,5
1779865332.536802,1902,2127,5
1779865332.551355,1846,2090,5
1779865332.564312,1976,2064,5
1779865332.568714,2046,2077,5
1779865332.569143,2098,2082,5
1779865332.5692632,2075,2040,5
1779865332.569371,2221,2054,5
1779865332.56977,2167,2041,5
1779865332.569844,2145,2087,5
1779865332.5699131,2435,2010,5
1779865332.57008,1820,2214,5
1779865332.57023,1633,2177,5
1779865332.570316,1828,1899,5
1779865332.5704699,1962,2007,5
1779865332.570627,1843,2131,5
1779865332.570739,1830,2028,5
1779865332.571918,1802,2057,5
1779865332.5727592,1845,2124,5
1779865332.5997162,1887,2187,5
1779865332.60061,2083,2057,5
1779865332.6008809,2175,2063,5
1779865332.601206,2130,2043,5
1779865332.601357,2060,2067,5
1779865332.601648,2063,2013,5
1779865332.601726,2208,2101,5
1779865332.601791,2065,2163,5
1779865332.602357,2155,2100,5
1779865332.6037278,2003,2052,5
1779865332.603816,1862,2049,5
1779865332.603881,2172,1880,5
1779865332.6043189,2148,1981,5
1779865332.6057239,2588,1869,5
1779865332.606087,2942,1897,5
1779865332.607577,2269,1939,5
1779865332.608384,1103,2337,5
1779865332.608693,1946,2030,5
1779865332.6089349,1448,1929,5
1779865332.6256452,1809,1910,5
1779865332.641768,1723,2116,5
1779865332.643156,1715,2113,5
1779865332.643518,1839,1735,5
1779865332.6436439,2004,2125,5
1779865332.643726,2166,2107,5
1779865332.6437912,1494,2372,5
1779865332.643898,1866,2068,5
1779865332.644083,2456,1977,5
1779865332.6442292,2288,2239,5
1779865332.644348,1945,2272,5
1779865332.644524,1725,2122,5
1779865332.644685,2134,1917,5
1779865332.644862,1927,2129,5
1779865332.644952,1817,2016,5
1779865332.645121,3176,1902,5
1779865332.645205,2728,1810,5
1779865332.645678,2511,1911,5
1779865332.647351,2098,2282,5
1779865332.6617448,591,2084,5
1779865332.674758,1950,1918,5
1779865332.675232,2218,1840,5
1779865332.6754408,1081,1940,5
1779865332.67563,1329,2054,5
1779865332.675797,1608,2178,5
1779865332.675908,1792,2036,5
1779865332.676106,2266,1817,5
1779865332.676301,1672,2218,5
1779865332.676529,1963,1964,5
1779865332.67665,2495,1712,5
1779865332.676765,2659,1998,5
1779865332.676899,1248,2459,5
1779865332.677043,1178,2009,5
1779865332.677289,1891,1829,5
1779865332.7011561,2130,1935,5
1779865332.7124422,2194,1870,5
1779865332.719413,1959,1982,5
1779865332.720308,1806,2048,5
1779865332.7221131,2071,2070,5
1779865332.7229419,2073,2174,5
1779865332.723441,2286,2205,5
1779865332.723567,2473,2067,5
1779865332.729902,2199,1863,5
1779865332.734528,2272,1946,5
1779865332.7354748,2176,2097,5
1779865332.750313,2113,1948,5
1779865332.750409,2007,1833,5
1779865332.750477,1852,2203,5
1779865332.750541,1749,2294,5
1779865332.750602,1982,1988,5
1779865332.7506628,2068,1885,5
1779865332.750726,2147,1887,5
1779865332.750941,1966,1833,5
1779865332.751026,2236,1905,5
1779865332.7510898,2646,1702,5
1779865332.751154,1629,1951,5
1779865332.7512152,1779,1862,5
1779865332.7512782,1765,1913,5
1779865332.751393,1945,1797,5
1779865332.751498,1931,1869,5
1779865332.751644,1806,1963,5
1779865332.75172,1753,2048,5
1779865332.751782,1896,1939,5
1779865332.751843,1991,2007,5
1779865332.752092,2040,2037,5
1779865332.752338,2392,2087,5
1779865332.752506,2436,1981,5
1779865332.7525902,2116,1971,5
1779865332.752656,1984,1978,5
1779865332.7551,1917,2186,5
1779865332.756476,1942,2109,5
1779865332.758016,1985,2130,5
1779865332.7591228,1943,2244,5
1779865332.760014,2138,2216,5
1779865332.760384,2220,2172,5
1779865332.7604601,2173,2054,5
1779865332.762167,2047,2197,5
1779865332.7763011,1986,2194,5
1779865332.788548,2039,2036,5
1779865332.793705,2015,2090,5
1779865332.794554,1937,2324,5
1779865332.795124,1929,2367,5
1779865332.795764,1858,2182,5
1779865332.796187,1952,2216,5
1779865332.796685,2248,2272,5
1779865332.820319,2249,2377,5
1779865332.8262742,2095,2147,5
1779865332.826692,1842,2086,5
1779865332.827015,1993,2212,5
1779865332.8273332,1870,2124,5
1779865332.827929,2056,2123,5
1779865332.828149,2107,2097,5
1779865332.828243,2054,2067,5
1779865332.8283148,1988,2110,5
1779865332.828437,1950,2183,5
1779865332.828614,2063,2065,5
1779865332.828736,2088,2011,5
1779865332.828877,1978,1902,5
1779865332.829199,1998,1985,5
1779865332.829296,2051,1919,5
1779865332.829377,1933,1833,5
1779865332.8294551,1997,1838,5
1779865332.829522,2020,1944,5
1779865332.829747,2011,1989,5
1779865332.829817,1995,1936,5
1779865332.830013,1935,2030,5
1779865332.830085,1965,2093,5
1779865332.830152,2235,2224,5
1779865332.830217,2070,2207,5
1779865332.830283,2045,2048,5
1779865332.8304808,2043,2166,5
1779865332.834635,2064,2215,5
1779865332.836168,1999,2089,5
1779865332.874138,1960,2115,5
1779865332.8744278,1986,2269,5
1779865332.8747652,2031,2247,5
1779865332.874951,2032,2091,5
1779865332.875028,2111,2088,5
1779865332.875108,1976,2095,5
1779865332.875225,2049,2145,5
1779865332.875435,2029,2057,5
1779865332.875936,2005,2002,5
1779865332.876112,2020,2154,5
1779865332.8935318,2056,2217,5
1779865332.9143949,2071,2247,5
1779865332.914558,2026,2061,5
1779865332.915255,2018,1890,5
1779865332.915518,2146,1864,5
1779865332.915595,2168,1897,5
1779865332.915657,2088,1838,5
1779865332.916037,2031,2041,5
1779865332.916279,1955,2068,5
1779865332.9164119,2031,1792,5
1779865332.916493,2086,1735,5
1779865332.9166138,2111,1738,5
1779865332.916833,2061,1911,5
1779865332.916945,2137,1990,5
1779865332.917375,2069,1774,5
1779865332.9175098,1964,1842,5
1779865332.917584,1883,2025,5
1779865332.91774,1940,1980,5
1779865332.918045,2183,1994,5
1779865332.9181361,2112,2010,5
1779865332.9182029,2006,1965,5
1779865332.918276,1967,1992,5
1779865332.9183779,2074,2010,5
1779865332.9184482,1961,2087,5
1779865332.918509,1902,1997,5
1779865332.918703,1997,1957,5
1779865332.918771,2041,1926,5
1779865332.918849,2085,1805,5
1779865332.918923,1963,1933,5
1779865332.918988,1852,1910,5
1779865332.919062,2102,2011,5
1779865332.919125,2215,2087,5
1779865332.920546,2150,2172,5
1779865332.922299,2004,2281,5
1779865332.936686,2024,2133,5
1779865332.9551308,1853,2069,5
1779865332.955324,2054,2056,5
1779865332.9565,2036,2095,5
1779865332.9565718,2064,2109,5
1779865332.9566321,2037,1896,5
1779865332.956979,2035,2025,5
1779865332.95774,2071,2299,5
1779865332.9578109,1977,2211,5
1779865332.9578722,1879,2005,5
1779865332.958134,2128,2192,5
1779865332.958323,2131,2384,5
1779865332.958836,2010,2388,5
1779865332.958962,2050,2177,5
1779865332.978314,1869,2152,5
1779865332.991113,1969,2226,5
1779865332.9916632,1986,2328,5
1779865332.992264,2259,2295,5
1779865332.992366,2118,2076,5
1779865332.992436,1820,2023,5
1779865332.992501,2152,2157,5
1779865332.992565,2136,2127,5
1779865332.992627,1926,2057,5
1779865332.9926882,1905,2070,5
1779865332.9927511,2018,2121,5
1779865332.992811,2083,1979,5
1779865332.9928699,2115,2097,5
1779865332.992929,2062,2058,5
1779865332.9929862,1953,1836,5
1779865332.993044,2090,1954,5
1779865332.993141,2244,1952,5
1779865332.993373,1971,1974,5
1779865332.993451,1921,2020,5
1779865332.993522,2115,2129,5
1779865332.993603,2190,2108,5
1779865332.9949708,2110,1908,5
1779865332.996392,2106,1796,5
1779865333.008905,1817,1869,5
1779865333.018821,1930,2290,5
1779865333.019448,2160,2236,5
1779865333.025771,2093,2030,5
1779865333.031265,1839,2045,5
1779865333.031552,1917,2176,5
1779865333.031716,2362,2079,5
1779865333.0317929,2148,2082,5
1779865333.032636,2079,2020,5
1779865333.032701,2185,1978,5
1779865333.03285,1864,1968,5
1779865333.032932,1632,1891,5
1779865333.033057,2135,2110,5
1779865333.033269,2199,2096,5
1779865333.033429,1994,2070,5
1779865333.034285,1895,2001,5
1779865333.042793,1927,2027,5
1779865333.058738,2179,1897,5
1779865333.05902,2245,1865,5
1779865333.0594501,2094,1873,5
1779865333.059666,2022,1930,5
1779865333.059974,1942,2014,5
1779865333.060364,1804,1905,5
1779865333.0651898,1884,1977,5
1779865333.065449,1989,2064,5
1779865333.06552,2196,2075,5
1779865333.0663471,2150,2025,5
1779865333.066724,2121,1992,5
1779865333.066824,2012,2088,5
1779865333.0668852,2006,2164,5
1779865333.067167,2130,2063,5
1779865333.0673769,2076,2067,5
1779865333.067792,2062,2046,5
1779865333.067861,1960,2122,5
1779865333.0680609,1972,2104,5
1779865333.068156,2098,2086,5
1779865333.072562,1885,2096,5
1779865333.074186,1933,2210,5
1779865333.1037052,1982,2218,5
1779865333.104167,1956,2005,5
1779865333.104255,2109,2025,5
1779865333.104325,2153,2108,5
1779865333.1069992,2103,2057,5
1779865333.107488,2129,2021,5
1779865333.1084428,2076,2119,5
1779865333.138109,2053,2349,5
1779865333.1387231,2054,2360,5
1779865333.13891,2194,2271,5
1779865333.13908,2181,2158,5
1779865333.13955,2025,2145,5
1779865333.139615,2035,2298,5
1779865333.1398778,2115,2181,5
1779865333.1401548,2086,2127,5
1779865333.140262,1992,2152,5
1779865333.140322,2011,2176,5
1779865333.1404212,2095,2153,5
1779865333.140553,2125,2247,5
1779865333.1406238,2074,2223,5
1779865333.140787,2065,2265,5
1779865333.1409001,2097,2268,5
1779865333.141129,2107,2245,5
1779865333.141195,2079,2328,5
1779865333.141442,2072,2393,5
1779865333.1415029,2113,2279,5
1779865333.141561,2090,2162,5
1779865333.141702,2098,2116,5
1779865333.1418161,2024,2151,5
1779865333.141877,2051,2170,5
1779865333.1420548,2088,2158,5
1779865333.142116,2051,2165,5
1779865333.142175,2031,2233,5
1779865333.1422331,2054,2311,5
1779865333.142383,2005,2362,5
1779865333.14385,2078,2345,5
1779865333.156258,2107,2312,5
1779865333.158517,2051,2320,5
1779865333.159245,2055,2359,5
1779865333.159319,2037,2707,5
1779865333.215404,1990,2792,5
1779865333.256222,1958,2798,5
1779865333.257154,2077,2703,5
1779865333.257536,2076,2659,5
1779865333.257945,2099,2579,5
1779865333.258399,2064,2527,5
1779865333.2592561,2109,2376,5
1779865333.2600389,2104,2212,5
1779865333.283385,2033,2199,5
1779865333.3054368,1963,2263,5
1779865333.305881,2067,2222,5
1779865333.305971,2052,2117,5
1779865333.306866,2039,2139,5
1779865333.3073769,2073,2084,5
1779865333.30749,2053,2120,5
1779865333.308061,2101,2107,5
1779865333.308494,2074,2062,5
1779865333.30861,2029,2153,5
1779865333.308722,2009,2133,5
1779865333.308814,2054,2071,5
1779865333.308884,2105,2003,5
1779865333.309032,2074,2049,5
1779865333.309197,2009,2134,5
1779865333.309293,2076,2070,5
1779865333.30936,2030,2101,5
1779865333.3094242,1957,2172,5
1779865333.3095171,2032,2299,5
1779865333.309597,2100,2176,5
1779865333.309866,2012,2082,5
1779865333.309977,2101,2068,5
1779865333.3101,2067,2143,5
1779865333.310185,1996,2150,5
1779865333.3102531,2072,2066,5
1779865333.3103192,2011,2102,5
1779865333.310417,1967,2069,5
1779865333.3104808,2064,2089,5
1779865333.310581,2125,2057,5
1779865333.310645,2092,2098,5
1779865333.310709,2030,2070,5
1779865333.310771,2032,2037,5
1779865333.310854,2055,1966,5
1779865333.3109262,2074,2043,5
1779865333.311069,1949,2131,5
1779865333.311136,1947,2195,5
1779865333.3112042,2021,2054,5
1779865333.31127,2112,2007,5
1779865333.3113332,2130,2031,5
1779865333.3113961,2044,2084,5
1779865333.311459,2089,2029,5
1779865333.3115451,2076,2027,5
1779865333.3116171,2038,2121,5
1779865333.311766,2000,2225,5
1779865333.3119419,2038,2102,5
1779865333.312049,2054,1973,5
1779865333.312122,2090,1993,5
1779865333.312191,2045,2022,5
1779865333.3122602,2113,1994,5
1779865333.3123279,2092,1991,5
1779865333.312427,2041,2061,5
1779865333.312494,2035,2159,5
1779865333.312554,1989,2055,5
1779865333.312612,2056,1975,5
1779865333.31267,2055,2034,5
1779865333.312727,2052,2051,5
1779865333.3127859,2060,1996,5
1779865333.312844,2119,2008,5
1779865333.312902,2073,2055,5
1779865333.3131452,1996,2133,5
1779865333.3132741,1998,2216,5
1779865333.313426,2090,2115,5
1779865333.313693,2104,2065,5
1779865333.3137548,2084,2068,5
1779865333.313819,2010,2111,5
1779865333.31388,2069,2067,5
1779865333.31394,2064,2030,5
1779865333.314,1990,2082,5
1779865333.31406,1956,2199,5
1779865333.314118,2084,2111,5
1779865333.314176,2159,2033,5
1779865333.314234,2075,1963,5
1779865333.314291,2022,2046,5
1779865333.316569,2040,2033,5
1779865333.366787,2057,2027,5
1779865333.367711,2006,2109,5
1779865333.3689659,1966,2165,5
1779865333.369067,2043,2137,5
1779865333.369139,2011,2065,5
1779865333.369376,1949,2022,5
1779865333.369504,2023,2085,5
1779865333.370017,2122,2056,5
1779865333.370166,2115,1968,5
1779865333.370255,2042,2030,5
1779865333.370325,1995,2136,5
1779865333.370477,2008,2143,5
1779865333.370757,2087,2044,5
1779865333.370879,2119,2007,5
1779865333.370949,2089,2081,5
1779865333.371016,1989,2112,5
1779865333.3711438,2064,2018,5
1779865333.374201,2022,2015,5
1779865333.4042099,1964,2142,5
1779865333.409973,1916,2214,5
1779865333.4100869,2018,2087,5
1779865333.41016,2069,2087,5
1779865333.410229,2039,2038,5
1779865333.410294,1968,2066,5
1779865333.4105642,2044,2073,5
1779865333.410646,2060,2050,5
1779865333.4107132,1988,2111,5
1779865333.410778,1940,2186,5
1779865333.4108422,2074,2183,5
1779865333.4109051,2095,2059,5
1779865333.4109702,2063,2031,5
1779865333.411036,2019,2050,5
1779865333.4111009,2062,2104,5
1779865333.4111722,2116,2044,5
1779865333.411242,2061,2004,5
1779865333.411315,1991,2083,5
1779865333.411387,1970,2154,5
1779865333.411466,2042,2040,5
1779865333.411542,2097,2008,5
1779865333.4118688,2075,2016,5
1779865333.4120991,2049,2080,5
1779865333.412234,2071,2019,5
1779865333.412458,2073,2045,5
1779865333.412608,1988,2128,5
1779865333.413028,1989,2209,5
1779865333.413256,2048,2097,5
1779865333.41345,2041,2016,5
1779865333.413553,2090,2008,5
1779865333.414947,2079,2068,5
1779865333.4165618,2034,2037,5
1779865333.419185,2014,1970,5
1779865333.427367,2015,2082,5
1779865333.430208,2052,2185,5
1779865333.456367,2049,2107,5
1779865333.458017,2047,2033,5
1779865333.458174,2058,2044,5
1779865333.458265,2057,2104,5
1779865333.458338,2062,2121,5
1779865333.458407,2072,2009,5
1779865333.458475,2015,2000,5
1779865333.45854,1998,2145,5
1779865333.458606,1961,2235,5
1779865333.458678,2050,2127,5
1779865333.458924,2077,2137,5
1779865333.459106,2092,2145,5
1779865333.468689,2033,2218,5
1779865333.4729369,2116,2202,5
1779865333.4829671,2070,2218,5
1779865333.4884422,1999,2267,5
1779865333.493983,1967,2356,5
1779865333.49408,2106,2218,5
1779865333.494176,2222,2168,5
1779865333.4944599,2019,2150,5
1779865333.494638,2009,2190,5
1779865333.4947278,2058,2126,5
1779865333.494795,2101,2058,5
1779865333.4948611,2010,2172,5
1779865333.494932,1930,2251,5
1779865333.495028,2003,2235,5
1779865333.495094,2099,2115,5
1779865333.495156,2176,2086,5
1779865333.495221,2295,1968,5
1779865333.495282,2168,2102,5
1779865333.495413,2045,2209,5
1779865333.495968,1923,2119,5
1779865333.496135,1995,2043,5
1779865333.4963148,2024,2309,5
1779865333.4966872,2863,1976,5
1779865333.496763,2055,2200,5
1779865333.4968262,1526,2088,5
1779865333.498268,1978,1976,5
1779865333.500164,2064,2105,5
1779865333.502885,2566,1944,5
1779865333.5048902,2715,2093,5
1779865333.526685,3187,2139,5
1779865333.535599,1135,2658,5
1779865333.53599,927,2101,5
1779865333.536082,1545,1912,5
1779865333.542238,1924,2088,5
1779865333.542704,1900,2075,5
1779865333.542898,1747,2154,5
1779865333.5430322,1895,2128,5
1779865333.5431192,1700,2271,5
1779865333.543217,2032,2038,5
1779865333.543283,2650,1895,5
1779865333.543346,2442,2263,5
1779865333.543509,2099,2193,5
1779865333.54378,2308,2167,5
1779865333.5438771,1906,2151,5
1779865333.5439801,1544,1974,5
1779865333.5441039,1864,2109,5
1779865333.54418,1866,2227,5
1779865333.544246,1700,2168,5
1779865333.544307,1935,2085,5
1779865333.5541918,2244,2102,5
1779865333.5602229,2216,2109,5
1779865333.5646179,2332,2002,5
1779865333.568105,2232,2138,5
1779865333.568288,2175,2169,5
1779865333.568408,1847,2381,5
1779865333.5684962,1864,2181,5
1779865333.568618,2249,2017,5
1779865333.5687108,2405,1967,5
1779865333.5688791,2040,2167,5
1779865333.579691,2089,2148,5
1779865333.580359,1956,1982,5
1779865333.5804548,1880,2188,5
1779865333.58052,1861,2320,5
1779865333.5807538,1967,2297,5
1779865333.580867,2082,2106,5
1779865333.581738,2097,2136,5
1779865333.5819619,2131,2166,5
1779865333.582382,2061,2215,5
1779865333.5845299,2221,2062,5
1779865333.585792,2203,2129,5
1779865333.5891478,1983,2223,5
1779865333.619306,1805,2254,5
1779865333.620078,2002,2069,5
1779865333.624778,1992,2074,5
1779865333.624865,2087,2045,5
1779865333.625721,2083,2033,5
1779865333.634479,1950,2069,5
1779865333.65274,1800,1957,5
1779865333.6529531,1848,2056,5
1779865333.653067,1871,2147,5
1779865333.653306,2169,2040,5
1779865333.653427,2398,1960,5
1779865333.653522,1998,2100,5
1779865333.653673,1657,2145,5
1779865333.653738,1820,2115,5
1779865333.653801,2037,2022,5
1779865333.653883,1945,2145,5
1779865333.653975,1739,2246,5
1779865333.654119,1807,2225,5
1779865333.6541948,2034,2016,5
1779865333.6542609,2084,2075,5
1779865333.654378,2062,2029,5
1779865333.654476,2069,2051,5
1779865333.65457,2150,1980,5
1779865333.654635,2134,2042,5
1779865333.654696,2047,2166,5
1779865333.654755,2138,2255,5
1779865333.6548119,2109,2212,5
1779865333.65487,2004,2121,5
1779865333.654928,2004,2130,5
1779865333.654989,1992,2144,5
1779865333.655294,2096,2070,5
1779865333.655783,2100,2095,5
1779865333.6558552,2039,2183,5
1779865333.655999,1935,2300,5
1779865333.658729,1986,2171,5
1779865333.6601589,2036,2075,5
1779865333.6686988,2135,2039,5
1779865333.673511,2181,2030,5
1779865333.687585,2235,2269,5
1779865333.691446,2075,2067,5
1779865333.692149,1985,2123,5
1779865333.692241,1978,2265,5
1779865333.692308,2023,2228,5
1779865333.692458,2075,2148,5
1779865333.692595,2081,2092,5
1779865333.692796,1979,2108,5
1779865333.692984,2006,2177,5
1779865333.693063,2107,2029,5
1779865333.693127,2128,2079,5
1779865333.693202,2105,2128,5
1779865333.693273,1938,2170,5
1779865333.6935139,1998,2053,5
1779865333.693846,2086,1968,5
1779865333.710343,2108,2021,5
1779865333.7179751,2052,2133,5
1779865333.723392,2063,2066,5
1779865333.723893,2049,2079,5
1779865333.724035,2000,2191,5
1779865333.724107,1956,2264,5
1779865333.7241678,2118,2142,5
1779865333.724371,2080,2072,5
1779865333.724469,2089,1972,5
1779865333.724538,2088,2091,5
1779865333.7246,2078,2082,5
1779865333.72469,2145,1905,5
1779865333.724797,2098,2016,5
1779865333.724925,2049,2142,5
1779865333.725016,2063,2098,5
1779865333.726475,2046,2023,5
1779865333.729006,2084,1933,5
1779865333.7311108,2135,1879,5
1779865333.732637,2082,1879,5
1779865333.734112,2050,1816,5
1779865333.763537,1946,1828,5
1779865333.76399,1930,1979,5
1779865333.7643049,1929,2029,5
1779865333.764528,1981,1886,5
1779865333.7648158,2025,1908,5
1779865333.7656078,2128,1969,5
1779865333.7661388,2142,2072,5
1779865333.771662,1983,1951,5
1779865333.771765,1787,2034,5
1779865333.772044,2027,2063,5
1779865333.772362,1980,2126,5
1779865333.772661,2190,2006,5
1779865333.7736099,2051,1957,5
1779865333.773699,2042,1991,5
1779865333.773772,2033,1949,5
1779865333.773841,1921,1890,5
1779865333.7739038,2288,1794,5
1779865333.773968,2404,1919,5
1779865333.774038,1836,2029,5
1779865333.7743108,1748,2037,5
1779865333.7922869,1918,2054,5
1779865333.802387,1774,2013,5
1779865333.802727,1863,2076,5
1779865333.803487,2192,2123,5
1779865333.8039958,2046,2020,5
1779865333.8093178,1895,1943,5
1779865333.809428,1947,2023,5
1779865333.809506,2089,2108,5
1779865333.809579,2270,2049,5
1779865333.80965,2305,1881,5
1779865333.8097222,2131,1934,5
1779865333.809797,2001,1981,5
1779865333.809869,2054,2011,5
1779865333.809945,2081,2114,5
1779865333.810019,1940,2136,5
1779865333.8100932,1850,2311,5
1779865333.810165,1941,2164,5
1779865333.8102348,1961,1890,5
1779865333.811743,2090,1815,5
1779865333.814595,1866,2144,5
1779865333.816213,2084,2531,5
1779865333.817618,2003,2129,5
1779865333.820621,2110,1876,5
1779865333.831681,1984,2178,5
1779865333.835809,2004,2219,5
1779865333.844218,1924,2009,5
1779865333.844766,2027,1676,5
1779865333.856392,1948,1457,5
1779865333.856517,1902,1772,5
1779865333.859474,2333,2140,5
1779865333.859626,2176,1848,5
1779865333.859705,1840,1845,5
1779865333.859775,2049,1881,5
1779865333.8598452,2493,1937,5
1779865333.859912,2417,2214,5
1779865333.859976,1697,2504,5
1779865333.860043,1737,1948,5
1779865333.86026,1991,1764,5
1779865333.860399,1821,1978,5
1779865333.86109,1826,2274,5
1779865333.873543,1908,2072,5
1779865333.8817122,1858,2182,5
1779865333.885335,2157,2095,5
1779865333.885707,2203,2185,5
1779865333.897245,2163,2011,5
1779865333.897602,2191,1988,5
1779865333.8977768,2274,1931,5
1779865333.897869,1877,1959,5
1779865333.898263,2023,2099,5
1779865333.899595,1926,2064,5
1779865333.899699,2203,1789,5
1779865333.90003,1938,1608,5
1779865333.9001532,2053,1878,5
1779865333.900424,1975,1892,5
1779865333.900533,1961,1528,5
1779865333.900609,2229,1928,5
1779865333.900831,2157,2368,5
1779865333.900911,2199,2059,5
1779865333.900985,2057,2031,5
1779865333.901303,2292,1935,5
1779865333.901546,1958,2036,5
1779865333.9017868,1755,2156,5
1779865333.9018722,1966,2014,5
1779865333.901948,1941,1994,5
1779865333.906942,1965,1922,5
1779865333.907806,2253,1953,5
1779865333.907995,2233,1857,5
1779865333.942956,2028,2055,5
1779865333.9430962,2086,1862,5
1779865333.9432268,2125,2105,5
1779865333.943308,2057,1973,5
1779865333.943685,2123,1948,5
1779865333.944036,2049,2062,5
1779865333.944444,1878,1995,5
1779865333.944544,1850,2061,5
1779865333.9446201,1766,2143,5
1779865333.944693,2208,2008,5
1779865333.944767,2130,2066,5
1779865333.94484,2072,1994,5
1779865333.944911,2253,1844,5
1779865333.945025,2100,2052,5
1779865333.945398,2017,2048,5
1779865333.945994,1946,2073,5
1779865333.965206,2021,1753,5
1779865333.976985,1812,1763,5
1779865333.981866,2245,2317,5
1779865333.9819798,2289,2138,5
1779865333.98205,2302,1842,5
1779865333.982343,2035,2001,5
1779865333.9824371,1899,2006,5
1779865333.9825542,1866,2146,5
1779865333.982673,2074,2309,5
1779865333.982761,2231,2001,5
1779865333.9828281,2267,1908,5
1779865333.9828942,2063,1964,5
1779865333.983011,1905,2166,5
1779865333.983087,1927,1989,5
1779865333.9831538,2060,1899,5
1779865333.9832141,2018,2146,5
1779865333.983273,2106,2231,5
1779865333.983331,1997,1995,5
1779865333.983389,1949,1900,5
1779865333.9834461,1938,1851,5
1779865333.983505,1938,1977,5
1779865333.9835641,1888,2015,5
1779865333.986505,2219,2172,5
1779865333.9879959,2385,2037,5
1779865333.99015,2172,2129,5
1779865333.99181,2338,2101,5
1779865334.002495,2380,2115,5
1779865334.009679,2452,2102,5
1779865334.013201,2360,2085,5
1779865334.0228338,1810,1946,5
1779865334.029984,1884,2091,5
1779865334.030379,2040,2103,5
1779865334.030488,1867,2027,5
1779865334.030564,1989,2076,5
1779865334.030627,2152,1885,5
1779865334.030734,2340,1909,5
1779865334.0308511,1974,2118,5
1779865334.030931,2102,2058,5
1779865334.0311239,2547,2003,5
1779865334.032485,2168,1863,5
1779865334.032601,1642,1661,5
1779865334.032783,1875,2098,5
1779865334.032928,3048,1942,5
1779865334.0330281,2276,2169,5
1779865334.033103,1706,1936,5
1779865334.03318,1883,1989,5
1779865334.042969,2392,2039,5
1779865334.062978,2346,2142,5
1779865334.063595,2437,2077,5
1779865334.064121,2340,1965,5
1779865334.068801,1539,2098,5
1779865334.069512,2205,2107,5
1779865334.069599,2902,1705,5
1779865334.069676,2287,2232,5
1779865334.06983,1955,2003,5
1779865334.070168,1611,1873,5
1779865334.0702379,1200,1875,5
1779865334.070302,1848,2056,5
1779865334.070373,1770,2124,5
1779865334.0704389,1569,1903,5
1779865334.0705018,1643,1956,5
1779865334.070566,1884,1547,5
1779865334.0706282,2130,2004,5
1779865334.070691,2346,2506,5
1779865334.070753,3120,2585,5
1779865334.072185,2765,1900,5
1779865334.0746508,2646,1884,5
1779865334.0761971,3276,2254,5
1779865334.077594,2218,2407,5
1779865334.090243,1368,2070,5
1779865334.094115,2813,1651,5
1779865334.097654,2059,2191,5
1779865334.102197,529,2248,5
1779865334.103474,903,2097,5
1779865334.111555,1842,2089,5
1779865334.112131,1977,2215,5
1779865334.112329,1823,2132,5
1779865334.1129951,1288,1973,5
1779865334.113468,1735,1968,5
1779865334.118793,2431,2149,5
1779865334.119338,2625,1870,5
1779865334.1194649,2728,2011,5
1779865334.119574,2068,2190,5
1779865334.1197178,2072,1882,5
1779865334.1198149,2069,2409,5
1779865334.119885,2079,1949,5
1779865334.119964,2057,2084,5
1779865334.120194,2179,1863,5
1779865334.120268,2420,1863,5
1779865334.1203358,2269,1955,5
1779865334.1218948,2100,1990,5
1779865334.123578,2040,2069,5
1779865334.134124,2125,2068,5
1779865334.135029,2026,2192,5
1779865334.1399329,2486,2018,5
1779865334.154123,2236,2022,5
1779865334.155033,2136,2124,5
1779865334.156309,2855,1900,5
1779865334.1567528,2684,2214,5
1779865334.162389,1602,2597,5
1779865334.162654,2538,1940,5
1779865334.162949,2037,2157,5
1779865334.16309,1887,2075,5
1779865334.16316,2009,1924,5
1779865334.1633139,3061,1547,5
1779865334.163528,2876,1990,5
1779865334.1636028,1619,2253,5
1779865334.163671,1757,2169,5
1779865334.1637352,2245,2024,5
1779865334.163799,2597,2105,5
1779865334.163873,2382,2293,5
1779865334.163954,2749,2068,5
1779865334.165946,2715,2086,5
1779865334.168937,2019,2333,5
1779865334.17041,2635,1912,5
1779865334.1897469,2100,2102,5
1779865334.201828,1816,2302,5
1779865334.202643,2361,1969,5
1779865334.209342,2374,1996,5
1779865334.209543,2397,2122,5
1779865334.2096791,1891,2440,5
1779865334.209758,1665,2406,5
1779865334.209824,2014,2077,5
1779865334.209905,3314,1620,5
1779865334.21023,2288,2431,5
1779865334.2103622,1648,2185,5
1779865334.210436,1492,1757,5
1779865334.210507,1888,1493,5
1779865334.210577,1705,1879,5
1779865334.210648,1914,1737,5
1779865334.210711,2094,2647,5
1779865334.2107751,2088,2654,5
1779865334.2108428,1931,2004,5
1779865334.210952,3007,2094,5
1779865334.211017,2892,2079,5
1779865334.212438,2641,2385,5
1779865334.230182,2209,2481,5
1779865334.237525,3230,1427,5
1779865334.238009,1570,2145,5
1779865334.2517388,1271,1865,5
1779865334.251999,1450,1899,5
1779865334.2520802,1667,1989,5
1779865334.2521532,1842,2013,5
1779865334.252226,1843,1832,5
1779865334.252427,1882,1845,5
1779865334.252616,1643,2019,5
1779865334.252703,1841,2129,5
1779865334.252775,2057,1863,5
1779865334.252841,2575,1993,5
1779865334.252905,2542,2291,5
1779865334.253134,2581,2302,5
1779865334.25321,2345,2182,5
1779865334.253365,1273,2210,5
1779865334.253527,1547,2161,5
1779865334.253681,2446,2021,5
1779865334.253749,2016,2273,5
1779865334.2538161,1369,2158,5
1779865334.2572649,1567,2346,5
1779865334.258788,1724,2366,5
1779865334.2602172,1870,2307,5
1779865334.269723,2214,2502,5
1779865334.277559,2312,2505,5
1779865334.27822,2105,2465,5
1779865334.281701,2022,2190,5
1779865334.2919848,2130,1988,5
1779865334.2973912,1980,2340,5
1779865334.2974982,1679,2166,5
1779865334.297568,1844,2024,5
1779865334.297633,2014,2162,5
1779865334.297698,1962,2117,5
1779865334.297765,1938,2176,5
1779865334.297834,1982,2233,5
1779865334.298017,2000,1973,5
1779865334.2981398,1879,1948,5
1779865334.29822,1805,2295,5
1779865334.2982929,1958,2275,5
1779865334.298629,1952,2047,5
1779865334.29872,2026,1904,5
1779865334.299359,1901,2105,5
1779865334.2994401,1968,2003,5
1779865334.333269,2074,2162,5
1779865334.333524,1967,2293,5
1779865334.333602,1714,2231,5
1779865334.333666,1936,2147,5
1779865334.333743,1948,2250,5
1779865334.333846,2157,2136,5
1779865334.333907,1995,2254,5
1779865334.3339672,1985,2177,5
1779865334.334026,1696,1865,5
1779865334.334771,1869,2215,5
1779865334.33492,2260,2577,5
1779865334.334988,1879,2153,5
1779865334.335052,1928,1924,5
1779865334.335168,2085,2128,5
1779865334.335294,1986,2153,5
1779865334.3353631,2257,2160,5
1779865334.33569,2031,2129,5
1779865334.335872,1619,2090,5
1779865334.338152,1782,2234,5
1779865334.389976,1905,2394,5
1779865334.3901088,1964,2113,5
1779865334.390194,1829,2123,5
1779865334.39027,1847,2095,5
1779865334.3903449,1571,2074,5
1779865334.3904178,1785,2044,5
1779865334.390552,1997,2051,5
1779865334.3906271,2356,2440,5
1779865334.390698,2280,2285,5
1779865334.390769,1805,2363,5
1779865334.390969,1746,2220,5
1779865334.391098,2025,2011,5
1779865334.391246,1871,1797,5
1779865334.391335,2155,2238,5
1779865334.3914711,2183,2315,5
1779865334.391623,2068,1909,5
1779865334.391829,1955,1887,5
1779865334.391925,2342,1914,5
1779865334.392,2118,1755,5
1779865334.392071,2175,2053,5
1779865334.3921359,2188,2290,5
1779865334.3921978,2002,1981,5
1779865334.392258,1596,1716,5
1779865334.392333,1754,1973,5
1779865334.392405,2063,2349,5
1779865334.3924851,1906,2040,5
1779865334.392546,1784,1936,5
1779865334.3944771,1931,2148,5
1779865334.416427,2277,2071,5
1779865334.4314759,2539,2264,5
1779865334.431593,2303,2142,5
1779865334.431735,2104,1812,5
1779865334.431822,1952,2050,5
1779865334.431911,1854,2250,5
1779865334.4319942,1788,2265,5
1779865334.4320571,1977,2054,5
1779865334.4321191,2199,2198,5
1779865334.432226,1909,2177,5
1779865334.432288,1809,1956,5
1779865334.432348,1677,1819,5
1779865334.432408,1697,2077,5
1779865334.432468,2231,2631,5
1779865334.432564,2220,2271,5
1779865334.432634,2169,1977,5
1779865334.432697,2034,2129,5
1779865334.432757,2518,2202,5
1779865334.433436,2387,2272,5
1779865334.433515,2199,2278,5
1779865334.447507,2194,2131,5
1779865334.4509299,2003,2105,5
1779865334.457611,1915,2049,5
1779865334.46785,2102,1848,5
1779865334.469928,1856,1749,5
1779865334.470676,1785,2102,5
1779865334.470757,1848,2067,5
1779865334.470824,1595,2089,5
1779865334.470888,2000,2181,5
1779865334.4710069,2410,2333,5
1779865334.474421,2155,2134,5
1779865334.475084,2010,1895,5
1779865334.4751801,2241,2077,5
1779865334.4752572,2093,2151,5
1779865334.47533,2006,2059,5
1779865334.475401,2725,2245,5
1779865334.4755788,2383,2152,5
1779865334.475669,2064,1924,5
1779865334.47574,1841,2133,5
1779865334.475803,1563,2204,5
1779865334.475898,2160,2293,5
1779865334.477418,2431,2241,5
1779865334.480234,2256,2205,5
1779865334.496149,1865,2024,5
1779865334.502841,2230,1917,5
1779865334.509656,2159,1972,5
1779865334.5104,2038,2069,5
1779865334.510946,1980,2131,5
1779865334.51641,1768,2082,5
1779865334.5166411,2132,1979,5
1779865334.516997,2289,2148,5
1779865334.517081,1635,2063,5
1779865334.517175,1590,1962,5
1779865334.5172632,2165,2119,5
1779865334.51733,2320,2186,5
1779865334.517396,2241,2267,5
1779865334.517465,2074,2076,5
1779865334.517529,2256,2206,5
1779865334.517643,2169,2088,5
1779865334.5177312,2225,2083,5
1779865334.517807,2334,2371,5
1779865334.517879,2067,2068,5
1779865334.51943,2088,1675,5
1779865334.5430589,2024,2040,5
1779865334.550414,1867,2072,5
1779865334.554568,2198,2015,5
1779865334.5559528,2126,1811,5
1779865334.556332,1823,1832,5
1779865334.556618,1914,1998,5
1779865334.5567,2291,2191,5
1779865334.557009,2293,2012,5
1779865334.557272,1961,1904,5
1779865334.5575,2007,2142,5
1779865334.557601,2080,2381,5
1779865334.557686,2249,2170,5
1779865334.557769,2053,1990,5
1779865334.5578449,2038,1946,5
1779865334.5579169,2020,2026,5
1779865334.558014,1827,1874,5
1779865334.558099,2092,1990,5
1779865334.55817,1881,2107,5
1779865334.5582411,1756,2056,5
1779865334.559638,2233,1937,5
1779865334.5625548,2215,1794,5
1779865334.564047,1841,1651,5
1779865334.577136,2005,2071,5
1779865334.594966,2296,2142,5
1779865334.596259,2210,1920,5
1779865334.601727,2004,1989,5
1779865334.601963,2236,2153,5
1779865334.60205,2056,2331,5
1779865334.602119,1939,2249,5
1779865334.6021829,2012,2113,5
1779865334.602247,2105,2111,5
1779865334.602314,2227,1909,5
1779865334.6023848,2136,1971,5
1779865334.602531,1966,2145,5
1779865334.6027288,2055,2310,5
1779865334.603102,2161,2155,5
1779865334.6033669,2158,1945,5
1779865334.603461,1992,2017,5
1779865334.603543,2017,1999,5
1779865334.603617,1856,2008,5
1779865334.60373,1989,2010,5
1779865334.603812,1947,2006,5
1779865334.605817,1749,2065,5
1779865334.6167412,1744,2047,5
1779865334.6199229,1815,1897,5
1779865334.6299992,2105,2082,5
1779865334.6375282,2188,2223,5
1779865334.637975,2319,2106,5
1779865334.643688,2285,2045,5
1779865334.643928,2148,2218,5
1779865334.644114,1918,2229,5
1779865334.644213,1917,2207,5
1779865334.644366,2278,1991,5
1779865334.644508,2326,1900,5
1779865334.644593,1919,1987,5
1779865334.644673,1800,2094,5
1779865334.644806,2035,2079,5
1779865334.645,2080,2080,5
1779865334.645277,1926,2111,5
1779865334.645508,1948,2238,5
1779865334.645662,1980,2205,5
1779865334.6457448,2107,2181,5
1779865334.645814,2063,2074,5
1779865334.647331,1987,1977,5
1779865334.650221,1982,2000,5
1779865334.652106,2079,2023,5
1779865334.653436,2015,1948,5
1779865334.665785,2049,2177,5
1779865334.668822,2298,2162,5
1779865334.6761239,2084,2030,5
1779865334.677595,1968,1993,5
1779865334.680468,1982,2055,5
1779865334.686996,2010,2140,5
1779865334.688763,2024,2045,5
1779865334.692891,1956,2000,5
1779865334.6946099,2042,2046,5
1779865334.694753,2044,2046,5
1779865334.694908,1990,2093,5
1779865334.695136,2071,2146,5
1779865334.695333,2029,2066,5
1779865334.6954298,2187,2066,5
1779865334.695544,2308,2058,5
1779865334.695745,2189,2083,5
1779865334.695918,1977,2004,5
1779865334.695998,1966,2143,5
1779865334.696069,1995,2267,5
1779865334.696136,1864,2046,5
1779865334.6962051,1937,1922,5
1779865334.6976461,1948,2057,5
1779865334.713652,1943,2083,5
1779865334.714308,1997,1994,5
1779865334.71472,1935,1952,5
1779865334.7219148,1935,2007,5
1779865334.729264,2028,1981,5
1779865334.7340102,2157,1916,5
1779865334.73615,2467,1769,5
1779865334.736367,2558,1845,5
1779865334.736546,2606,2019,5
1779865334.7368379,1664,2121,5
1779865334.736939,1555,1970,5
1779865334.737013,1823,1958,5
1779865334.737237,1928,2103,5
1779865334.7373881,1916,2020,5
1779865334.737469,1892,1995,5
1779865334.73756,1906,1948,5
1779865334.737705,1948,2004,5
1779865334.7379131,2068,1959,5
1779865334.7380428,2184,1912,5
1779865334.738231,2182,2028,5
1779865334.740787,2191,2091,5
1779865334.742199,2180,2068,5
1779865334.7436109,2166,2013,5
1779865334.7563221,2091,1964,5
1779865334.761517,2078,1959,5
1779865334.762177,2048,2111,5
1779865334.777493,2079,2020,5
1779865334.778155,2209,1944,5
1779865334.778825,2199,2051,5
1779865334.779852,2266,1980,5
1779865334.7803469,2049,2163,5
1779865334.784776,1791,2236,5
1779865334.785392,1815,2017,5
1779865334.7854779,1999,2041,5
1779865334.7855449,2048,2018,5
1779865334.785614,1983,2060,5
1779865334.785676,1927,2132,5
1779865334.7858078,1972,2007,5
1779865334.785882,2054,1915,5
1779865334.7859478,2107,1754,5
1779865334.786035,2129,1739,5
1779865334.7861161,2097,1757,5
1779865334.786209,2115,1740,5
1779865334.786274,2104,1749,5
1779865334.7879019,2042,1937,5
1779865334.797461,2014,2053,5
1779865334.8088908,2065,2078,5
1779865334.815488,2074,2031,5
1779865334.816876,2117,1927,5
1779865334.817419,2198,2155,5
1779865334.823307,2176,2013,5
1779865334.8234172,2142,2072,5
1779865334.823487,2099,1977,5
1779865334.823798,2058,2153,5
1779865334.82395,2035,2144,5
1779865334.824033,1998,2081,5
1779865334.824188,2126,2026,5
1779865334.8244128,1964,1941,5
1779865334.8247108,1917,2001,5
1779865334.8248792,2152,1949,5
1779865334.825001,2139,1962,5
1779865334.825166,2123,2076,5
1779865334.8253171,2024,2094,5
1779865334.825391,2053,1979,5
1779865334.8280802,2063,1909,5
1779865334.82954,2091,2012,5
1779865334.832279,2076,2219,5
1779865334.8428512,2074,2198,5
1779865334.8440561,2012,2054,5
1779865334.845109,1963,2133,5
1779865334.8488178,1901,2178,5
1779865334.853069,2000,2220,5
1779865334.8623219,2094,2218,5
1779865334.863348,2153,2252,5
1779865334.864477,2049,2328,5
1779865334.865023,2020,2299,5
1779865334.8693,2182,2208,5
1779865334.869907,2018,2196,5
1779865334.869997,2009,2259,5
1779865334.8700879,2102,2279,5
1779865334.8702562,2104,2167,5
1779865334.870328,2139,2152,5
1779865334.8703942,2119,2027,5
1779865334.870511,2043,2057,5
1779865334.870682,2109,2098,5
1779865334.87075,2134,2156,5
1779865334.872221,2024,2288,5
1779865334.874228,1971,2372,5
1779865334.881875,2072,2290,5
1779865334.8846972,2078,2309,5
1779865334.8851142,2053,2280,5
1779865334.885219,2001,2254,5
1779865334.8853009,2073,2157,5
1779865334.885379,2102,2147,5
1779865334.889498,2069,2178,5
1779865334.8901691,1971,2187,5
1779865334.8945322,2062,2242,5
1779865334.894909,2061,2252,5
1779865334.897751,2125,2208,5
1779865334.908663,2084,2182,5
1779865334.909965,2046,2226,5
1779865334.910052,2083,2186,5
1779865334.9101272,2008,2131,5
1779865334.910332,2029,2208,5
1779865334.91041,1972,2410,5
1779865334.910487,2107,2055,5
1779865334.91204,2113,2022,5
1779865334.9135768,2123,1977,5
1779865334.915164,2091,1980,5
1779865334.9176462,2104,1892,5
1779865334.930613,2052,1910,5
1779865334.9328482,1968,2011,5
1779865334.934121,1968,1987,5
1779865334.9376059,2083,1950,5
1779865334.942792,2056,1975,5
1779865334.9457111,2068,2017,5
1779865334.9520981,2083,2104,5
1779865334.953076,2092,2091,5
1779865334.954061,2092,1962,5
1779865334.95996,2013,1949,5
1779865334.960063,2013,2070,5
1779865334.960366,2075,2160,5
1779865334.960653,2206,2066,5
1779865334.9607859,2220,2001,5
1779865334.960869,2106,1885,5
1779865334.960938,2027,2020,5
1779865334.9610062,2079,1948,5
1779865334.96107,2116,2055,5
1779865334.961132,2042,2029,5
1779865334.961195,2022,2213,5
1779865334.9612641,2041,2134,5
1779865334.961333,2024,2003,5
1779865334.9741068,2038,2049,5
1779865334.978726,2044,2142,5
1779865334.9861178,2070,2083,5
1779865334.993053,1992,1898,5
1779865334.998976,1920,1926,5
1779865334.999251,1915,1992,5
1779865334.9994009,2021,1666,5
1779865334.999562,1980,1723,5
1779865334.999713,1988,1612,5
1779865335.000044,1977,1673,5
1779865335.000223,2102,1891,5
1779865335.0007071,2253,1910,5
1779865335.00087,2070,1897,5
1779865335.001057,1873,2130,5
1779865335.0013409,1871,1959,5
1779865335.0015512,1901,1680,5
1779865335.001765,1942,1810,5
1779865335.001845,2081,2008,5
1779865335.0019178,2116,1842,5
1779865335.0019898,2003,1947,5
1779865335.0034509,2186,1996,5
1779865335.0063748,2078,2003,5
1779865335.008681,2032,1876,5
1779865335.020323,1911,1947,5
1779865335.046005,2056,2014,5
1779865335.046769,2081,1901,5
1779865335.046871,1946,1945,5
1779865335.047168,1944,1963,5
1779865335.0472682,1857,2036,5
1779865335.047339,1909,1943,5
1779865335.047412,1928,2043,5
1779865335.04751,2166,2125,5
1779865335.0476959,2088,2186,5
1779865335.04777,2010,2119,5
1779865335.047838,1966,2208,5
1779865335.047911,2058,2122,5
1779865335.047977,2135,2125,5
1779865335.0481222,1987,2105,5
1779865335.048206,1960,2399,5
1779865335.048321,2074,2313,5
1779865335.048393,2104,2205,5
1779865335.04847,2137,1985,5
1779865335.048532,2082,1891,5
1779865335.0499752,1869,2070,5
1779865335.0612311,2157,2178,5
1779865335.076232,2003,2060,5
1779865335.076876,1907,2121,5
1779865335.077525,1942,2191,5
1779865335.08232,2081,2009,5
1779865335.082855,1967,1821,5
1779865335.082984,2200,2067,5
1779865335.083085,1998,2326,5
1779865335.0831518,1937,1764,5
1779865335.083216,2099,1972,5
1779865335.083283,2005,2195,5
1779865335.083379,1759,2097,5
1779865335.083471,2082,1984,5
1779865335.083534,2067,2086,5
1779865335.083626,2038,1964,5
1779865335.083692,2078,1881,5
1779865335.083789,1887,2346,5
1779865335.085143,2269,2426,5
1779865335.0876732,2154,2460,5
1779865335.090862,1976,2179,5
1779865335.0922859,2053,2132,5
1779865335.0942562,2140,2090,5
1779865335.1032581,2169,2087,5
1779865335.105233,2095,1952,5
1779865335.110064,1924,1877,5
1779865335.113139,1994,1865,5
1779865335.114528,2154,1843,5
1779865335.114709,1941,1934,5
1779865335.1176589,1869,2049,5
1779865335.118031,1961,2093,5
1779865335.11821,2083,2109,5
1779865335.118523,2168,2111,5
1779865335.124458,2065,2116,5
1779865335.125412,2109,1976,5
1779865335.129409,1956,1888,5
1779865335.130433,1891,1911,5
1779865335.1308758,1942,2114,5
1779865335.1315682,2088,2136,5
1779865335.131721,2112,2123,5
1779865335.131797,2127,2091,5
1779865335.131867,1997,2056,5
1779865335.1333,2038,1942,5
1779865335.143702,2045,1922,5
1779865335.146837,2120,2166,5
1779865335.1510851,2030,2189,5
1779865335.151854,2052,2194,5
1779865335.158575,2131,2095,5
1779865335.169375,2071,2136,5
1779865335.169497,2023,2093,5
1779865335.169589,2026,2029,5
1779865335.169833,2152,2001,5
1779865335.169916,1997,2101,5
1779865335.169995,2046,2077,5
1779865335.170062,2055,2125,5
1779865335.170198,1932,2016,5
1779865335.170264,1891,2014,5
1779865335.170325,2105,2154,5
1779865335.170474,2124,2295,5
1779865335.174448,2180,2052,5
1779865335.1746528,2056,2105,5
1779865335.174748,1987,2137,5
1779865335.174824,1998,2091,5
1779865335.1762571,2085,2097,5
1779865335.177674,2115,2183,5
1779865335.179075,2091,2194,5
1779865335.191796,2037,2209,5
1779865335.193056,2095,2240,5
1779865335.1969721,2125,2296,5
1779865335.200617,2018,2309,5
1779865335.201729,1972,2250,5
1779865335.2102988,1996,2263,5
1779865335.211197,2093,2163,5
1779865335.211818,2172,2069,5
1779865335.2155352,2070,2080,5
1779865335.217364,2043,2097,5
1779865335.2174459,2031,2046,5
1779865335.217512,2014,2134,5
1779865335.217574,1928,2319,5
1779865335.2176378,1987,2405,5
1779865335.217698,2110,2287,5
1779865335.217758,2063,2228,5
1779865335.217818,2081,2189,5
1779865335.217877,1951,2220,5
1779865335.217938,1959,2287,5
1779865335.21933,2138,2505,5
1779865335.231882,2178,2556,5
1779865335.233087,2011,2616,5
1779865335.234046,2074,2601,5
1779865335.241493,2092,2477,5
1779865335.2443058,2109,2506,5
1779865335.244894,2075,2443,5
1779865335.247756,2062,2373,5
1779865335.2478662,2040,2309,5
1779865335.247952,1994,2217,5
1779865335.248296,1961,2083,5
1779865335.251059,2002,2057,5
1779865335.251523,2045,2090,5
1779865335.252424,2123,2196,5
1779865335.258092,2081,2185,5
1779865335.258231,2073,2155,5
1779865335.258372,2111,1996,5
1779865335.258543,2025,2034,5
1779865335.2586648,2027,2157,5
1779865335.258817,2032,2258,5
1779865335.259039,2082,2191,5
1779865335.261821,2084,2129,5
1779865335.263196,2085,2190,5
1779865335.266228,2082,2350,5
1779865335.2680378,2085,2238,5
1779865335.2802718,2065,2197,5
1779865335.2835462,2044,2246,5
1779865335.296025,2038,2286,5
1779865335.2969222,2051,2236,5
1779865335.301754,2059,2226,5
1779865335.301903,2062,2262,5
1779865335.301984,2035,2187,5
1779865335.302058,2105,2164,5
1779865335.302131,2080,2157,5
1779865335.3022048,1998,2206,5
1779865335.302998,1975,2298,5
1779865335.303246,2030,2265,5
1779865335.303458,2068,2139,5
1779865335.3045819,2077,2019,5
1779865335.304825,2044,2045,5
1779865335.304961,2027,2096,5
1779865335.3050282,2130,2022,5
1779865335.3051531,2050,2059,5
1779865335.305263,1996,2120,5
1779865335.307128,2003,2129,5
1779865335.3146071,2068,2096,5
1779865335.320915,2116,2064,5
1779865335.32169,2094,2054,5
1779865335.328502,2024,2113,5
1779865335.3291981,2101,2043,5
1779865335.3347032,2096,2021,5
1779865335.335862,2044,2086,5
1779865335.336216,1986,2143,5
1779865335.3410702,2026,2107,5
1779865335.341171,2105,2103,5
1779865335.341238,2075,2051,5
1779865335.3413582,2015,2073,5
1779865335.341542,2081,2116,5
1779865335.341738,2094,2074,5
1779865335.341821,2003,2137,5
1779865335.3418891,1968,2243,5
1779865335.341952,2096,2177,5
1779865335.3432949,2101,2024,5
1779865335.345942,2066,2027,5
1779865335.347627,2093,2086,5
1779865335.349021,1962,2032,5
1779865335.359189,2172,2009,5
1779865335.367991,2166,2069,5
1779865335.377412,2067,2108,5
1779865335.3784058,1917,2145,5
1779865335.379322,2036,2107,5
1779865335.3830981,2082,2040,5
1779865335.384025,2119,1977,5
1779865335.3841221,2069,2022,5
1779865335.3841999,2110,1952,5
1779865335.384277,2088,1974,5
1779865335.384354,2027,2031,5
1779865335.3844259,1969,2093,5
1779865335.384497,2102,2102,5
1779865335.3845718,2110,2061,5
1779865335.384647,2048,2053,5
1779865335.3847208,1971,2028,5
1779865335.384792,2033,2024,5
1779865335.386189,2106,1992,5
1779865335.388381,2020,2043,5
1779865335.399446,1952,2123,5
1779865335.407537,1967,2091,5
1779865335.4111118,2034,1973,5
1779865335.411716,2080,1989,5
1779865335.417398,2027,2012,5
1779865335.417985,2089,2071,5
1779865335.418677,2132,2127,5
1779865335.423399,2077,2186,5
1779865335.4235032,1955,2241,5
1779865335.423583,1979,2304,5
1779865335.423697,2107,2201,5
1779865335.4239109,2148,2184,5
1779865335.4239821,2114,2109,5
1779865335.424045,2026,2192,5
1779865335.424109,2152,2168,5
1779865335.424191,2129,2018,5
1779865335.424308,2032,2123,5
1779865335.424435,1972,2187,5
1779865335.425805,2033,2144,5
1779865335.4271019,2061,2109,5
1779865335.429791,2053,2156,5
1779865335.43132,2055,2089,5
1779865335.444798,2085,2091,5
1779865335.448601,2058,2078,5
1779865335.461775,1973,2120,5
1779865335.4659069,1962,2195,5
1779865335.467384,2055,2195,5
1779865335.467469,2128,2106,5
1779865335.4676201,2127,2037,5
1779865335.46769,2080,1999,5
1779865335.467755,2016,2030,5
1779865335.467819,2082,1952,5
1779865335.467881,2074,2004,5
1779865335.467944,2012,2100,5
1779865335.468087,2007,2192,5
1779865335.4681542,2132,2051,5
1779865335.468218,2098,2059,5
1779865335.46828,2096,2104,5
1779865335.468349,2047,2098,5
1779865335.468414,2074,2061,5
1779865335.4700181,2060,2003,5
1779865335.471711,1959,2081,5
1779865335.483042,1951,2109,5
1779865335.491712,2008,2106,5
1779865335.4999528,1967,1982,5
1779865335.500382,2046,2044,5
1779865335.501195,2054,2077,5
1779865335.507246,2088,2032,5
1779865335.507547,2033,1989,5
1779865335.507769,2013,2062,5
1779865335.507939,2058,2261,5
1779865335.5081222,2085,2130,5
1779865335.508218,2141,2042,5
1779865335.508364,2131,2078,5
1779865335.508589,2026,2090,5
1779865335.508773,2051,2113,5
1779865335.508961,2124,2044,5
1779865335.509037,1979,2075,5
1779865335.509109,2010,2129,5
1779865335.509181,2025,2183,5
1779865335.5092611,2128,2140,5
1779865335.512199,2044,2130,5
1779865335.513526,2014,2170,5
1779865335.514943,2002,2213,5
1779865335.528799,2108,2174,5
1779865335.535528,2219,2247,5
1779865335.535806,1923,2187,5
1779865335.5410361,1833,2313,5
1779865335.541431,2062,2304,5
1779865335.546718,2103,2284,5
1779865335.547332,2158,2104,5
1779865335.5478022,2129,2032,5
1779865335.5487082,2135,2155,5
1779865335.553854,2088,2091,5
1779865335.55778,2000,2218,5
1779865335.558236,1758,2242,5
1779865335.558681,1839,2221,5
1779865335.575884,1977,2161,5
1779865335.5766048,2221,2119,5
1779865335.5817971,2131,2121,5
1779865335.590915,2053,2129,5
1779865335.596249,1972,1963,5
1779865335.596562,2176,1946,5
1779865335.596724,2181,2250,5
1779865335.59686,2196,2264,5
1779865335.5969338,2282,2130,5
1779865335.596997,1959,2024,5
1779865335.597058,1928,2095,5
1779865335.597125,1891,2144,5
1779865335.597471,2018,2109,5
1779865335.597667,2043,2075,5
1779865335.597774,1993,2220,5
1779865335.597855,1995,2121,5
1779865335.598022,2283,1942,5
1779865335.5981271,2336,2130,5
1779865335.598271,2270,2030,5
1779865335.59835,2000,2144,5
1779865335.598423,1723,2173,5
1779865335.598486,1958,2013,5
1779865335.598551,1933,2014,5
1779865335.598612,2042,2121,5
1779865335.5986931,2353,2170,5
1779865335.598779,2288,1995,5
1779865335.598856,1773,2048,5
1779865335.5989199,1524,2129,5
1779865335.598988,2686,1960,5
1779865335.6017358,2777,1772,5
1779865335.6031208,2026,2078,5
1779865335.607596,1984,2222,5
1779865335.617719,1788,2338,5
1779865335.626545,2466,2157,5
1779865335.6266618,3701,1699,5
1779865335.626752,1359,2399,5
1779865335.6316621,1089,2241,5
1779865335.6372721,1417,2007,5
1779865335.642376,1616,2112,5
1779865335.642991,1949,2272,5
1779865335.64319,2231,2192,5
1779865335.643371,1896,2229,5
1779865335.64345,1506,2491,5
1779865335.6435149,1709,2196,5
1779865335.643584,2371,2101,5
1779865335.643658,2553,2078,5
1779865335.64375,2185,2280,5
1779865335.643826,2045,2462,5
1779865335.64389,1769,2314,5
1779865335.6439931,1672,2294,5
1779865335.644094,1839,2112,5
1779865335.6455748,1982,2164,5
1779865335.647281,2110,2208,5
1779865335.6628108,2165,2225,5
1779865335.663265,2330,2316,5
1779865335.667653,2244,2197,5
1779865335.670642,2077,2267,5
1779865335.68146,1925,2310,5
1779865335.681655,2015,2243,5
1779865335.681748,2023,2126,5
1779865335.6823502,2093,2099,5
1779865335.682503,2213,2091,5
1779865335.682584,2182,2003,5
1779865335.682749,2100,1972,5
1779865335.682904,2122,2074,5
1779865335.682966,1958,2139,5
1779865335.683027,2014,2010,5
1779865335.6830888,2115,2150,5
1779865335.683149,1969,2026,5
1779865335.6832142,1962,2045,5
1779865335.683276,2098,1940,5
1779865335.686037,2064,1978,5
1779865335.6875362,1935,1899,5
1779865335.689339,1981,1998,5
1779865335.691149,2077,2017,5
1779865335.7023711,1988,1937,5
1779865335.7035468,2130,1860,5
1779865335.7131362,2018,1769,5
1779865335.717417,2095,1725,5
1779865335.717966,2013,2016,5
1779865335.723555,2130,1902,5
1779865335.7290618,2196,1897,5
1779865335.730485,2003,2045,5
1779865335.7306628,2022,2101,5
1779865335.730755,1867,1833,5
1779865335.730826,1919,1832,5
1779865335.730934,2449,1939,5
1779865335.731074,2403,1967,5
1779865335.731182,2151,1992,5
1779865335.7312472,1872,2155,5
1779865335.731309,1830,2268,5
1779865335.731453,2318,2180,5
1779865335.731519,2155,2193,5
1779865335.731612,1880,1989,5
1779865335.731689,1964,1855,5
1779865335.733052,1926,2054,5
1779865335.735005,2070,2085,5
1779865335.7451231,1914,2136,5
1779865335.7503328,2053,2211,5
1779865335.762509,2017,2040,5
1779865335.768197,2277,1967,5
1779865335.7689369,2206,2105,5
1779865335.769025,1977,2203,5
1779865335.7692149,2136,2192,5
1779865335.769449,2126,2163,5
1779865335.769568,2158,2071,5
1779865335.769869,2473,2091,5
1779865335.769983,2291,2176,5
1779865335.7702022,2149,2101,5
1779865335.77029,2391,2155,5
1779865335.7708411,2214,2178,5
1779865335.773111,2036,2229,5
1779865335.7732322,2149,2160,5
1779865335.77331,2178,2067,5
1779865335.7735848,2067,2063,5
1779865335.773799,1805,2226,5
1779865335.7752929,1659,2397,5
1779865335.777994,2012,2306,5
1779865335.779542,1894,2200,5
1779865335.796028,2176,2414,5
1779865335.796927,2298,2424,5
1779865335.801253,2024,2272,5
1779865335.810426,1605,2389,5
1779865335.811136,1978,2438,5
1779865335.8163881,2058,2496,5
1779865335.8164968,1914,2421,5
1779865335.816566,1990,2303,5
1779865335.816639,1842,2104,5
1779865335.816712,1909,2177,5
1779865335.816779,2278,2374,5
1779865335.816841,2322,2328,5
1779865335.81707,2093,2323,5
1779865335.817139,2095,2363,5
1779865335.8172019,1896,2176,5
1779865335.8172631,1995,2197,5
1779865335.817323,1988,2186,5
1779865335.8173819,1932,2210,5
1779865335.817573,2041,2031,5
1779865335.819063,1849,1858,5
1779865335.835694,1794,2094,5
1779865335.848392,1881,2424,5
1779865335.849337,1686,2025,5
1779865335.8503869,1788,1903,5
1779865335.851146,2244,2317,5
1779865335.851733,2150,2633,5
1779865335.857295,2302,2072,5
1779865335.857592,2037,1950,5
1779865335.857934,1905,2001,5
1779865335.8580348,1939,2177,5
1779865335.8581078,2149,2581,5
1779865335.8581839,2001,2220,5
1779865335.858258,1803,1980,5
1779865335.8583941,1979,2176,5
1779865335.858561,2104,2106,5
1779865335.858656,2094,2020,5
1779865335.858776,2040,2098,5
1779865335.8588579,1993,2211,5
1779865335.8589308,2213,2573,5
1779865335.8590012,2165,2463,5
1779865335.861737,2148,2228,5
1779865335.863322,2223,1988,5
1779865335.866097,2034,1926,5
1779865335.875654,1785,2248,5
1779865335.880985,1700,2323,5
1779865335.8850718,1984,2276,5
1779865335.898946,1915,2073,5
1779865335.8996632,1845,1753,5
1779865335.904156,1782,1998,5
1779865335.906765,2383,2371,5
1779865335.906955,2200,2411,5
1779865335.907053,2213,2169,5
1779865335.907137,2072,2163,5
1779865335.907222,1888,2264,5
1779865335.907288,2246,2392,5
1779865335.907352,2396,2312,5
1779865335.907416,2385,2081,5
1779865335.90748,2195,1962,5
1779865335.9076018,1832,1946,5
1779865335.907711,1992,1884,5
1779865335.907785,2094,1795,5
1779865335.907858,2033,2054,5
1779865335.907924,2019,2122,5
1779865335.9080582,2088,2253,5
1779865335.909526,1889,2088,5
1779865335.9210272,1801,1973,5
1779865335.9269,2091,1979,5
1779865335.933289,2200,2064,5
1779865335.943309,2074,2021,5
1779865335.945027,1870,2093,5
1779865335.945148,1617,2055,5
1779865335.945225,1550,2122,5
1779865335.945656,2386,2135,5
1779865335.945795,2399,2016,5
1779865335.94601,1731,1852,5
1779865335.946151,1950,2318,5
1779865335.946259,2098,2276,5
1779865335.946329,2484,1818,5
1779865335.9464068,2091,1810,5
1779865335.946473,2172,2176,5
1779865335.9466949,2161,2487,5
1779865335.946815,1972,2158,5
1779865335.946882,2068,1938,5
1779865335.9469461,2265,1959,5
1779865335.9494479,2010,2175,5
1779865335.95107,1931,2067,5
1779865335.952805,1970,2000,5
1779865335.984113,1950,2090,5
1779865335.993218,1979,2155,5
1779865335.994379,1883,2073,5
1779865336.00129,1817,2082,5
1779865336.010311,1974,1910,5
1779865336.027332,2125,1956,5
1779865336.027869,2316,1931,5
1779865336.0279639,1976,1922,5
1779865336.028041,1864,2317,5
1779865336.028116,1982,2317,5
1779865336.028186,2435,1929,5
1779865336.0282571,2182,1859,5
1779865336.02849,1919,1800,5
1779865336.028747,1994,2233,5
1779865336.028831,2079,2015,5
1779865336.0290911,1925,1752,5
1779865336.0291579,1969,1844,5
1779865336.029228,2119,2212,5
1779865336.0292869,1944,2399,5
1779865336.0293481,1727,1844,5
1779865336.0294468,2157,1877,5
1779865336.029516,2440,2283,5
1779865336.029579,2157,2348,5
1779865336.029639,2009,1944,5
1779865336.029702,2152,1948,5
1779865336.0297658,2235,2113,5
1779865336.029829,2242,2283,5
1779865336.029889,2079,2024,5
1779865336.029957,2011,1801,5
1779865336.030026,2084,1875,5
1779865336.030122,1888,1689,5
1779865336.030215,1633,1460,5
1779865336.0302908,1880,2159,5
1779865336.030355,2232,2107,5
1779865336.030417,2157,2144,5
1779865336.030737,2100,1993,5
1779865336.030848,2356,1953,5
1779865336.030918,2279,2003,5
1779865336.0309918,2226,2224,5
1779865336.033957,2057,2230,5
1779865336.0354419,2140,1845,5
1779865336.036818,2081,1697,5
1779865336.067344,2097,2157,5
1779865336.0687842,2203,2204,5
1779865336.0694022,1887,2133,5
1779865336.069998,2132,1993,5
1779865336.075058,2092,2155,5
1779865336.0751731,2253,2171,5
1779865336.075297,2342,2080,5
1779865336.075402,1874,2124,5
1779865336.075486,1714,2217,5
1779865336.075627,2035,2060,5
1779865336.0757802,2968,2248,5
1779865336.075903,3874,2236,5
1779865336.07603,3153,1870,5
1779865336.0761101,1706,1579,5
1779865336.07618,778,2552,5
1779865336.076257,1392,2302,5
1779865336.076362,1854,2211,5
1779865336.076475,2769,1488,5
1779865336.076656,2871,1869,5
1779865336.076807,2709,2390,5
1779865336.094603,1121,2332,5
1779865336.095327,257,2497,5
1779865336.101414,1200,2216,5
1779865336.109875,2176,1945,5
1779865336.1101592,2167,2002,5
1779865336.111171,1498,2246,5
1779865336.111255,1238,2353,5
1779865336.11132,1290,2135,5
1779865336.111449,1534,2131,5
1779865336.1115232,2138,2313,5
1779865336.111586,2600,2256,5
1779865336.111664,2903,2244,5
1779865336.111742,2926,2325,5
1779865336.111858,2573,2493,5
1779865336.1120698,2306,2473,5
1779865336.112214,1958,2234,5
1779865336.1123998,2166,2123,5
1779865336.114069,2528,2047,5
1779865336.115571,1853,2565,5
1779865336.1169841,2039,2096,5
1779865336.1197178,2553,1947,5
1779865336.1268349,2681,1947,5
1779865336.128265,2358,2035,5
1779865336.130111,2039,2215,5
1779865336.14379,2241,1976,5
1779865336.1442728,2145,1742,5
1779865336.144491,2324,1767,5
1779865336.1447701,2887,1751,5
1779865336.145136,2985,1773,5
1779865336.148988,2546,1832,5
1779865336.149069,2157,2187,5
1779865336.1492648,2280,2243,5
1779865336.149333,2751,1757,5
1779865336.1494038,2603,1853,5
1779865336.149467,3064,1596,5
1779865336.149525,2962,1598,5
1779865336.202276,3639,1302,5
1779865336.2023659,2693,1671,5
1779865336.2031171,1569,2046,5
1779865336.203186,1807,1643,5
1779865336.203247,2212,1493,5
1779865336.20333,2281,1622,5
1779865336.203389,2274,1806,5
1779865336.203489,2564,1855,5
1779865336.2035468,2342,1905,5
1779865336.203604,2464,1869,5
1779865336.20366,2589,1992,5
1779865336.20398,2464,2164,5
1779865336.204581,2547,2214,5
1779865336.204944,2334,2241,5
1779865336.2050402,2335,2165,5
1779865336.2051148,2394,2230,5
1779865336.205187,2480,2154,5
1779865336.205408,3159,1816,5
1779865336.2055051,3602,1954,5
1779865336.205843,2675,2407,5
1779865336.20602,2373,1952,5
1779865336.206301,1938,2117,5
1779865336.206555,1952,1958,5
