timestamp,ch1,ch2,label
1789468001.912311,2070,2877,0_S
1789468001.912359,2136,2881,0_S
1789468001.91239,2018,2877,0_S
1789468001.9124181,2124,2879,0_S
1789468001.912447,2132,2880,0_S
1789468001.9124742,2046,2879,0_S
1789468001.9125,2137,2879,0_S
1789468001.912527,2087,2879,0_S
1789468001.913996,2068,2876,0_S
1789468001.915924,2079,2879,0_S
1789468001.919966,2107,2880,0_S
1789468001.920052,2009,2876,0_S
1789468001.923203,2071,2879,0_S
1789468001.924549,2128,2879,0_S
1789468001.926018,2050,2879,0_S
1789468001.928542,2021,2876,0_S
1789468001.9340842,2109,2880,0_S
1789468001.934186,2065,2878,0_S
1789468001.935185,2071,2879,0_S
1789468001.941403,2116,2880,0_S
1789468001.942955,2118,2879,0_S
1789468001.945445,2051,2878,0_S
1789468001.947083,2051,2878,0_S
1789468001.948965,2032,2879,0_S
1789468001.950013,2073,2880,0_S
1789468001.950475,2056,2878,0_S
1789468001.952325,2060,2879,0_S
1789468001.952395,2075,2878,0_S
1789468001.955043,2101,2878,0_S
1789468001.956404,2014,2878,0_S
1789468001.9580102,1979,2876,0_S
1789468001.960803,2180,2880,0_S
1789468001.96221,2200,2879,0_S
1789468001.964842,2039,2878,0_S
1789468001.9661891,2029,2879,0_S
1789468001.968797,2069,2877,0_S
1789468001.970135,2131,2881,0_S
1789468001.972644,2117,2880,0_S
1789468001.974037,2032,2879,0_S
1789468001.97661,2043,2880,0_S
1789468001.9780228,2058,2878,0_S
1789468001.980577,2075,2880,0_S
1789468001.983211,2005,2878,0_S
1789468001.9844139,1972,2879,0_S
1789468001.987076,2097,2880,0_S
1789468001.988429,2112,2878,0_S
1789468001.991585,2122,2880,0_S
1789468001.997586,2048,2879,0_S
1789468001.997793,2066,2879,0_S
1789468001.999634,2137,2880,0_S
1789468002.0036922,2069,2878,0_S
1789468002.005536,2015,2878,0_S
1789468002.00694,2036,2878,0_S
1789468002.00949,2084,2880,0_S
1789468002.009602,2057,2879,0_S
1789468002.009718,2095,2879,0_S
1789468002.011209,2108,2879,0_S
1789468002.012821,2143,2879,0_S
1789468002.018209,2115,2880,0_S
1789468002.019723,2085,2879,0_S
1789468002.022542,2122,2878,0_S
1789468002.025485,2099,2877,0_S
1789468002.0268512,2125,2879,0_S
1789468002.028579,2084,2878,0_S
1789468002.0292742,2060,2879,0_S
1789468002.029354,2043,2878,0_S
1789468002.030706,2035,2877,0_S
1789468002.032067,1999,2879,0_S
1789468002.035742,2076,2878,0_S
1789468002.037079,2129,2881,0_S
1789468002.0385559,2141,2880,0_S
1789468002.0411892,2025,2879,0_S
1789468002.0428338,2011,2878,0_S
1789468002.044286,2021,2879,0_S
1789468002.046806,2169,2881,0_S
1789468002.0483909,2119,2880,0_S
1789468002.0515032,2031,2878,0_S
1789468002.052906,2115,2881,0_S
1789468002.054291,2148,2880,0_S
1789468002.056952,2040,2880,0_S
1789468002.058367,2087,2878,0_S
1789468002.067296,2120,2880,0_S
1789468002.069102,2076,2880,0_S
1789468002.0716522,2043,2878,0_S
1789468002.073382,1969,2879,0_S
1789468002.076432,2099,2879,0_S
1789468002.077078,2159,2881,0_S
1789468002.078964,2136,2879,0_S
1789468002.0796642,2064,2878,0_S
1789468002.079743,2039,2878,0_S
1789468002.079809,1973,2876,0_S
1789468002.081375,2150,2880,0_S
1789468002.082805,2080,2878,0_S
1789468002.09424,1980,2878,0_S
1789468002.097685,2175,2881,0_S
1789468002.098177,2190,2879,0_S
1789468002.1006021,2072,2878,0_S
1789468002.10069,2058,2879,0_S
1789468002.100755,2094,2879,0_S
1789468002.1008158,2124,2879,0_S
1789468002.100876,2052,2879,0_S
1789468002.100943,2044,2878,0_S
1789468002.102293,2057,2879,0_S
1789468002.104057,2071,2879,0_S
1789468002.106953,2114,2878,0_S
1789468002.108351,2057,2877,0_S
1789468002.1113532,2017,2879,0_S
1789468002.1125891,2107,2880,0_S
1789468002.114072,2052,2877,0_S
1789468002.116839,2089,2880,0_S
1789468002.118269,2132,2880,0_S
1789468002.120903,2100,2879,0_S
1789468002.122266,1970,2877,0_S
1789468002.124923,2041,2878,0_S
1789468002.126914,2134,2878,0_S
1789468002.128323,2090,2880,0_S
1789468002.131125,2035,2877,0_S
1789468002.132499,2117,2881,0_S
1789468002.1351209,2098,2879,0_S
1789468002.146264,2099,2880,0_S
1789468002.152048,2052,2879,0_S
1789468002.153858,1916,2876,0_S
1789468002.15604,2150,2879,0_S
1789468002.1569731,2198,2879,0_S
1789468002.157113,2081,2879,0_S
1789468002.157204,2068,2880,0_S
1789468002.157332,2113,2880,0_S
1789468002.157583,2138,2879,0_S
1789468002.1576698,2137,2880,0_S
1789468002.1577768,2091,2879,0_S
1789468002.1592479,2074,2880,0_S
1789468002.160806,2011,2880,0_S
1789468002.1620438,2085,2879,0_S
1789468002.167307,2086,2879,0_S
1789468002.175609,1999,2876,0_S
1789468002.17966,2040,2877,0_S
1789468002.180068,2147,2881,0_S
1789468002.180469,2066,2879,0_S
1789468002.1828249,2069,2879,0_S
1789468002.18326,2081,2879,0_S
1789468002.183369,2077,2879,0_S
1789468002.183593,2052,2879,0_S
1789468002.183716,2036,2877,0_S
1789468002.185193,2038,2876,0_S
1789468002.186597,2176,2879,0_S
1789468002.1893098,2109,2879,0_S
1789468002.190659,1994,2875,0_S
1789468002.192481,2028,2879,0_S
1789468002.195403,2141,2879,0_S
1789468002.196766,2116,2879,0_S
1789468002.198106,1997,2877,0_S
1789468002.2007098,1990,2877,0_S
1789468002.202167,2132,2881,0_S
1789468002.204778,2110,2879,0_S
1789468002.206113,1973,2876,0_S
1789468002.20872,2147,2880,0_S
1789468002.210028,2066,2879,0_S
1789468002.212747,2109,2879,0_S
1789468002.2141309,2081,2880,0_S
1789468002.216835,2079,2878,0_S
1789468002.218188,2123,2881,0_S
1789468002.220793,2136,2880,0_S
1789468002.222176,2134,2879,0_S
1789468002.228936,2065,2879,0_S
1789468002.229771,2050,2879,0_S
1789468002.2310662,2046,2879,0_S
1789468002.2318,2025,2878,0_S
1789468002.23349,2033,2878,0_S
1789468002.235817,2063,2877,0_S
1789468002.238622,2112,2881,0_S
1789468002.2417438,2110,2879,0_S
1789468002.244087,2067,2879,0_S
1789468002.247007,2050,2880,0_S
1789468002.2472231,2082,2881,0_S
1789468002.24753,2079,2880,0_S
1789468002.248915,2071,2878,0_S
1789468002.25029,2028,2878,0_S
1789468002.261746,2057,2878,0_S
1789468002.266444,2093,2879,0_S
1789468002.269654,2048,2879,0_S
1789468002.269888,2013,2878,0_S
1789468002.27162,2087,2878,0_S
1789468002.272084,2096,2879,0_S
1789468002.272398,2128,2879,0_S
1789468002.272706,2076,2879,0_S
1789468002.27291,2052,2878,0_S
1789468002.2731662,2156,2880,0_S
1789468002.275388,2060,2879,0_S
1789468002.275519,2057,2878,0_S
1789468002.276593,2208,2878,0_S
1789468002.278683,2138,2878,0_S
1789468002.28001,1986,2878,0_S
1789468002.28244,1992,2878,0_S
1789468002.2848,2020,2879,0_S
1789468002.28621,2115,2881,0_S
1789468002.2883022,2138,2879,0_S
1789468002.290873,2039,2879,0_S
1789468002.293,2028,2878,0_S
1789468002.294066,2054,2880,0_S
1789468002.2965581,2106,2880,0_S
1789468002.298642,2043,2879,0_S
1789468002.300029,2051,2879,0_S
1789468002.302614,2115,2880,0_S
1789468002.304941,2136,2880,0_S
1789468002.306259,2053,2878,0_S
1789468002.308334,2076,2878,0_S
1789468002.3106592,2068,2879,0_S
1789468002.31275,2088,2880,0_S
1789468002.3140612,2060,2878,0_S
1789468002.3209789,2001,2878,0_S
1789468002.321574,2073,2879,0_S
1789468002.322206,2127,2881,0_S
1789468002.322929,2071,2879,0_S
1789468002.325792,2029,2878,0_S
1789468002.3284109,2106,2880,0_S
1789468002.329553,2144,2879,0_S
1789468002.331455,2079,2879,0_S
1789468002.33327,1981,2879,0_S
1789468002.334935,1945,2878,0_S
1789468002.3376598,1984,2878,0_S
1789468002.33905,2222,2879,0_S
1789468002.34013,2167,2880,0_S
1789468002.3466449,2092,2878,0_S
1789468002.34784,1999,2879,0_S
1789468002.348455,2057,2877,0_S
1789468002.349487,2081,2879,0_S
1789468002.351135,2152,2880,0_S
1789468002.35332,1902,2877,0_S
1789468002.355504,2044,2877,0_S
1789468002.3582,2378,2879,0_S
1789468002.358387,2053,2879,0_S
1789468002.3625898,2049,2878,0_S
1789468002.3628721,2214,2879,0_S
1789468002.3649752,1686,2877,0_S
1789468002.366452,1716,2879,0_S
1789468002.36881,2799,2883,0_S
1789468002.370132,2257,2881,0_S
1789468002.3722281,1449,2876,0_S
1789468002.3748102,1969,2880,0_S
1789468002.376123,2451,2880,0_S
1789468002.3784509,2147,2879,0_S
1789468002.381024,1400,2878,0_S
1789468002.382099,2491,2882,0_S
1789468002.384293,2969,2882,0_S
1789468002.386486,1600,2878,0_S
1789468002.389062,1720,2879,0_S
1789468002.390385,2188,2879,0_S
1789468002.3927019,2158,2879,0_S
1789468002.394117,1925,2876,0_S
1789468002.3962,2037,2879,0_S
1789468002.3987572,2116,2879,0_S
1789468002.400845,2058,2877,0_S
1789468002.402155,2205,2880,0_S
1789468002.408764,2024,2876,0_S
1789468002.4098089,2071,2880,0_S
1789468002.410385,2074,2878,0_S
1789468002.4118311,2003,2877,0_S
1789468002.4148638,2022,2877,0_S
1789468002.415947,1942,2877,0_S
1789468002.4169312,1693,2877,0_S
1789468002.419124,1916,2878,0_S
1789468002.4211562,2417,2879,0_S
1789468002.423958,2067,2878,0_S
1789468002.424119,1971,2879,0_S
1789468002.426222,1989,2877,0_S
1789468002.4337752,2125,2881,0_S
1789468002.434408,2105,2877,0_S
1789468002.43452,1982,2878,0_S
1789468002.436108,1878,2878,0_S
1789468002.436356,1988,2878,0_S
1789468002.438829,1953,2876,0_S
1789468002.440894,2096,2879,0_S
1789468002.4429681,2124,2880,0_S
1789468002.4445271,1985,2877,0_S
1789468002.447466,2112,2879,0_S
1789468002.4487832,2083,2877,0_S
1789468002.4500532,2047,2878,0_S
1789468002.452567,2107,2877,0_S
1789468002.455132,2071,2879,0_S
1789468002.456439,1990,2879,0_S
1789468002.458998,2017,2878,0_S
1789468002.460298,2064,2880,0_S
1789468002.462869,2117,2879,0_S
1789468002.465228,2003,2878,0_S
1789468002.466466,2068,2878,0_S
1789468002.468786,2132,2879,0_S
1789468002.470088,2132,2880,0_S
1789468002.472648,2023,2878,0_S
1789468002.474027,1979,2877,0_S
1789468002.4763,2120,2878,0_S
1789468002.478863,2165,2879,0_S
1789468002.480024,2108,2880,0_S
1789468002.4821062,2082,2877,0_S
1789468002.485465,2109,2878,0_S
1789468002.4886882,2097,2878,0_S
1789468002.489698,2051,2879,0_S
1789468002.492047,2149,2879,0_S
1789468002.495053,1970,2877,0_S
1789468002.496085,1898,2877,0_S
1789468002.49689,2070,2880,0_S
1789468002.501481,2142,2880,0_S
1789468002.501798,1885,2877,0_S
1789468002.504525,1942,2878,0_S
1789468002.504568,2544,2881,0_S
1789468002.507193,2360,2879,0_S
1789468002.5082638,2045,2879,0_S
1789468002.5130339,1860,2876,0_S
1789468002.514067,1675,2877,0_S
1789468002.515123,2468,2879,0_S
1789468002.5171359,2281,2880,0_S
1789468002.5189078,1598,2879,0_S
1789468002.520709,1924,2876,0_S
1789468002.523178,2091,2880,0_S
1789468002.525111,2611,2880,0_S
1789468002.52779,2030,2879,0_S
1789468002.529115,1906,2877,0_S
1789468002.530473,1927,2877,0_S
1789468002.532854,2285,2880,0_S
1789468002.534212,1720,2878,0_S
1789468002.536582,1966,2877,0_S
1789468002.5386748,2470,2881,0_S
1789468002.5410361,2222,2879,0_S
1789468002.542342,2082,2879,0_S
1789468002.544427,1964,2877,0_S
1789468002.546557,1948,2878,0_S
1789468002.548897,2050,2879,0_S
1789468002.550303,1383,2877,0_S
1789468002.552756,1631,2878,0_S
1789468002.554073,2257,2879,0_S
1789468002.55667,3000,2882,0_S
1789468002.558075,1996,2879,0_S
1789468002.5604181,1910,2879,0_S
1789468002.562496,2293,2880,0_S
1789468002.5699892,2490,2881,0_S
1789468002.570689,2336,2879,0_S
1789468002.571365,1969,2878,0_S
1789468002.571878,1455,2877,0_S
1789468002.573549,1928,2880,0_S
1789468002.575383,2190,2880,0_S
1789468002.5773408,1564,2876,0_S
1789468002.579888,1360,2877,0_S
1789468002.5822961,1721,2878,0_S
1789468002.5824919,1687,2879,0_S
1789468002.5843399,3047,2882,0_S
1789468002.586428,2659,2880,0_S
1789468002.588869,2001,2878,0_S
1789468002.593715,1951,2878,0_S
1789468002.59478,1837,2877,0_S
1789468002.596716,1911,2877,0_S
1789468002.59692,1871,2878,0_S
1789468002.598759,2100,2878,0_S
1789468002.6006029,2062,2878,0_S
1789468002.603244,1547,2878,0_S
1789468002.605694,2182,2879,0_S
1789468002.6084428,1433,2877,0_S
1789468002.608703,1644,2878,0_S
1789468002.6107981,2314,2880,0_S
1789468002.612896,2236,2880,0_S
1789468002.6149912,1884,2878,0_S
1789468002.616061,1779,2878,0_S
1789468002.6183958,1871,2877,0_S
1789468002.620977,1737,2879,0_S
1789468002.622091,2291,2879,0_S
1789468002.624408,1987,2879,0_S
1789468002.626743,1627,2876,0_S
1789468002.628818,675,2876,0_S
1789468002.6309109,1978,2878,0_S
1789468002.633002,3818,2885,0_S
1789468002.634409,2214,2880,0_S
1789468002.6367989,1312,2876,0_S
1789468002.639176,792,2877,0_S
1789468002.640482,1795,2878,0_S
1789468002.642882,3533,2884,0_S
1789468002.645119,2196,2880,0_S
1789468002.6462212,1220,2876,0_S
1789468002.654134,937,2877,0_S
1789468002.654953,1650,2878,0_S
1789468002.657815,3130,2882,0_S
1789468002.6581361,2249,2879,0_S
1789468002.659971,1328,2876,0_S
1789468002.6621811,1830,2877,0_S
1789468002.6628852,1902,2877,0_S
1789468002.663643,2007,2879,0_S
1789468002.669396,2338,2879,0_S
1789468002.670176,1551,2876,0_S
1789468002.670666,1933,2877,0_S
1789468002.671029,1714,2877,0_S
1789468002.673972,2488,2880,0_S
1789468002.675363,1637,2876,0_S
1789468002.676726,1940,2877,0_S
1789468002.685569,2752,2881,0_S
1789468002.687816,1214,2877,0_S
1789468002.690909,1071,2877,0_S
1789468002.692598,2109,2877,0_S
1789468002.698137,1752,2878,0_S
1789468002.698803,1709,2877,0_S
1789468002.699541,1822,2879,0_S
1789468002.699967,1111,2877,0_S
1789468002.702749,757,2877,0_S
1789468002.70285,3732,2883,0_S
1789468002.702921,3342,2883,0_S
1789468002.703014,1667,2877,0_S
1789468002.703113,1471,2877,0_S
1789468002.7044659,1517,2879,0_S
1789468002.706877,2358,2880,0_S
1789468002.7082481,1970,2878,0_S
1789468002.710882,1681,2877,0_S
1789468002.7122078,1721,2877,0_S
1789468002.7144032,1105,2876,0_S
1789468002.716779,1134,2876,0_S
1789468002.719195,2119,2878,0_S
1789468002.720555,2550,2881,0_S
1789468002.723202,2128,2879,0_S
1789468002.724682,1640,2877,0_S
1789468002.727419,1154,2877,0_S
1789468002.7288451,1815,2878,0_S
1789468002.730151,2026,2878,0_S
1789468002.732509,1891,2878,0_S
1789468002.7349231,1827,2876,0_S
1789468002.736164,1318,2876,0_S
1789468002.738534,1581,2877,0_S
1789468002.741125,1673,2877,0_S
1789468002.7428029,1633,2877,0_S
1789468002.750269,1480,2877,0_S
1789468002.7510662,1598,2877,0_S
1789468002.753005,1866,2878,0_S
1789468002.753312,1560,2878,0_S
1789468002.753603,1244,2877,0_S
1789468002.757024,1299,2877,0_S
1789468002.75767,2494,2879,0_S
1789468002.760863,2296,2880,0_S
1789468002.764183,1850,2876,0_S
1789468002.764381,1723,2877,0_S
1789468002.7646642,1851,2879,0_S
1789468002.7673862,1819,2877,0_S
1789468002.76846,1876,2878,0_S
1789468002.770816,2023,2876,0_S
1789468002.777111,1776,2877,0_S
1789468002.777815,1577,2877,0_S
1789468002.7779741,1378,2877,0_S
1789468002.779555,1911,2876,0_S
1789468002.783777,2126,2880,0_S
1789468002.785451,1615,2877,0_S
1789468002.786113,1856,2878,0_S
1789468002.786709,2207,2881,0_S
1789468002.7923908,1943,2878,0_S
1789468002.792671,1395,2876,0_S
1789468002.79283,1831,2878,0_S
1789468002.795667,2015,2877,0_S
1789468002.797046,1828,2878,0_S
1789468002.7983649,1770,2877,0_S
1789468002.800527,2161,2878,0_S
1789468002.802864,1942,2876,0_S
1789468002.80418,1922,2876,0_S
1789468002.806506,2095,2879,0_S
1789468002.809089,2133,2880,0_S
1789468002.8101661,2168,2881,0_S
1789468002.812505,2411,2880,0_S
1789468002.814593,2322,2880,0_S
1789468002.817017,2100,2881,0_S
1789468002.818353,2506,2881,0_S
1789468002.820954,2345,2882,0_S
1789468002.823284,2162,2879,0_S
1789468002.8243468,2938,2881,0_S
1789468002.82669,2694,2880,0_S
1789468002.829016,2330,2879,0_S
1789468002.830168,2340,2880,0_S
1789468002.8323488,2663,2882,0_S
1789468002.8403862,2957,2882,0_S
1789468002.841126,2541,2879,0_S
1789468002.841772,2199,2880,0_S
1789468002.842803,2308,2880,0_S
1789468002.844832,2456,2881,0_S
1789468002.845165,2556,2881,0_S
1789468002.8476942,2763,2881,0_S
1789468002.852937,2191,2878,0_S
1789468002.8532858,2473,2881,0_S
1789468002.856739,3325,2884,0_S
1789468002.857592,2817,2881,0_S
1789468002.859875,2097,2878,0_S
1789468002.860748,2345,2880,0_S
1789468002.8608372,2755,2881,0_S
1789468002.862217,2354,2880,0_S
1789468002.864563,2042,2879,0_S
1789468002.871221,1863,2877,0_S
1789468002.8746371,1424,2878,0_S
1789468002.8748832,2143,2881,0_S
1789468002.8751192,3034,2882,0_S
1789468002.87771,2036,2879,0_S
1789468002.878773,2269,2880,0_S
1789468002.879484,2895,2880,0_S
1789468002.8863518,2730,2883,0_S
1789468002.8868291,2550,2881,0_S
1789468002.887084,2699,2881,0_S
1789468002.88735,2306,2879,0_S
1789468002.889878,1822,2876,0_S
1789468002.891341,2250,2879,0_S
1789468002.89266,2739,2881,0_S
1789468002.894994,1948,2878,0_S
1789468002.896307,1994,2879,0_S
1789468002.898744,2140,2880,0_S
1789468002.900161,2244,2879,0_S
1789468002.902529,2337,2879,0_S
1789468002.904865,2459,2881,0_S
1789468002.906972,2319,2879,0_S
1789468002.908283,2066,2879,0_S
1789468002.91062,2189,2879,0_S
1789468002.9130292,2097,2879,0_S
1789468002.914249,2102,2878,0_S
1789468002.916857,2105,2879,0_S
1789468002.919262,1997,2877,0_S
1789468002.920597,2003,2878,0_S
1789468002.922682,2284,2880,0_S
1789468002.924172,1926,2878,0_S
1789468002.926708,2157,2879,0_S
1789468002.9296482,2318,2880,0_S
1789468002.935906,2177,2879,0_S
1789468002.937161,2107,2879,0_S
1789468002.93937,2141,2880,0_S
1789468002.939819,2221,2880,0_S
1789468002.942112,2176,2879,0_S
1789468002.9433181,2186,2879,0_S
1789468002.94387,2044,2880,0_S
1789468002.947382,2078,2878,0_S
1789468002.951655,2055,2878,0_S
1789468002.95192,2019,2876,0_S
1789468002.952236,1984,2878,0_S
1789468002.952577,2158,2879,0_S
1789468002.9553878,2226,2879,0_S
1789468002.9567318,2088,2880,0_S
1789468002.9590771,2111,2880,0_S
1789468002.9658399,2167,2879,0_S
1789468002.967049,2050,2880,0_S
1789468002.970748,1961,2879,0_S
1789468002.97184,2176,2880,0_S
1789468002.9734578,2222,2880,0_S
1789468002.974559,2222,2881,0_S
1789468002.9766688,2182,2879,0_S
1789468002.980632,2144,2879,0_S
1789468002.980931,2139,2880,0_S
1789468002.9810932,2131,2880,0_S
1789468002.981288,2080,2878,0_S
1789468002.9843478,2124,2880,0_S
1789468002.9844742,2170,2880,0_S
1789468002.986846,2213,2880,0_S
1789468002.988232,2125,2880,0_S
1789468002.99087,2082,2878,0_S
1789468002.992985,2063,2879,0_S
1789468002.99432,2159,2879,0_S
1789468002.99645,2151,2880,0_S
1789468002.998812,2102,2880,0_S
1789468003.00019,1984,2877,0_S
1789468003.002282,2201,2881,0_S
1789468003.004364,2363,2879,0_S
1789468003.006699,2095,2879,0_S
1789468003.0090292,2092,2878,0_S
1789468003.010239,2170,2879,0_S
1789468003.012347,2170,2880,0_S
1789468003.014441,2035,2877,0_S
1789468003.0168462,2135,2879,0_S
1789468003.0182521,2193,2880,0_S
1789468003.0208378,2127,2880,0_S
1789468003.023562,2037,2879,0_S
1789468003.03039,2074,2880,0_S
1789468003.03351,2213,2879,0_S
1789468003.036021,2073,2879,0_S
1789468003.0379689,1977,2878,0_S
1789468003.038829,2100,2877,0_S
1789468003.040193,2176,2879,0_S
1789468003.040462,2115,2880,0_S
1789468003.048168,2179,2878,0_S
1789468003.048512,2020,2879,0_S
1789468003.0488908,2109,2880,0_S
1789468003.04941,2352,2879,0_S
1789468003.049682,2165,2880,0_S
1789468003.05024,2256,2881,0_S
1789468003.053348,1573,2877,0_S
1789468003.053813,1791,2878,0_S
1789468003.055186,2193,2880,0_S
1789468003.056604,2283,2881,0_S
1789468003.0656252,2183,2879,0_S
1789468003.066769,2033,2880,0_S
1789468003.0682082,2171,2880,0_S
1789468003.070465,2270,2880,0_S
1789468003.071035,2300,2881,0_S
1789468003.074445,2369,2880,0_S
1789468003.0758631,2135,2879,0_S
1789468003.079061,2043,2878,0_S
1789468003.087851,1964,2878,0_S
1789468003.088618,1915,2877,0_S
1789468003.092414,2057,2880,0_S
1789468003.0928051,1965,2877,0_S
1789468003.0931,2003,2877,0_S
1789468003.093178,2355,2881,0_S
1789468003.093291,1934,2878,0_S
1789468003.093485,2247,2880,0_S
1789468003.093663,2060,2880,0_S
1789468003.0937521,1961,2876,0_S
1789468003.095197,2189,2881,0_S
1789468003.096525,2254,2881,0_S
1789468003.099125,2104,2880,0_S
1789468003.100441,2270,2879,0_S
1789468003.1030521,2100,2881,0_S
1789468003.104322,2086,2880,0_S
1789468003.106741,2059,2880,0_S
1789468003.109438,1990,2877,0_S
1789468003.110719,2051,2880,0_S
1789468003.112211,2170,2881,0_S
1789468003.114764,1990,2878,0_S
1789468003.11728,1955,2877,0_S
1789468003.118679,2159,2880,0_S
1789468003.12115,2164,2879,0_S
1789468003.1225011,2121,2878,0_S
1789468003.1250272,2181,2879,0_S
1789468003.126501,2026,2876,0_S
1789468003.1290948,2064,2881,0_S
1789468003.1307101,2100,2881,0_S
1789468003.132211,2004,2878,0_S
1789468003.134895,2052,2878,0_S
1789468003.1363251,2198,2881,0_S
1789468003.156655,2215,2879,0_S
1789468003.169864,2097,2879,0_S
1789468003.1708422,2173,2880,0_S
1789468003.1710668,2179,2879,0_S
1789468003.171576,2088,2877,0_S
1789468003.175084,2019,2877,0_S
1789468003.175186,2058,2876,0_S
1789468003.175331,2070,2880,0_S
1789468003.175412,2113,2879,0_S
1789468003.1754801,2047,2878,0_S
1789468003.1755462,1984,2878,0_S
1789468003.175607,2087,2879,0_S
1789468003.1757529,2103,2880,0_S
1789468003.17585,2146,2880,0_S
1789468003.1759942,2158,2880,0_S
1789468003.176178,2228,2880,0_S
1789468003.176241,2099,2879,0_S
1789468003.176308,2171,2879,0_S
1789468003.176384,2147,2879,0_S
1789468003.1764538,2020,2877,0_S
1789468003.179023,2144,2882,0_S
1789468003.1878452,2151,2880,0_S
1789468003.192974,2050,2877,0_S
1789468003.195559,2048,2878,0_S
1789468003.196993,2115,2879,0_S
1789468003.204687,2061,2879,0_S
1789468003.210508,2085,2880,0_S
1789468003.2145941,2149,2879,0_S
1789468003.21468,2058,2879,0_S
1789468003.214838,2101,2880,0_S
1789468003.2149692,1942,2878,0_S
1789468003.215062,1939,2879,0_S
1789468003.215133,2142,2881,0_S
1789468003.215281,2235,2880,0_S
1789468003.2153778,2036,2879,0_S
1789468003.215534,2177,2880,0_S
1789468003.215598,2160,2880,0_S
1789468003.215661,2143,2879,0_S
1789468003.2157729,2087,2877,0_S
1789468003.2171788,2030,2878,0_S
1789468003.218656,2219,2880,0_S
1789468003.22135,2225,2879,0_S
1789468003.222702,1989,2879,0_S
1789468003.225332,1986,2878,0_S
1789468003.226617,2066,2878,0_S
1789468003.229302,2171,2880,0_S
1789468003.230502,2084,2878,0_S
1789468003.233014,1891,2880,0_S
1789468003.234219,2075,2879,0_S
1789468003.236902,2329,2879,0_S
1789468003.238194,2128,2880,0_S
1789468003.240732,2033,2878,0_S
1789468003.242219,2031,2878,0_S
1789468003.244972,2070,2881,0_S
1789468003.246208,2191,2880,0_S
1789468003.248827,2058,2877,0_S
1789468003.250189,2098,2878,0_S
1789468003.2530172,2058,2877,0_S
1789468003.254177,2099,2878,0_S
1789468003.256632,2044,2879,0_S
1789468003.2596889,1857,2876,0_S
1789468003.268595,2204,2879,0_S
1789468003.271743,2188,2880,0_S
1789468003.27211,1974,2877,0_S
1789468003.2751539,2036,2878,0_S
1789468003.2758799,2264,2880,0_S
1789468003.276591,2272,2880,0_S
1789468003.2772968,2004,2878,0_S
1789468003.279234,2018,2879,0_S
1789468003.279815,2190,2879,0_S
1789468003.28228,2115,2879,0_S
1789468003.287287,2104,2878,0_S
1789468003.287976,2060,2879,0_S
1789468003.288378,2000,2880,0_S
1789468003.288764,2127,2881,0_S
1789468003.291756,2124,2879,0_S
1789468003.2920802,2003,2878,0_S
1789468003.292211,1996,2876,0_S
1789468003.294862,2168,2879,0_S
1789468003.2976341,2103,2880,0_S
1789468003.303977,2098,2878,0_S
1789468003.304791,2041,2878,0_S
1789468003.305515,2043,2877,0_S
1789468003.305705,2114,2880,0_S
1789468003.308775,2157,2879,0_S
1789468003.311059,2109,2879,0_S
1789468003.3116858,2035,2880,0_S
1789468003.3137002,2043,2877,0_S
1789468003.3152661,2111,2878,0_S
1789468003.322022,2168,2881,0_S
1789468003.322272,1973,2878,0_S
1789468003.322483,2099,2879,0_S
1789468003.3226602,2187,2880,0_S
1789468003.324914,2170,2880,0_S
1789468003.326232,2041,2879,0_S
1789468003.3285,2111,2880,0_S
1789468003.330796,2089,2879,0_S
1789468003.333179,2025,2879,0_S
1789468003.334493,2143,2881,0_S
1789468003.336816,2083,2880,0_S
1789468003.338173,2142,2879,0_S
1789468003.340744,2095,2880,0_S
1789468003.342977,2005,2878,0_S
1789468003.345352,1942,2877,0_S
1789468003.346495,1980,2878,0_S
1789468003.348592,2217,2881,0_S
1789468003.351255,2287,2880,0_S
1789468003.3525429,2137,2879,0_S
1789468003.355121,2228,2880,0_S
1789468003.356523,1990,2879,0_S
1789468003.3586318,2202,2879,0_S
1789468003.360991,2154,2881,0_S
1789468003.3633301,2182,2880,0_S
1789468003.3644009,2032,2878,0_S
1789468003.37045,1809,2877,0_S
1789468003.3711119,2174,2881,0_S
1789468003.371705,2007,2879,0_S
1789468003.3744671,1886,2877,0_S
1789468003.3747358,2039,2880,0_S
1789468003.37726,2419,2879,0_S
1789468003.37941,1939,2877,0_S
1789468003.382174,2000,2878,0_S
1789468003.386719,2142,2878,0_S
1789468003.386942,2116,2878,0_S
1789468003.3871129,2190,2880,0_S
1789468003.3901172,1958,2876,0_S
1789468003.390197,1724,2877,0_S
1789468003.392551,2161,2880,0_S
1789468003.401066,2899,2880,0_S
1789468003.4016829,2150,2880,0_S
1789468003.402334,1925,2877,0_S
1789468003.404335,2062,2877,0_S
1789468003.406713,2234,2880,0_S
1789468003.407393,2164,2879,0_S
1789468003.4085262,2025,2878,0_S
1789468003.408735,1885,2878,0_S
1789468003.412239,2137,2878,0_S
1789468003.412458,2248,2880,0_S
1789468003.416781,1969,2877,0_S
1789468003.4172852,1946,2878,0_S
1789468003.419889,2267,2880,0_S
1789468003.421222,1992,2878,0_S
1789468003.422288,2081,2877,0_S
1789468003.424638,2298,2880,0_S
1789468003.42719,2025,2879,0_S
1789468003.428262,1777,2876,0_S
1789468003.4307048,1745,2878,0_S
1789468003.4330602,1906,2877,0_S
1789468003.4343731,2317,2880,0_S
1789468003.4365041,2317,2880,0_S
1789468003.439056,2125,2878,0_S
1789468003.441389,2251,2880,0_S
1789468003.4426959,2158,2878,0_S
1789468003.44478,1959,2878,0_S
1789468003.447121,1871,2878,0_S
1789468003.4492428,2118,2878,0_S
1789468003.450433,2160,2878,0_S
1789468003.4527528,2057,2877,0_S
1789468003.455072,1955,2878,0_S
1789468003.457397,1911,2876,0_S
1789468003.458462,2060,2880,0_S
1789468003.465069,2130,2879,0_S
1789468003.466336,2087,2879,0_S
1789468003.4685571,2198,2881,0_S
1789468003.4688692,2131,2877,0_S
1789468003.469148,2154,2880,0_S
1789468003.471818,2010,2877,0_S
1789468003.473483,1873,2878,0_S
1789468003.4764092,2009,2879,0_S
1789468003.480434,2224,2879,0_S
1789468003.480721,2312,2879,0_S
1789468003.48089,2070,2878,0_S
1789468003.483617,1973,2877,0_S
1789468003.484936,2217,2880,0_S
1789468003.486254,2225,2880,0_S
1789468003.4885492,2004,2877,0_S
1789468003.493921,2167,2879,0_S
1789468003.494067,2085,2880,0_S
1789468003.497258,1950,2877,0_S
1789468003.497461,1974,2877,0_S
1789468003.499962,2040,2877,0_S
1789468003.504179,2079,2877,0_S
1789468003.50448,2276,2881,0_S
1789468003.508397,2051,2879,0_S
1789468003.508575,2139,2879,0_S
1789468003.508897,2107,2879,0_S
1789468003.511071,2211,2879,0_S
1789468003.5124009,2094,2880,0_S
1789468003.514605,2049,2877,0_S
1789468003.51711,2098,2879,0_S
1789468003.518435,2005,2877,0_S
1789468003.52101,2167,2880,0_S
1789468003.522323,2065,2879,0_S
1789468003.524877,1989,2878,0_S
1789468003.5275068,1980,2877,0_S
1789468003.528817,1928,2878,0_S
1789468003.531147,2180,2881,0_S
1789468003.532455,2099,2880,0_S
1789468003.534782,2143,2880,0_S
1789468003.537348,2068,2879,0_S
1789468003.538465,2125,2880,0_S
1789468003.540546,1962,2876,0_S
1789468003.542648,2033,2878,0_S
1789468003.544985,2265,2880,0_S
1789468003.546378,2130,2881,0_S
1789468003.548712,2061,2879,0_S
1789468003.556192,2089,2879,0_S
1789468003.55687,2170,2880,0_S
1789468003.557534,2120,2880,0_S
1789468003.5583098,2030,2877,0_S
1789468003.5600798,2097,2879,0_S
1789468003.5624242,2013,2877,0_S
1789468003.563043,2071,2879,0_S
1789468003.565737,2013,2878,0_S
1789468003.567637,2037,2876,0_S
1789468003.571569,2083,2878,0_S
1789468003.571859,2067,2880,0_S
1789468003.574752,2073,2878,0_S
1789468003.574879,2093,2880,0_S
1789468003.577507,2134,2880,0_S
1789468003.5788212,2054,2880,0_S
1789468003.5855548,1975,2877,0_S
1789468003.588619,2005,2878,0_S
1789468003.588948,2097,2879,0_S
1789468003.592111,2154,2879,0_S
1789468003.592314,2155,2880,0_S
1789468003.593548,2064,2879,0_S
1789468003.594168,2069,2878,0_S
1789468003.597006,2202,2881,0_S
1789468003.597172,2113,2880,0_S
1789468003.601092,2020,2877,0_S
1789468003.601491,2052,2878,0_S
1789468003.603683,2121,2880,0_S
1789468003.6047602,2082,2879,0_S
1789468003.606941,2129,2879,0_S
1789468003.6091049,2091,2879,0_S
1789468003.610424,2150,2879,0_S
1789468003.612992,2125,2880,0_S
1789468003.615326,1962,2877,0_S
1789468003.616385,2018,2879,0_S
1789468003.6187022,2032,2878,0_S
1789468003.6210291,2073,2880,0_S
1789468003.623342,2106,2879,0_S
1789468003.624641,2130,2879,0_S
1789468003.626957,2093,2879,0_S
1789468003.629387,2068,2880,0_S
1789468003.6304588,2079,2877,0_S
1789468003.63261,2063,2879,0_S
1789468003.634699,2133,2878,0_S
1789468003.6371489,2120,2881,0_S
1789468003.638287,2044,2878,0_S
1789468003.645118,2055,2878,0_S
1789468003.6466088,2031,2878,0_S
1789468003.6481102,1990,2876,0_S
1789468003.648533,2034,2879,0_S
1789468003.650775,2083,2880,0_S
1789468003.6512582,2114,2879,0_S
1789468003.652558,2166,2880,0_S
1789468003.655002,2096,2879,0_S
1789468003.6581068,2070,2879,0_S
1789468003.660696,2026,2880,0_S
1789468003.66099,1929,2878,0_S
1789468003.662302,2005,2878,0_S
1789468003.6648378,2224,2882,0_S
1789468003.669777,2197,2881,0_S
1789468003.670357,2134,2879,0_S
1789468003.670918,2113,2880,0_S
1789468003.6728342,2053,2878,0_S
1789468003.674686,2042,2879,0_S
1789468003.676805,2087,2880,0_S
1789468003.682143,2153,2881,0_S
1789468003.682534,2157,2880,0_S
1789468003.682792,1991,2878,0_S
1789468003.685122,1973,2878,0_S
1789468003.6864471,2064,2879,0_S
1789468003.6887732,2078,2879,0_S
1789468003.691089,2011,2877,0_S
1789468003.6923661,2052,2880,0_S
1789468003.6945002,2134,2879,0_S
1789468003.697073,2080,2879,0_S
1789468003.699392,1981,2877,0_S
1789468003.700694,2048,2878,0_S
1789468003.703022,2105,2879,0_S
1789468003.704326,2127,2880,0_S
1789468003.706651,2086,2879,0_S
1789468003.7089741,2064,2879,0_S
1789468003.710309,2083,2879,0_S
1789468003.7128692,2078,2880,0_S
1789468003.714942,2025,2877,0_S
1789468003.716318,2043,2879,0_S
1789468003.718509,2107,2881,0_S
1789468003.725077,2126,2880,0_S
1789468003.72563,2077,2878,0_S
1789468003.7270231,2007,2879,0_S
1789468003.728557,1979,2877,0_S
1789468003.728731,2099,2880,0_S
1789468003.731714,2150,2879,0_S
1789468003.734786,2080,2881,0_S
1789468003.735021,2031,2878,0_S
1789468003.737887,2009,2878,0_S
1789468003.739952,2095,2880,0_S
1789468003.74102,2082,2879,0_S
1789468003.74334,2159,2879,0_S
1789468003.748694,2201,2879,0_S
1789468003.749253,1978,2877,0_S
1789468003.750379,1781,2877,0_S
1789468003.7526379,1892,2878,0_S
1789468003.754422,2290,2880,0_S
1789468003.755599,2361,2880,0_S
1789468003.757292,1737,2876,0_S
1789468003.7594318,1406,2876,0_S
1789468003.76468,2031,2879,0_S
1789468003.764738,2306,2880,0_S
1789468003.764781,2485,2880,0_S
1789468003.767136,2382,2881,0_S
1789468003.7684522,2139,2879,0_S
1789468003.77054,2037,2876,0_S
1789468003.773101,1961,2877,0_S
1789468003.77539,1903,2878,0_S
1789468003.776701,2132,2877,0_S
1789468003.779019,2507,2880,0_S
1789468003.781339,2009,2879,0_S
1789468003.782439,1792,2877,0_S
1789468003.784878,1952,2876,0_S
1789468003.786976,2388,2880,0_S
1789468003.789299,2215,2881,0_S
1789468003.7903569,2049,2878,0_S
1789468003.7929192,2195,2880,0_S
1789468003.7951381,2238,2880,0_S
1789468003.796439,2038,2879,0_S
1789468003.7990038,1827,2877,0_S
1789468003.805103,1823,2877,0_S
1789468003.806169,1877,2877,0_S
1789468003.806304,2089,2881,0_S
1789468003.8083148,2379,2880,0_S
1789468003.808532,2249,2880,0_S
1789468003.811502,2052,2880,0_S
1789468003.813034,1644,2878,0_S
1789468003.814684,1743,2877,0_S
1789468003.817586,1953,2879,0_S
1789468003.819642,2470,2881,0_S
1789468003.820958,2165,2879,0_S
1789468003.82328,2138,2879,0_S
1789468003.8287842,2173,2880,0_S
1789468003.829352,1904,2877,0_S
1789468003.8304121,2049,2878,0_S
1789468003.8309581,2186,2878,0_S
1789468003.832572,2103,2878,0_S
1789468003.834692,2025,2878,0_S
1789468003.838536,1618,2877,0_S
1789468003.83868,1796,2877,0_S
1789468003.8414779,2331,2880,0_S
1789468003.843982,2229,2878,0_S
1789468003.845294,2032,2879,0_S
1789468003.846601,2012,2878,0_S
1789468003.849181,2047,2878,0_S
1789468003.850286,2107,2879,0_S
1789468003.8528461,2049,2879,0_S
1789468003.855139,2143,2879,0_S
1789468003.856438,2220,2879,0_S
1789468003.859007,1889,2879,0_S
1789468003.8603368,1948,2876,0_S
1789468003.8628979,1921,2878,0_S
1789468003.8642979,2144,2879,0_S
1789468003.8666291,1976,2878,0_S
1789468003.869189,2151,2881,0_S
1789468003.870424,2227,2879,0_S
1789468003.872993,2102,2879,0_S
1789468003.875316,1853,2876,0_S
1789468003.876617,1915,2876,0_S
1789468003.883611,1962,2878,0_S
1789468003.8838122,2328,2881,0_S
1789468003.884744,2230,2880,0_S
1789468003.884916,2214,2878,0_S
1789468003.887088,1718,2877,0_S
1789468003.889049,1611,2877,0_S
1789468003.890558,2105,2879,0_S
1789468003.893204,2693,2882,0_S
1789468003.895799,1978,2879,0_S
1789468003.898388,2051,2880,0_S
1789468003.898623,1984,2877,0_S
1789468003.9011898,2277,2880,0_S
1789468003.9022698,2212,2880,0_S
1789468003.907454,2214,2880,0_S
1789468003.908405,1920,2876,0_S
1789468003.908566,2000,2879,0_S
1789468003.9103072,1833,2878,0_S
1789468003.913613,1585,2878,0_S
1789468003.91963,2479,2881,0_S
1789468003.9200158,2492,2880,0_S
1789468003.920185,1221,2877,0_S
1789468003.920428,1268,2878,0_S
1789468003.923418,2706,2881,0_S
1789468003.924751,2524,2880,0_S
1789468003.927083,2061,2880,0_S
1789468003.929499,1563,2876,0_S
1789468003.9308102,2419,2880,0_S
1789468003.933207,1925,2879,0_S
1789468003.934518,2195,2878,0_S
1789468003.936619,2168,2880,0_S
1789468003.939209,1927,2876,0_S
1789468003.940276,1733,2878,0_S
1789468003.942611,1852,2876,0_S
1789468003.944709,2064,2880,0_S
1789468003.947118,1945,2877,0_S
1789468003.94833,2621,2880,0_S
1789468003.950905,2104,2878,0_S
1789468003.952302,1969,2878,0_S
1789468003.9546409,2165,2880,0_S
1789468003.9567318,1485,2878,0_S
1789468003.9634402,2872,2881,0_S
1789468003.964521,2298,2880,0_S
1789468003.965036,1629,2876,0_S
1789468003.965219,1029,2878,0_S
1789468003.967078,2196,2880,0_S
1789468003.969134,2573,2880,0_S
1789468003.9706728,2043,2879,0_S
1789468003.9733472,1820,2876,0_S
1789468003.976298,2365,2880,0_S
1789468003.976564,1608,2877,0_S
1789468003.978538,1947,2877,0_S
1789468003.9808698,1966,2879,0_S
1789468003.9877949,1442,2877,0_S
1789468003.987971,910,2877,0_S
1789468003.988992,3111,2882,0_S
1789468003.989971,2872,2882,0_S
1789468003.991453,1794,2879,0_S
1789468003.9934468,1430,2876,0_S
1789468003.995441,2015,2878,0_S
1789468003.997857,2108,2877,0_S
1789468004.000801,2111,2879,0_S
1789468004.0009952,2583,2880,0_S
1789468004.0035179,2012,2879,0_S
1789468004.004828,1057,2876,0_S
1789468004.007195,1589,2876,0_S
1789468004.008331,1779,2877,0_S
1789468004.010658,2214,2881,0_S
1789468004.013195,2182,2879,0_S
1789468004.0144992,2086,2878,0_S
1789468004.017076,2110,2880,0_S
1789468004.018389,1282,2877,0_S
1789468004.0209658,1414,2876,0_S
1789468004.023045,2398,2879,0_S
1789468004.0243452,1436,2878,0_S
1789468004.026666,2199,2880,0_S
1789468004.029108,1774,2877,0_S
1789468004.0314171,2242,2880,0_S
1789468004.03247,2047,2878,0_S
1789468004.03458,1886,2876,0_S
1789468004.037144,2573,2880,0_S
1789468004.03845,1756,2876,0_S
1789468004.0445068,1254,2878,0_S
1789468004.0455198,2106,2878,0_S
1789468004.0460238,2204,2881,0_S
1789468004.048529,1771,2877,0_S
1789468004.051031,1367,2877,0_S
1789468004.0517042,1577,2877,0_S
1789468004.053251,1329,2877,0_S
1789468004.0554109,2230,2879,0_S
1789468004.0585291,2341,2880,0_S
1789468004.058708,1310,2876,0_S
1789468004.061336,1343,2877,0_S
1789468004.0626361,2637,2881,0_S
1789468004.065203,1911,2878,0_S
1789468004.0700228,1941,2878,0_S
1789468004.07056,1424,2877,0_S
1789468004.070722,2089,2877,0_S
1789468004.073194,2131,2879,0_S
1789468004.075486,1755,2876,0_S
1789468004.077047,2021,2879,0_S
1789468004.0794969,1927,2879,0_S
1789468004.082858,1850,2877,0_S
1789468004.083245,1886,2878,0_S
1789468004.0855439,2177,2880,0_S
1789468004.086868,2155,2881,0_S
1789468004.0894458,2148,2879,0_S
1789468004.090576,2019,2876,0_S
1789468004.09311,2008,2880,0_S
1789468004.0944178,1988,2878,0_S
1789468004.0969799,2087,2880,0_S
1789468004.0983171,1961,2878,0_S
1789468004.100399,1928,2877,0_S
1789468004.1028538,2182,2880,0_S
1789468004.1054158,2255,2879,0_S
1789468004.106715,2011,2879,0_S
1789468004.10912,2121,2880,0_S
1789468004.1104279,2215,2880,0_S
1789468004.1129868,2278,2880,0_S
1789468004.115083,2085,2880,0_S
1789468004.116399,2158,2881,0_S
1789468004.118573,2214,2881,0_S
1789468004.125848,2320,2881,0_S
1789468004.125983,2101,2880,0_S
1789468004.126633,2266,2880,0_S
1789468004.129023,2002,2877,0_S
1789468004.1291971,2039,2878,0_S
1789468004.132097,2137,2880,0_S
1789468004.134041,2007,2877,0_S
1789468004.1357162,2113,2879,0_S
1789468004.138929,2228,2880,0_S
1789468004.1391418,2185,2879,0_S
1789468004.141234,2122,2880,0_S
1789468004.142553,2044,2879,0_S
1789468004.144969,2261,2880,0_S
1789468004.153347,2181,2880,0_S
1789468004.1536949,2373,2881,0_S
1789468004.1561081,1999,2878,0_S
1789468004.1567051,2032,2879,0_S
1789468004.157771,1984,2877,0_S
1789468004.158701,2048,2877,0_S
1789468004.16105,2470,2879,0_S
1789468004.164264,2523,2881,0_S
1789468004.1643991,2293,2879,0_S
1789468004.164612,2417,2880,0_S
1789468004.167168,2162,2880,0_S
1789468004.168482,1904,2877,0_S
1789468004.17065,1882,2878,0_S
1789468004.1729789,2390,2881,0_S
1789468004.175054,2728,2881,0_S
1789468004.1763752,2271,2880,0_S
1789468004.1786911,2129,2878,0_S
1789468004.180993,2240,2880,0_S
1789468004.183402,2323,2879,0_S
1789468004.18483,2251,2879,0_S
1789468004.187454,2213,2878,0_S
1789468004.188766,2753,2881,0_S
1789468004.191339,2276,2880,0_S
1789468004.192396,1851,2877,0_S
1789468004.235577,1668,2876,0_S
1789468004.2358,2334,2880,0_S
1789468004.235911,2454,2881,0_S
1789468004.236015,2336,2881,0_S
1789468004.2361338,2419,2881,0_S
1789468004.236259,2220,2880,0_S
1789468004.236407,2208,2880,0_S
1789468004.236533,2027,2879,0_S
1789468004.236613,2084,2879,0_S
1789468004.23668,2140,2879,0_S
1789468004.2368,1892,2876,0_S
1789468004.2368991,2066,2877,0_S
1789468004.2369668,2278,2880,0_S
1789468004.237066,2322,2879,0_S
1789468004.237141,2313,2879,0_S
1789468004.237183,2059,2879,0_S
1789468004.2372239,1972,2876,0_S
1789468004.237264,1994,2878,0_S
1789468004.237304,2114,2878,0_S
1789468004.2373672,2309,2881,0_S
1789468004.237408,1833,2876,0_S
1789468004.23745,2064,2880,0_S
1789468004.238513,2169,2880,0_S
1789468004.2444532,2053,2879,0_S
1789468004.244537,2368,2879,0_S
1789468004.244601,2160,2881,0_S
1789468004.247092,2076,2878,0_S
1789468004.249438,2075,2877,0_S
1789468004.2509031,2406,2880,0_S
1789468004.252991,2159,2879,0_S
1789468004.254296,2145,2879,0_S
1789468004.256376,2117,2880,0_S
1789468004.2586439,2016,2877,0_S
1789468004.263744,2137,2879,0_S
1789468004.265409,2192,2881,0_S
1789468004.267379,2033,2877,0_S
1789468004.267637,2052,2877,0_S
1789468004.2700212,2128,2881,0_S
1789468004.272147,2039,2879,0_S
1789468004.2742589,1975,2877,0_S
1789468004.274335,2197,2880,0_S
1789468004.277926,1817,2877,0_S
1789468004.280681,2257,2880,0_S
1789468004.28073,2096,2880,0_S
1789468004.2830951,2197,2880,0_S
1789468004.289907,1986,2877,0_S
1789468004.2915342,2020,2878,0_S
1789468004.293229,2160,2879,0_S
1789468004.2934139,2149,2879,0_S
1789468004.2936058,2112,2880,0_S
1789468004.295864,2114,2879,0_S
1789468004.297513,2104,2880,0_S
1789468004.299943,2031,2878,0_S
1789468004.303249,2126,2880,0_S
1789468004.3033469,2056,2877,0_S
1789468004.305989,2145,2881,0_S
1789468004.307297,2132,2878,0_S
1789468004.308363,2093,2879,0_S
1789468004.3106828,2131,2879,0_S
1789468004.3132448,2077,2880,0_S
1789468004.314314,2042,2877,0_S
1789468004.316677,2090,2878,0_S
1789468004.319235,2132,2879,0_S
1789468004.320533,2139,2880,0_S
1789468004.3230941,2042,2879,0_S
1789468004.325164,2045,2879,0_S
1789468004.326464,2219,2879,0_S
1789468004.328786,2124,2880,0_S
1789468004.3312352,2095,2879,0_S
1789468004.332319,2171,2880,0_S
1789468004.334879,2095,2880,0_S
1789468004.33728,2238,2880,0_S
1789468004.3383338,2122,2879,0_S
1789468004.340649,2068,2879,0_S
1789468004.346451,2061,2879,0_S
1789468004.347002,2117,2878,0_S
1789468004.348863,2175,2881,0_S
1789468004.3503098,2079,2879,0_S
1789468004.350485,2004,2878,0_S
1789468004.353121,2088,2879,0_S
1789468004.3548899,2283,2880,0_S
1789468004.356908,2122,2879,0_S
1789468004.360201,1885,2876,0_S
1789468004.360505,2179,2880,0_S
1789468004.36302,2279,2879,0_S
1789468004.3643289,2115,2880,0_S
1789468004.3667278,2054,2877,0_S
1789468004.371661,2238,2880,0_S
1789468004.372603,2136,2880,0_S
1789468004.373072,2118,2879,0_S
1789468004.374971,2241,2879,0_S
1789468004.376757,2177,2879,0_S
1789468004.380943,2059,2879,0_S
1789468004.381195,2058,2878,0_S
1789468004.3846211,2087,2878,0_S
1789468004.3848152,2046,2877,0_S
1789468004.38683,2034,2879,0_S
1789468004.3894022,2137,2879,0_S
1789468004.3907368,2026,2879,0_S
1789468004.393057,2051,2879,0_S
1789468004.3953862,2251,2880,0_S
1789468004.396689,2226,2879,0_S
1789468004.399255,2049,2878,0_S
1789468004.400555,2113,2879,0_S
1789468004.402633,2131,2880,0_S
1789468004.405202,2059,2877,0_S
1789468004.40651,2033,2879,0_S
1789468004.408601,2106,2879,0_S
1789468004.4108229,1976,2876,0_S
1789468004.413134,1996,2877,0_S
1789468004.4142878,2064,2881,0_S
1789468004.4166,2137,2880,0_S
1789468004.418685,2192,2881,0_S
1789468004.420953,2251,2879,0_S
1789468004.4275289,2214,2878,0_S
1789468004.428492,2102,2879,0_S
1789468004.4303339,2023,2878,0_S
1789468004.430497,2222,2881,0_S
1789468004.430752,2040,2877,0_S
1789468004.433836,2030,2879,0_S
1789468004.4364731,2096,2880,0_S
1789468004.4366379,2109,2880,0_S
1789468004.439776,2098,2879,0_S
1789468004.4422662,2022,2879,0_S
1789468004.442395,2046,2881,0_S
1789468004.4447129,2144,2880,0_S
1789468004.451485,2145,2880,0_S
1789468004.453584,2073,2879,0_S
1789468004.453738,2039,2878,0_S
1789468004.453839,2094,2880,0_S
1789468004.456019,2104,2879,0_S
1789468004.457761,2147,2879,0_S
1789468004.45963,2088,2879,0_S
1789468004.462803,2102,2880,0_S
1789468004.4629278,2095,2880,0_S
1789468004.464761,2022,2877,0_S
1789468004.4668438,2036,2877,0_S
1789468004.469166,2121,2880,0_S
1789468004.470289,2149,2878,0_S
1789468004.472616,2085,2878,0_S
1789468004.4749079,1985,2876,0_S
1789468004.476287,2009,2877,0_S
1789468004.478841,2096,2881,0_S
1789468004.4813042,2155,2880,0_S
1789468004.482601,2001,2878,0_S
1789468004.485153,2128,2881,0_S
1789468004.486447,2129,2880,0_S
1789468004.4888499,2084,2878,0_S
1789468004.491406,2159,2880,0_S
1789468004.4926999,2093,2879,0_S
1789468004.495008,2096,2880,0_S
1789468004.497324,2125,2881,0_S
1789468004.502538,2057,2878,0_S
1789468004.504941,2125,2880,0_S
1789468004.505147,2167,2880,0_S
1789468004.5053911,2092,2879,0_S
1789468004.507348,2107,2879,0_S
1789468004.508878,2068,2878,0_S
1789468004.5112069,2110,2880,0_S
1789468004.514045,2025,2878,0_S
1789468004.516335,1967,2878,0_S
1789468004.5165162,2212,2881,0_S
1789468004.518833,2064,2879,0_S
1789468004.524865,2034,2879,0_S
1789468004.525027,2014,2880,0_S
1789468004.525474,2072,2879,0_S
1789468004.527106,2173,2881,0_S
1789468004.5284421,2086,2882,0_S
1789468004.530464,1927,2877,0_S
1789468004.532636,2187,2881,0_S
1789468004.5354729,2084,2880,0_S
1789468004.537695,2097,2879,0_S
1789468004.538762,2060,2879,0_S
1789468004.541074,2034,2879,0_S
1789468004.542371,2022,2877,0_S
1789468004.544943,2314,2882,0_S
1789468004.547022,2153,2880,0_S
1789468004.5491421,2046,2877,0_S
1789468004.5504372,2071,2878,0_S
1789468004.552742,2138,2880,0_S
1789468004.555058,2102,2879,0_S
1789468004.5563562,2053,2880,0_S
1789468004.558719,2180,2879,0_S
1789468004.561034,2063,2879,0_S
1789468004.5633411,2048,2878,0_S
1789468004.564638,2047,2877,0_S
1789468004.5670662,1981,2878,0_S
1789468004.568362,2015,2878,0_S
1789468004.574572,2107,2879,0_S
1789468004.5750039,2156,2879,0_S
1789468004.575572,2050,2880,0_S
1789468004.577575,2099,2879,0_S
1789468004.5794811,2105,2880,0_S
1789468004.581354,2035,2878,0_S
1789468004.5864398,2059,2879,0_S
1789468004.586742,2120,2878,0_S
1789468004.586879,2169,2879,0_S
1789468004.5890958,2096,2879,0_S
1789468004.591506,1986,2879,0_S
1789468004.592751,2033,2879,0_S
1789468004.59793,2063,2880,0_S
1789468004.5984588,2101,2881,0_S
1789468004.5989602,2018,2879,0_S
1789468004.600841,1982,2879,0_S
1789468004.602869,2219,2881,0_S
1789468004.604602,2152,2880,0_S
1789468004.606411,2115,2878,0_S
1789468004.609229,2062,2878,0_S
1789468004.611126,2155,2878,0_S
1789468004.6134431,2142,2881,0_S
1789468004.614744,2079,2879,0_S
1789468004.6173198,2157,2880,0_S
1789468004.618623,2120,2880,0_S
1789468004.621181,2138,2880,0_S
1789468004.6224792,2090,2879,0_S
1789468004.625036,2028,2879,0_S
1789468004.627357,1886,2877,0_S
1789468004.628653,2152,2880,0_S
1789468004.630965,2155,2880,0_S
1789468004.6322858,2074,2878,0_S
1789468004.634847,2097,2881,0_S
1789468004.637341,2081,2879,0_S
1789468004.638392,2043,2878,0_S
1789468004.640457,2093,2880,0_S
1789468004.6425788,2151,2879,0_S
1789468004.64912,1988,2877,0_S
1789468004.649282,2074,2878,0_S
1789468004.649784,1992,2877,0_S
1789468004.651948,1943,2878,0_S
1789468004.653713,2249,2881,0_S
1789468004.655505,2186,2879,0_S
1789468004.6576698,2193,2879,0_S
1789468004.660691,2069,2880,0_S
1789468004.660811,2120,2880,0_S
1789468004.662635,2153,2881,0_S
1789468004.665205,2077,2879,0_S
1789468004.666503,2054,2878,0_S
1789468004.671242,2122,2881,0_S
1789468004.672127,2097,2880,0_S
1789468004.674284,2000,2878,0_S
1789468004.674489,2020,2878,0_S
1789468004.6776478,2064,2878,0_S
1789468004.679905,2116,2881,0_S
1789468004.682645,2002,2878,0_S
1789468004.682896,2021,2879,0_S
1789468004.684696,2086,2878,0_S
1789468004.687256,2122,2880,0_S
1789468004.688318,1953,2877,0_S
1789468004.6904058,1955,2877,0_S
1789468004.692961,2212,2880,0_S
1789468004.695276,2200,2880,0_S
1789468004.696335,2090,2880,0_S
1789468004.698642,2086,2877,0_S
1789468004.700945,2144,2880,0_S
1789468004.7030249,2166,2880,0_S
1789468004.705106,2171,2879,0_S
1789468004.706362,2105,2880,0_S
1789468004.708677,2004,2879,0_S
1789468004.710985,2077,2878,0_S
1789468004.7123,2186,2881,0_S
1789468004.714601,1982,2878,0_S
1789468004.720951,2062,2877,0_S
1789468004.7214699,2123,2880,0_S
1789468004.7216058,2052,2880,0_S
1789468004.723999,1993,2877,0_S
1789468004.726015,2151,2879,0_S
1789468004.727411,2126,2879,0_S
1789468004.729478,1869,2878,0_S
1789468004.732256,2059,2879,0_S
1789468004.732451,2346,2881,0_S
1789468004.735393,2153,2880,0_S
1789468004.736444,2219,2878,0_S
1789468004.7419,1955,2877,0_S
1789468004.742722,2071,2879,0_S
1789468004.742827,2146,2881,0_S
1789468004.7462258,2131,2878,0_S
1789468004.746656,1858,2878,0_S
1789468004.749734,2152,2881,0_S
1789468004.752474,2061,2877,0_S
1789468004.7526348,2021,2878,0_S
1789468004.7543292,2089,2881,0_S
1789468004.7566478,1961,2877,0_S
1789468004.759219,2145,2879,0_S
1789468004.760519,2165,2879,0_S
1789468004.762582,2276,2878,0_S
1789468004.764915,1934,2878,0_S
1789468004.767245,2010,2878,0_S
1789468004.7683,2080,2878,0_S
1789468004.7703779,2232,2880,0_S
1789468004.772456,1979,2876,0_S
1789468004.774817,2090,2880,0_S
1789468004.777375,2047,2879,0_S
1789468004.778677,2132,2880,0_S
1789468004.781228,2100,2879,0_S
1789468004.782489,2170,2880,0_S
1789468004.784968,1869,2878,0_S
1789468004.788963,2042,2878,0_S
1789468004.7894661,2095,2881,0_S
1789468004.7916281,2043,2879,0_S
1789468004.793652,2078,2879,0_S
1789468004.795402,2236,2879,0_S
1789468004.797209,2153,2879,0_S
1789468004.8000069,1841,2877,0_S
1789468004.801728,2003,2879,0_S
1789468004.80303,2285,2879,0_S
1789468004.8052359,2073,2881,0_S
1789468004.808955,2133,2879,0_S
1789468004.8097658,1938,2877,0_S
1789468004.812063,2040,2880,0_S
1789468004.8136342,1906,2877,0_S
1789468004.8152409,2091,2877,0_S
1789468004.817292,2204,2881,0_S
1789468004.82001,2113,2880,0_S
1789468004.821773,2255,2880,0_S
1789468004.823081,2089,2880,0_S
1789468004.8243752,2151,2880,0_S
1789468004.826725,2108,2879,0_S
1789468004.829046,2061,2882,0_S
1789468004.8313541,2046,2878,0_S
1789468004.832646,2047,2878,0_S
1789468004.8350961,2174,2881,0_S
1789468004.8363929,2001,2878,0_S
1789468004.838505,2042,2879,0_S
1789468004.84078,2093,2879,0_S
1789468004.843331,2061,2879,0_S
1789468004.8444438,2075,2879,0_S
1789468004.8469849,1930,2877,0_S
1789468004.8492942,1830,2878,0_S
1789468004.850353,2093,2878,0_S
1789468004.853055,2296,2881,0_S
1789468004.8575208,2288,2879,0_S
1789468004.8583522,2168,2879,0_S
1789468004.8599622,1930,2878,0_S
1789468004.86237,2212,2880,0_S
1789468004.862784,2205,2881,0_S
1789468004.865404,1924,2878,0_S
1789468004.868022,2054,2878,0_S
1789468004.870087,2192,2881,0_S
1789468004.871284,2093,2880,0_S
1789468004.87258,1909,2879,0_S
1789468004.878015,2059,2878,0_S
1789468004.8788722,2123,2880,0_S
1789468004.8804731,2151,2881,0_S
1789468004.88055,2014,2878,0_S
1789468004.8832982,1990,2879,0_S
1789468004.885579,2066,2878,0_S
1789468004.8883379,2152,2880,0_S
1789468004.8885472,2081,2880,0_S
1789468004.891382,2012,2879,0_S
1789468004.892677,2111,2877,0_S
1789468004.894995,2129,2879,0_S
1789468004.896332,2200,2880,0_S
1789468004.898891,2166,2878,0_S
1789468004.901422,2116,2879,0_S
1789468004.902721,2168,2880,0_S
1789468004.905032,2093,2879,0_S
1789468004.906325,2097,2878,0_S
1789468004.90877,2044,2878,0_S
1789468004.911081,1919,2877,0_S
1789468004.912373,1968,2878,0_S
1789468004.914921,2158,2881,0_S
1789468004.917004,2039,2879,0_S
1789468004.919318,2157,2881,0_S
1789468004.920372,2122,2879,0_S
1789468004.9251032,2074,2879,0_S
1789468004.9255948,1999,2879,0_S
1789468004.92798,2142,2879,0_S
1789468004.929513,2078,2878,0_S
1789468004.931222,2262,2881,0_S
1789468004.933485,1968,2878,0_S
1789468004.936034,1926,2879,0_S
1789468004.938143,1810,2877,0_S
1789468004.939231,2024,2880,0_S
1789468004.940295,2466,2880,0_S
1789468004.9462888,2174,2881,0_S
1789468004.947545,2090,2880,0_S
1789468004.948756,2096,2876,0_S
1789468004.949016,2119,2880,0_S
1789468004.951214,2206,2880,0_S
1789468004.954008,2199,2881,0_S
1789468004.956543,2118,2880,0_S
1789468004.956678,1968,2880,0_S
1789468004.958722,1959,2878,0_S
1789468004.961029,1973,2877,0_S
1789468004.963291,1963,2879,0_S
1789468004.964339,2087,2879,0_S
1789468004.9669352,2065,2878,0_S
1789468004.96908,2191,2879,0_S
1789468004.971228,2103,2879,0_S
1789468004.972319,2008,2879,0_S
1789468004.974633,2059,2878,0_S
1789468004.977118,2054,2879,0_S
1789468004.978413,2193,2881,0_S
1789468004.980968,2022,2879,0_S
1789468004.9834392,2074,2879,0_S
1789468004.9845068,2131,2881,0_S
1789468004.9868412,2123,2879,0_S
1789468004.993309,2085,2878,0_S
1789468004.9938,1977,2878,0_S
1789468004.9938922,1953,2877,0_S
1789468004.99616,2106,2880,0_S
1789468004.998091,2066,2878,0_S
1789468004.9999318,2134,2879,0_S
1789468005.004173,2129,2880,0_S
1789468005.0043352,2133,2880,0_S
1789468005.004499,2107,2879,0_S
1789468005.00662,2115,2879,0_S
1789468005.009186,2075,2879,0_S
1789468005.013686,2091,2880,0_S
1789468005.014113,2074,2877,0_S
1789468005.016643,1988,2878,0_S
1789468005.016856,1972,2877,0_S
1789468005.01893,2127,2879,0_S
1789468005.0208151,2090,2879,0_S
1789468005.024609,1843,2876,0_S
1789468005.024756,2261,2879,0_S
1789468005.026937,2165,2879,0_S
1789468005.029253,2163,2880,0_S
1789468005.030357,2065,2878,0_S
1789468005.032682,2057,2878,0_S
1789468005.034803,2113,2877,0_S
1789468005.036868,2089,2880,0_S
1789468005.039423,2131,2879,0_S
1789468005.04048,2103,2879,0_S
1789468005.0430279,1969,2876,0_S
1789468005.045334,2019,2879,0_S
1789468005.046389,2077,2878,0_S
1789468005.048939,1972,2879,0_S
1789468005.051241,2109,2878,0_S
1789468005.0523038,2161,2880,0_S
1789468005.0546079,2148,2879,0_S
1789468005.056936,2057,2880,0_S
1789468005.061565,2063,2878,0_S
1789468005.0617092,2146,2880,0_S
1789468005.064159,2063,2878,0_S
1789468005.065774,2000,2878,0_S
1789468005.06775,2114,2878,0_S
1789468005.069417,2165,2880,0_S
1789468005.0716531,2094,2878,0_S
1789468005.0738502,2034,2879,0_S
1789468005.075145,2029,2879,0_S
1789468005.0774798,2049,2879,0_S
1789468005.078773,2102,2880,0_S
1789468005.081236,1996,2877,0_S
1789468005.0825331,2015,2879,0_S
1789468005.085081,2122,2881,0_S
1789468005.0863008,2137,2879,0_S
1789468005.0886059,2036,2878,0_S
1789468005.0909061,2016,2878,0_S
1789468005.093308,2015,2876,0_S
1789468005.0946,2078,2879,0_S
1789468005.0970838,2063,2877,0_S
1789468005.098349,2154,2879,0_S
1789468005.100896,2138,2879,0_S
1789468005.103155,2118,2878,0_S
1789468005.104352,2122,2879,0_S
1789468005.108552,2098,2879,0_S
1789468005.109343,2046,2880,0_S
1789468005.111299,2006,2878,0_S
1789468005.11323,2123,2880,0_S
1789468005.115154,2013,2878,0_S
1789468005.118602,2025,2877,0_S
1789468005.1187258,2088,2879,0_S
1789468005.120859,2091,2878,0_S
1789468005.123421,2052,2880,0_S
1789468005.124725,2097,2880,0_S
1789468005.12729,2088,2880,0_S
1789468005.128591,2130,2879,0_S
1789468005.130906,2067,2879,0_S
1789468005.1323168,2007,2879,0_S
1789468005.134391,2085,2881,0_S
1789468005.136943,2042,2880,0_S
1789468005.1392488,1953,2876,0_S
1789468005.140544,2071,2879,0_S
1789468005.142862,2136,2880,0_S
1789468005.1451771,2250,2879,0_S
1789468005.1462998,2118,2880,0_S
1789468005.148618,1960,2878,0_S
1789468005.150935,2059,2877,0_S
1789468005.155669,2234,2881,0_S
1789468005.1566012,2173,2879,0_S
1789468005.1570508,1970,2879,0_S
1789468005.15871,2034,2878,0_S
1789468005.1620932,2074,2878,0_S
1789468005.163729,2077,2879,0_S
1789468005.1660109,2038,2878,0_S
1789468005.168236,1676,2877,0_S
1789468005.168503,1820,2878,0_S
1789468005.17082,2529,2879,0_S
1789468005.175916,2292,2880,0_S
1789468005.176783,2048,2878,0_S
1789468005.177571,1851,2877,0_S
1789468005.180588,1920,2878,0_S
1789468005.1809778,2538,2881,0_S
1789468005.185993,2363,2880,0_S
1789468005.1861818,1527,2877,0_S
1789468005.1864462,2169,2880,0_S
1789468005.189467,2163,2880,0_S
1789468005.190527,1910,2878,0_S
1789468005.193015,1444,2878,0_S
1789468005.195329,1733,2878,0_S
1789468005.1966221,2820,2881,0_S
1789468005.199189,2343,2882,0_S
1789468005.2014961,2127,2880,0_S
1789468005.202794,2147,2880,0_S
1789468005.204921,2111,2880,0_S
1789468005.20629,2258,2881,0_S
1789468005.2086,1891,2878,0_S
1789468005.2106721,2238,2881,0_S
1789468005.212984,1866,2877,0_S
1789468005.215262,1701,2878,0_S
1789468005.216567,2057,2881,0_S
1789468005.2188768,1928,2877,0_S
1789468005.2229602,2004,2879,0_S
1789468005.2234461,2140,2881,0_S
1789468005.22606,1989,2876,0_S
1789468005.2284212,2363,2880,0_S
1789468005.228815,1945,2878,0_S
1789468005.231481,1725,2879,0_S
1789468005.233693,2350,2881,0_S
1789468005.235911,2207,2879,0_S
1789468005.237206,2048,2879,0_S
1789468005.238503,2014,2880,0_S
1789468005.240897,2090,2880,0_S
1789468005.243217,2121,2880,0_S
1789468005.244513,2089,2878,0_S
1789468005.2469802,2090,2878,0_S
1789468005.249297,1932,2878,0_S
1789468005.250589,1969,2878,0_S
1789468005.2528992,2071,2880,0_S
1789468005.254963,2039,2879,0_S
1789468005.25632,2021,2879,0_S
1789468005.258878,2029,2880,0_S
1789468005.261031,2105,2881,0_S
1789468005.26233,2046,2878,0_S
1789468005.264885,1980,2879,0_S
1789468005.2706492,2007,2879,0_S
1789468005.271184,2144,2880,0_S
1789468005.271915,2062,2878,0_S
1789468005.2735932,2007,2878,0_S
1789468005.275104,2061,2879,0_S
1789468005.277268,2062,2880,0_S
1789468005.2786849,2081,2879,0_S
1789468005.280869,2063,2879,0_S
1789468005.283136,1954,2878,0_S
1789468005.2854662,1918,2877,0_S
1789468005.286776,2135,2880,0_S
1789468005.289259,2183,2878,0_S
1789468005.290567,1740,2875,0_S
1789468005.292655,2209,2879,0_S
1789468005.294964,2304,2881,0_S
1789468005.297308,2295,2880,0_S
1789468005.298605,2116,2880,0_S
1789468005.3011332,2147,2880,0_S
1789468005.3024268,2149,2881,0_S
1789468005.3049788,2123,2880,0_S
1789468005.306339,2093,2879,0_S
1789468005.30889,1939,2876,0_S
1789468005.311414,2017,2878,0_S
1789468005.312706,2023,2878,0_S
1789468005.317024,1773,2877,0_S
1789468005.318586,1837,2878,0_S
1789468005.3190532,2404,2880,0_S
1789468005.321779,2279,2879,0_S
1789468005.323703,1984,2878,0_S
1789468005.325454,1956,2876,0_S
1789468005.32757,2004,2878,0_S
1789468005.329689,2105,2878,0_S
1789468005.330754,2155,2880,0_S
1789468005.333267,2279,2881,0_S
1789468005.334561,1708,2877,0_S
1789468005.336881,1691,2877,0_S
1789468005.3390982,2376,2880,0_S
1789468005.340391,2572,2881,0_S
1789468005.342693,2028,2880,0_S
1789468005.345154,2059,2880,0_S
1789468005.347463,2243,2880,0_S
1789468005.34851,2082,2877,0_S
1789468005.3510568,2153,2879,0_S
1789468005.353368,2031,2877,0_S
1789468005.354421,1873,2876,0_S
1789468005.356731,1607,2877,0_S
1789468005.359287,2447,2880,0_S
1789468005.363749,2136,2880,0_S
1789468005.3642209,1417,2876,0_S
1789468005.364672,1380,2877,0_S
1789468005.366555,3066,2882,0_S
1789468005.3696141,2246,2880,0_S
1789468005.371528,1621,2877,0_S
1789468005.37361,2443,2879,0_S
1789468005.375594,2001,2879,0_S
1789468005.3769028,2019,2877,0_S
1789468005.379216,2242,2879,0_S
1789468005.380482,1951,2878,0_S
1789468005.382741,2012,2878,0_S
1789468005.385175,2069,2878,0_S
1789468005.386473,2139,2879,0_S
1789468005.389025,1479,2877,0_S
1789468005.3903182,843,2876,0_S
1789468005.3928819,2224,2880,0_S
1789468005.395445,3026,2881,0_S
1789468005.3967419,1521,2876,0_S
1789468005.3993459,2524,2882,0_S
1789468005.400515,2900,2882,0_S
1789468005.403069,1823,2878,0_S
1789468005.404362,2399,2880,0_S
1789468005.409846,2261,2880,0_S
1789468005.410369,562,2876,0_S
1789468005.410847,1664,2877,0_S
1789468005.413217,2282,2880,0_S
1789468005.415733,1360,2876,0_S
1789468005.418786,2618,2882,0_S
1789468005.418985,2930,2882,0_S
1789468005.4212182,1288,2876,0_S
1789468005.42336,1722,2878,0_S
1789468005.424659,2414,2879,0_S
1789468005.427337,2861,2882,0_S
1789468005.4317398,924,2878,0_S
1789468005.4321432,1292,2877,0_S
1789468005.433574,2008,2880,0_S
1789468005.435426,2181,2880,0_S
1789468005.4371479,1337,2877,0_S
1789468005.438592,193,2877,0_S
1789468005.440972,3587,2883,0_S
1789468005.442933,2787,2881,0_S
1789468005.445248,1597,2877,0_S
1789468005.446317,2676,2881,0_S
1789468005.44858,2062,2879,0_S
1789468005.4511302,1520,2876,0_S
1789468005.4522948,1881,2878,0_S
1789468005.4548428,1985,2879,0_S
1789468005.457391,1679,2877,0_S
1789468005.458445,2254,2880,0_S
1789468005.460992,2325,2879,0_S
1789468005.463385,1724,2877,0_S
1789468005.464677,1818,2877,0_S
1789468005.466975,1887,2877,0_S
1789468005.469277,2271,2881,0_S
1789468005.470325,2128,2880,0_S
1789468005.472388,2032,2876,0_S
1789468005.476962,2050,2878,0_S
1789468005.47741,1890,2878,0_S
1789468005.4793038,1986,2877,0_S
1789468005.481281,1992,2880,0_S
1789468005.483948,1789,2877,0_S
1789468005.4864168,1613,2876,0_S
1789468005.48661,2037,2877,0_S
1789468005.488655,2219,2880,0_S
1789468005.491221,2315,2881,0_S
1789468005.492519,2224,2880,0_S
1789468005.4946828,1682,2878,0_S
1789468005.497235,2063,2878,0_S
1789468005.498531,2110,2880,0_S
1789468005.500903,2038,2878,0_S
1789468005.503241,1992,2878,0_S
1789468005.50453,1984,2876,0_S
1789468005.506721,2004,2876,0_S
1789468005.5087821,1645,2877,0_S
1789468005.5110989,1645,2876,0_S
1789468005.5123892,2815,2881,0_S
1789468005.514456,2114,2880,0_S
1789468005.5167658,1950,2876,0_S
1789468005.5214772,2069,2880,0_S
1789468005.521926,2107,2878,0_S
1789468005.524178,1812,2878,0_S
1789468005.524391,2574,2881,0_S
1789468005.5268962,2291,2879,0_S
1789468005.529248,1686,2876,0_S
1789468005.531735,1730,2877,0_S
1789468005.533866,2287,2881,0_S
1789468005.5351858,1800,2878,0_S
1789468005.53648,2035,2878,0_S
1789468005.5390341,2044,2878,0_S
1789468005.540332,1993,2878,0_S
1789468005.542646,2293,2879,0_S
1789468005.544957,1627,2876,0_S
1789468005.547049,1377,2877,0_S
1789468005.5491688,1947,2877,0_S
1789468005.5503192,2166,2879,0_S
1789468005.552871,2123,2878,0_S
1789468005.555437,2252,2880,0_S
1789468005.556727,1992,2881,0_S
1789468005.558785,1952,2877,0_S
1789468005.561096,1899,2878,0_S
1789468005.566934,2148,2878,0_S
1789468005.567656,1849,2877,0_S
1789468005.568078,2202,2880,0_S
1789468005.569514,2743,2881,0_S
1789468005.5713,2103,2878,0_S
1789468005.572789,1694,2878,0_S
1789468005.576915,2179,2880,0_S
1789468005.577039,1969,2879,0_S
1789468005.578732,1810,2878,0_S
1789468005.581297,1794,2878,0_S
1789468005.582449,2229,2879,0_S
1789468005.585224,2146,2881,0_S
1789468005.586554,1795,2879,0_S
1789468005.589109,1809,2877,0_S
1789468005.5903559,2055,2878,0_S
1789468005.592917,2287,2880,0_S
1789468005.5954702,2774,2881,0_S
1789468005.596528,2244,2879,0_S
1789468005.598837,2067,2877,0_S
1789468005.601147,2208,2880,0_S
1789468005.602438,2103,2880,0_S
1789468005.604983,2303,2879,0_S
1789468005.6063209,2629,2880,0_S
1789468005.6086242,2478,2880,0_S
1789468005.612424,2537,2881,0_S
1789468005.6136699,2424,2881,0_S
1789468005.6151161,2151,2877,0_S
1789468005.617086,2106,2878,0_S
1789468005.620317,2284,2881,0_S
1789468005.6204648,2429,2880,0_S
1789468005.6232262,2499,2878,0_S
1789468005.625262,2413,2880,0_S
1789468005.626563,2407,2881,0_S
1789468005.632746,2093,2877,0_S
1789468005.633259,2147,2878,0_S
1789468005.6333492,2236,2879,0_S
1789468005.635478,2280,2880,0_S
1789468005.6372852,1981,2877,0_S
1789468005.638804,1776,2877,0_S
1789468005.640417,1784,2876,0_S
1789468005.643125,1878,2877,0_S
1789468005.645083,2175,2881,0_S
1789468005.646395,2139,2880,0_S
1789468005.648948,2011,2878,0_S
1789468005.650372,2574,2881,0_S
1789468005.6526809,2153,2880,0_S
1789468005.655234,2058,2880,0_S
1789468005.656526,2133,2879,0_S
1789468005.659071,2107,2880,0_S
1789468005.660362,1934,2877,0_S
1789468005.662668,2118,2881,0_S
1789468005.665215,2009,2878,0_S
1789468005.6665049,2049,2878,0_S
1789468005.669067,2046,2879,0_S
1789468005.670362,2081,2879,0_S
1789468005.6729112,2051,2880,0_S
1789468005.677956,2054,2880,0_S
1789468005.6780741,2069,2880,0_S
1789468005.680406,2101,2880,0_S
1789468005.680618,2115,2877,0_S
1789468005.683745,2087,2880,0_S
1789468005.685314,2170,2880,0_S
1789468005.688017,2170,2880,0_S
1789468005.690062,2058,2879,0_S
1789468005.6913621,2121,2880,0_S
1789468005.6924129,2133,2880,0_S
1789468005.694719,2144,2880,0_S
1789468005.697278,2072,2877,0_S
1789468005.698571,2198,2882,0_S
1789468005.701118,2195,2881,0_S
1789468005.703449,2155,2880,0_S
1789468005.704501,2129,2880,0_S
1789468005.7068071,2029,2879,0_S
1789468005.708941,1996,2876,0_S
1789468005.7112582,2196,2881,0_S
1789468005.712312,2113,2881,0_S
1789468005.714624,2057,2879,0_S
1789468005.716688,2154,2880,0_S
1789468005.718996,2168,2880,0_S
1789468005.7229528,2254,2880,0_S
1789468005.72438,2014,2880,0_S
1789468005.725572,2112,2878,0_S
1789468005.727107,2438,2880,0_S
1789468005.728894,2189,2881,0_S
1789468005.730525,2021,2878,0_S
1789468005.7331991,2119,2878,0_S
1789468005.7348638,2317,2881,0_S
1789468005.737184,2252,2880,0_S
1789468005.738313,1910,2877,0_S
1789468005.740609,1816,2877,0_S
1789468005.742933,2053,2878,0_S
1789468005.745248,1954,2878,0_S
1789468005.746539,2331,2880,0_S
1789468005.7486248,2396,2880,0_S
1789468005.75118,1936,2877,0_S
1789468005.752476,2124,2880,0_S
1789468005.755024,2191,2879,0_S
1789468005.756295,2231,2880,0_S
1789468005.758844,2169,2881,0_S
1789468005.761153,2221,2880,0_S
1789468005.7623181,2026,2880,0_S
1789468005.768094,1981,2878,0_S
1789468005.7685819,1902,2877,0_S
1789468005.768974,2104,2880,0_S
1789468005.770804,2137,2879,0_S
1789468005.7725282,2295,2879,0_S
1789468005.775685,2137,2879,0_S
1789468005.778481,2094,2879,0_S
1789468005.778682,2132,2879,0_S
1789468005.7807481,2043,2878,0_S
1789468005.783113,2034,2878,0_S
1789468005.784678,2018,2877,0_S
1789468005.787049,2192,2879,0_S
1789468005.788345,2236,2880,0_S
1789468005.790897,1928,2877,0_S
1789468005.793212,1984,2877,0_S
1789468005.794503,2156,2880,0_S
1789468005.797049,2126,2880,0_S
1789468005.7983072,2078,2877,0_S
1789468005.800662,2143,2879,0_S
1789468005.802971,2168,2880,0_S
1789468005.8042948,2128,2879,0_S
1789468005.806605,2052,2878,0_S
1789468005.809154,2071,2879,0_S
1789468005.810453,2137,2880,0_S
1789468005.815094,2087,2877,0_S
1789468005.8159308,2058,2877,0_S
1789468005.817492,2064,2879,0_S
1789468005.819294,2107,2880,0_S
1789468005.8208342,2156,2879,0_S
1789468005.822525,2020,2879,0_S
1789468005.825485,2095,2879,0_S
1789468005.827181,2148,2879,0_S
1789468005.828541,2139,2879,0_S
1789468005.831139,2082,2877,0_S
1789468005.8325021,1781,2879,0_S
1789468005.835066,2194,2881,0_S
1789468005.837284,2373,2880,0_S
1789468005.838633,2147,2877,0_S
1789468005.840783,2062,2880,0_S
1789468005.842857,2079,2880,0_S
1789468005.845161,2170,2881,0_S
1789468005.846331,2108,2878,0_S
1789468005.848892,2108,2879,0_S
1789468005.850304,2095,2878,0_S
1789468005.85261,1983,2878,0_S
1789468005.854752,2239,2879,0_S
1789468005.8568802,2088,2879,0_S
1789468005.862965,1882,2876,0_S
1789468005.863564,2064,2876,0_S
1789468005.8644302,2251,2880,0_S
1789468005.866079,2179,2880,0_S
1789468005.868024,2253,2880,0_S
1789468005.869663,2157,2879,0_S
1789468005.871543,2060,2878,0_S
1789468005.874421,2055,2879,0_S
1789468005.874827,1976,2876,0_S
1789468005.8769212,2197,2881,0_S
1789468005.879242,1862,2877,0_S
1789468005.8846111,2210,2880,0_S
1789468005.88546,2204,2881,0_S
1789468005.885895,2021,2880,0_S
1789468005.88853,1997,2876,0_S
1789468005.8889658,2100,2880,0_S
1789468005.890958,2110,2880,0_S
1789468005.892528,2101,2879,0_S
1789468005.895904,2054,2878,0_S
1789468005.897548,2116,2880,0_S
1789468005.89901,2014,2878,0_S
1789468005.901353,2124,2880,0_S
1789468005.902663,2132,2879,0_S
1789468005.904974,2249,2880,0_S
1789468005.906484,2000,2877,0_S
1789468005.909007,2100,2880,0_S
1789468005.911183,2357,2881,0_S
1789468005.912331,1965,2879,0_S
1789468005.914886,1945,2877,0_S
1789468005.9171479,2020,2878,0_S
1789468005.919465,2070,2879,0_S
1789468005.920794,2047,2879,0_S
1789468005.923151,2023,2879,0_S
1789468005.924444,1968,2876,0_S
1789468005.92676,2030,2878,0_S
1789468005.929662,2046,2877,0_S
1789468005.934392,2114,2880,0_S
1789468005.9349492,2118,2879,0_S
1789468005.935485,2142,2880,0_S
1789468005.939239,2051,2880,0_S
1789468005.939418,2017,2879,0_S
1789468005.941195,2253,2880,0_S
1789468005.942729,2338,2881,0_S
1789468005.945697,2136,2881,0_S
1789468005.9479759,1995,2879,0_S
1789468005.949306,2044,2878,0_S
1789468005.9503622,2090,2877,0_S
1789468005.955602,2114,2880,0_S
1789468005.956088,2154,2880,0_S
1789468005.9583192,2094,2880,0_S
1789468005.960287,2024,2880,0_S
1789468005.962264,2059,2880,0_S
1789468005.963834,1892,2877,0_S
1789468005.966732,2069,2880,0_S
1789468005.967104,2123,2877,0_S
1789468005.968767,2216,2880,0_S
1789468005.971062,2069,2879,0_S
1789468005.973293,1902,2876,0_S
1789468005.975629,2080,2879,0_S
1789468005.9769258,2170,2880,0_S
1789468005.978998,2195,2880,0_S
1789468005.9812999,2092,2878,0_S
1789468005.982732,1998,2878,0_S
1789468005.984457,2089,2878,0_S
1789468005.987017,2127,2880,0_S
1789468005.989335,2179,2879,0_S
1789468005.99039,2048,2880,0_S
1789468005.992705,1966,2877,0_S
1789468005.995023,2241,2879,0_S
1789468005.996326,2089,2878,0_S
1789468005.998763,1977,2878,0_S
1789468006.004823,2081,2879,0_S
1789468006.0053592,2019,2878,0_S
1789468006.0059168,2063,2879,0_S
1789468006.007894,2213,2879,0_S
1789468006.009629,2112,2879,0_S
1789468006.0109131,2201,2879,0_S
1789468006.013261,2074,2880,0_S
1789468006.016455,1962,2879,0_S
1789468006.01662,2000,2879,0_S
1789468006.018846,2259,2880,0_S
1789468006.02141,2180,2880,0_S
1789468006.022673,2036,2878,0_S
1789468006.028569,2004,2879,0_S
1789468006.0303879,2015,2880,0_S
1789468006.0305011,2047,2878,0_S
1789468006.030664,2038,2879,0_S
1789468006.033827,2172,2878,0_S
1789468006.0360162,2149,2881,0_S
1789468006.039093,2064,2880,0_S
1789468006.0394518,2036,2879,0_S
1789468006.0416808,2033,2880,0_S
1789468006.042742,2008,2880,0_S
1789468006.045043,2021,2879,0_S
1789468006.047376,2161,2881,0_S
1789468006.0484328,2354,2881,0_S
1789468006.051739,2057,2878,0_S
1789468006.0528011,2076,2880,0_S
1789468006.0553558,2134,2880,0_S
1789468006.056654,2170,2878,0_S
1789468006.0587552,2060,2879,0_S
1789468006.061088,2078,2879,0_S
1789468006.062409,2029,2877,0_S
1789468006.064733,1983,2879,0_S
1789468006.0670688,2137,2882,0_S
1789468006.069168,2102,2881,0_S
1789468006.070465,2012,2877,0_S
1789468006.073024,2077,2880,0_S
1789468006.0800781,2046,2878,0_S
1789468006.0827541,2016,2877,0_S
1789468006.084539,1931,2878,0_S
1789468006.087907,2204,2880,0_S
1789468006.0967832,2314,2879,0_S
1789468006.0968451,1969,2878,0_S
1789468006.096883,2078,2879,0_S
1789468006.096918,2262,2880,0_S
1789468006.097482,1987,2877,0_S
1789468006.0989041,2022,2878,0_S
1789468006.098956,2036,2878,0_S
1789468006.098994,2221,2881,0_S
1789468006.0996459,2050,2878,0_S
1789468006.101229,1985,2878,0_S
1789468006.110419,2078,2879,0_S
1789468006.111049,2058,2879,0_S
1789468006.111514,2291,2880,0_S
1789468006.112546,2233,2880,0_S
1789468006.113101,2223,2880,0_S
1789468006.119309,1889,2877,0_S
1789468006.119753,2027,2879,0_S
1789468006.12016,2164,2880,0_S
1789468006.120296,2132,2879,0_S
1789468006.122349,1979,2876,0_S
1789468006.1225998,1986,2879,0_S
1789468006.125269,2167,2880,0_S
1789468006.1265678,2149,2879,0_S
1789468006.129156,2073,2880,0_S
1789468006.131406,1993,2877,0_S
1789468006.132471,2144,2879,0_S
1789468006.134551,1989,2878,0_S
1789468006.137238,2156,2880,0_S
1789468006.1385548,2125,2879,0_S
1789468006.140806,1774,2877,0_S
1789468006.142886,1841,2878,0_S
1789468006.1450791,2316,2880,0_S
1789468006.147489,2146,2881,0_S
1789468006.148865,2287,2880,0_S
1789468006.15122,2264,2880,0_S
1789468006.153661,2120,2881,0_S
1789468006.154731,1923,2877,0_S
1789468006.162848,2024,2879,0_S
1789468006.163423,2386,2880,0_S
1789468006.165558,1918,2877,0_S
1789468006.165834,1956,2878,0_S
1789468006.1661491,2054,2880,0_S
1789468006.2101882,2206,2880,0_S
1789468006.210251,2064,2879,0_S
1789468006.210294,1849,2877,0_S
1789468006.210334,1818,2877,0_S
1789468006.210547,2088,2877,0_S
1789468006.210602,2173,2880,0_S
1789468006.210708,2010,2878,0_S
1789468006.210756,1896,2877,0_S
1789468006.210797,1972,2877,0_S
1789468006.211193,2244,2879,0_S
1789468006.211243,2080,2879,0_S
1789468006.211283,2199,2880,0_S
1789468006.211322,2313,2881,0_S
1789468006.211823,2145,2880,0_S
1789468006.211869,2072,2879,0_S
1789468006.211908,1876,2877,0_S
1789468006.211946,1987,2877,0_S
1789468006.211984,2101,2881,0_S
1789468006.212022,2032,2877,0_S
1789468006.2121441,2069,2878,0_S
1789468006.212186,2062,2880,0_S
1789468006.212224,2064,2879,0_S
1789468006.212438,2142,2880,0_S
1789468006.212506,2055,2878,0_S
1789468006.216516,1982,2878,0_S
1789468006.2169962,2255,2880,0_S
1789468006.2217689,2154,2880,0_S
1789468006.222655,1972,2876,0_S
1789468006.222721,2063,2879,0_S
1789468006.22597,2143,2879,0_S
1789468006.227618,2098,2878,0_S
1789468006.229013,2016,2878,0_S
1789468006.230934,2003,2878,0_S
1789468006.232948,2005,2878,0_S
1789468006.235023,2126,2880,0_S
1789468006.244812,2225,2880,0_S
1789468006.244863,2084,2880,0_S
1789468006.2449028,2067,2880,0_S
1789468006.244941,2091,2879,0_S
1789468006.244979,2055,2877,0_S
1789468006.248023,1860,2878,0_S
1789468006.26994,2160,2880,0_S
1789468006.269998,2134,2879,0_S
1789468006.27004,2112,2879,0_S
1789468006.270079,2141,2878,0_S
1789468006.270116,2020,2878,0_S
1789468006.270153,2104,2879,0_S
1789468006.27019,2134,2879,0_S
1789468006.270227,2155,2880,0_S
1789468006.2702641,1944,2878,0_S
1789468006.2703092,1954,2878,0_S
1789468006.270346,1940,2878,0_S
1789468006.272109,2130,2879,0_S
1789468006.2999449,2281,2879,0_S
1789468006.300062,2049,2878,0_S
1789468006.3001542,2181,2880,0_S
1789468006.300202,2063,2878,0_S
1789468006.300247,2086,2879,0_S
1789468006.3006148,2212,2880,0_S
1789468006.30067,2172,2880,0_S
1789468006.300769,2169,2880,0_S
1789468006.3008158,2087,2878,0_S
1789468006.300861,1850,2877,0_S
1789468006.3009028,2020,2877,0_S
1789468006.300947,2161,2880,0_S
1789468006.300991,2280,2880,0_S
1789468006.301204,2124,2880,0_S
1789468006.301258,2020,2877,0_S
1789468006.329103,1916,2878,0_S
1789468006.331414,1958,2877,0_S
1789468006.3317618,2341,2880,0_S
1789468006.3321202,2225,2880,0_S
1789468006.3324642,1879,2878,0_S
1789468006.332543,1852,2878,0_S
1789468006.332619,2249,2880,0_S
1789468006.3326788,2238,2880,0_S
1789468006.332768,2292,2881,0_S
1789468006.332813,2138,2880,0_S
1789468006.3328571,2172,2879,0_S
1789468006.3329,1956,2876,0_S
1789468006.333054,1593,2877,0_S
1789468006.333187,2127,2878,0_S
1789468006.333246,2323,2880,0_S
1789468006.333316,2189,2879,0_S
1789468006.3350458,2078,2880,0_S
1789468006.365298,2098,2879,0_S
1789468006.365452,1885,2877,0_S
1789468006.365508,1936,2878,0_S
1789468006.3655539,2362,2881,0_S
1789468006.365597,2248,2880,0_S
1789468006.366132,1958,2878,0_S
1789468006.366178,1983,2877,0_S
1789468006.36622,2120,2878,0_S
1789468006.3951738,2114,2879,0_S
1789468006.395335,2108,2880,0_S
1789468006.395392,2128,2880,0_S
1789468006.3955042,2128,2879,0_S
1789468006.3955488,2175,2880,0_S
1789468006.395591,2095,2877,0_S
1789468006.395654,2037,2878,0_S
1789468006.395862,2041,2878,0_S
1789468006.395915,2051,2879,0_S
1789468006.39596,1960,2876,0_S
1789468006.3960042,2128,2879,0_S
1789468006.3960571,2122,2878,0_S
1789468006.3961658,2099,2879,0_S
1789468006.3962398,2115,2880,0_S
1789468006.3962839,2098,2880,0_S
1789468006.407548,2116,2879,0_S
1789468006.407677,2159,2881,0_S
1789468006.407732,2141,2878,0_S
1789468006.407833,2034,2879,0_S
1789468006.407902,2133,2879,0_S
1789468006.407948,2102,2878,0_S
1789468006.4080498,2095,2880,0_S
1789468006.408101,1993,2878,0_S
1789468006.4081438,2004,2878,0_S
1789468006.408187,2056,2877,0_S
1789468006.408229,2135,2880,0_S
1789468006.408271,2079,2879,0_S
1789468006.408363,2055,2879,0_S
1789468006.408909,2076,2879,0_S
1789468006.415935,2116,2880,0_S
1789468006.416054,2038,2877,0_S
1789468006.4161391,2012,2878,0_S
1789468006.418549,2065,2878,0_S
1789468006.418611,2133,2880,0_S
1789468006.423949,2064,2878,0_S
1789468006.424031,2028,2880,0_S
1789468006.4255319,2106,2879,0_S
1789468006.428002,2122,2880,0_S
1789468006.4297469,2075,2877,0_S
1789468006.433394,2033,2879,0_S
1789468006.4334562,2092,2879,0_S
1789468006.435072,2125,2880,0_S
1789468006.437292,2117,2879,0_S
1789468006.438829,2050,2877,0_S
1789468006.441612,2055,2878,0_S
1789468006.442991,2047,2879,0_S
1789468006.445784,2100,2880,0_S
1789468006.4471328,1967,2878,0_S
1789468006.451296,2051,2878,0_S
1789468006.461984,2162,2880,0_S
1789468006.4622989,2202,2880,0_S
1789468006.4664462,2106,2878,0_S
1789468006.46887,2076,2879,0_S
1789468006.472657,2117,2879,0_S
1789468006.479882,2107,2880,0_S
1789468006.480003,2100,2877,0_S
1789468006.480122,2077,2878,0_S
1789468006.480284,2157,2879,0_S
1789468006.480425,2138,2879,0_S
1789468006.48051,2050,2879,0_S
1789468006.4805608,2142,2879,0_S
1789468006.4806778,2118,2880,0_S
1789468006.480823,2057,2880,0_S
1789468006.4809432,2091,2877,0_S
1789468006.4810612,2044,2878,0_S
1789468006.4835851,2043,2879,0_S
1789468006.485277,2049,2878,0_S
1789468006.492492,2091,2879,0_S
1789468006.493152,2003,2879,0_S
1789468006.495005,2012,2878,0_S
1789468006.495284,2071,2879,0_S
1789468006.497489,2123,2880,0_S
1789468006.498137,2037,2879,0_S
1789468006.499472,2064,2879,0_S
1789468006.502882,2095,2878,0_S
1789468006.506044,2089,2880,0_S
1789468006.506973,2025,2878,0_S
1789468006.509314,2051,2879,0_S
1789468006.510035,2090,2878,0_S
1789468006.511116,1996,2877,0_S
1789468006.5134542,2036,2878,0_S
1789468006.514789,2177,2881,0_S
1789468006.5171251,2099,2878,0_S
1789468006.5184681,2111,2881,0_S
1789468006.5208058,2140,2880,0_S
1789468006.523375,1974,2878,0_S
1789468006.52445,1903,2877,0_S
1789468006.5270169,2050,2878,0_S
1789468006.529176,2219,2881,0_S
1789468006.5305018,2003,2877,0_S
1789468006.533021,1993,2877,0_S
1789468006.5353658,2301,2881,0_S
1789468006.536463,2124,2879,0_S
1789468006.5388129,2101,2879,0_S
1789468006.54114,2261,2879,0_S
1789468006.543381,2184,2879,0_S
1789468006.544694,1999,2878,0_S
1789468006.5470169,2039,2878,0_S
1789468006.5497742,1882,2878,0_S
1789468006.555867,1873,2878,0_S
1789468006.556633,2103,2879,0_S
1789468006.557291,2023,2879,0_S
1789468006.557858,2119,2878,0_S
1789468006.559838,2322,2880,0_S
1789468006.564836,2077,2880,0_S
1789468006.571396,2054,2879,0_S
1789468006.5717728,2081,2879,0_S
1789468006.572,2148,2878,0_S
1789468006.572426,2082,2878,0_S
1789468006.575095,2117,2880,0_S
1789468006.5752609,1944,2878,0_S
1789468006.575535,1980,2878,0_S
1789468006.576854,2067,2879,0_S
1789468006.5794759,2004,2878,0_S
1789468006.5865831,2010,2880,0_S
1789468006.587353,2093,2878,0_S
1789468006.588434,2157,2880,0_S
1789468006.590291,2135,2880,0_S
1789468006.590513,1873,2876,0_S
1789468006.593005,2029,2878,0_S
1789468006.5936,2142,2879,0_S
1789468006.5959659,2002,2877,0_S
1789468006.597899,1969,2879,0_S
1789468006.600868,2149,2879,0_S
1789468006.601115,2131,2879,0_S
1789468006.604204,2179,2879,0_S
1789468006.605289,2071,2878,0_S
1789468006.6064498,2006,2878,0_S
1789468006.608788,2054,2880,0_S
1789468006.6113632,2123,2880,0_S
1789468006.612493,2120,2881,0_S
1789468006.614583,2046,2878,0_S
1789468006.6171799,2118,2879,0_S
1789468006.618494,2138,2881,0_S
1789468006.6205912,2056,2880,0_S
1789468006.623163,2037,2879,0_S
1789468006.624469,2178,2879,0_S
1789468006.627049,2039,2879,0_S
1789468006.629385,2098,2880,0_S
1789468006.630456,2098,2878,0_S
1789468006.632771,2041,2879,0_S
1789468006.63489,2129,2880,0_S
1789468006.636978,2135,2879,0_S
1789468006.639067,2097,2878,0_S
1789468006.6414158,2036,2879,0_S
1789468006.64276,2065,2879,0_S
1789468006.6452532,2110,2880,0_S
1789468006.651007,2074,2878,0_S
1789468006.6516402,2100,2879,0_S
1789468006.652288,2129,2881,0_S
1789468006.6528761,2128,2880,0_S
1789468006.6570299,2069,2879,0_S
1789468006.65851,1994,2879,0_S
1789468006.658956,2071,2880,0_S
1789468006.661545,2181,2880,0_S
1789468006.664347,2082,2879,0_S
1789468006.6645918,2074,2880,0_S
1789468006.6669922,2084,2879,0_S
1789468006.669245,2120,2880,0_S
1789468006.6705432,2120,2879,0_S
1789468006.6726599,2044,2878,0_S
1789468006.6804428,2042,2879,0_S
1789468006.6810088,2095,2879,0_S
1789468006.6815271,2105,2879,0_S
1789468006.686837,2034,2878,0_S
1789468006.6879501,2055,2880,0_S
1789468006.689527,2135,2881,0_S
1789468006.691335,2115,2880,0_S
1789468006.691444,2085,2880,0_S
1789468006.69456,2057,2880,0_S
1789468006.694769,1892,2878,0_S
1789468006.6949482,2147,2880,0_S
1789468006.697475,2208,2881,0_S
1789468006.698559,2047,2878,0_S
1789468006.7011368,2122,2881,0_S
1789468006.7024598,2203,2879,0_S
1789468006.704809,1957,2877,0_S
1789468006.707134,2049,2879,0_S
1789468006.709316,2113,2879,0_S
1789468006.710424,2138,2879,0_S
1789468006.7128189,2022,2878,0_S
1789468006.7151418,2036,2877,0_S
1789468006.716453,2061,2877,0_S
1789468006.7188191,2086,2879,0_S
1789468006.720911,2118,2879,0_S
1789468006.7234821,2090,2878,0_S
1789468006.724544,2086,2879,0_S
1789468006.727112,2088,2880,0_S
1789468006.72842,2035,2877,0_S
1789468006.730987,1927,2878,0_S
1789468006.7335832,2084,2878,0_S
1789468006.734956,2135,2880,0_S
1789468006.7442,2158,2879,0_S
1789468006.7469811,2135,2878,0_S
1789468006.751093,2082,2879,0_S
1789468006.752149,2059,2880,0_S
1789468006.752658,2125,2879,0_S
1789468006.752819,2075,2878,0_S
1789468006.7546391,2105,2878,0_S
1789468006.754946,2109,2880,0_S
1789468006.7576451,1972,2876,0_S
1789468006.760596,2035,2878,0_S
1789468006.760684,2024,2878,0_S
1789468006.760727,2112,2878,0_S
1789468006.760768,2092,2879,0_S
1789468006.7631092,1998,2878,0_S
1789468006.765447,2056,2879,0_S
1789468006.76679,2108,2882,0_S
1789468006.773503,2117,2880,0_S
1789468006.7785652,2098,2880,0_S
1789468006.781193,2083,2879,0_S
1789468006.787074,2048,2879,0_S
1789468006.790003,2086,2878,0_S
1789468006.790405,2073,2878,0_S
1789468006.790493,1963,2879,0_S
1789468006.790657,2133,2881,0_S
1789468006.790724,2258,2878,0_S
1789468006.792135,2137,2879,0_S
1789468006.792185,2019,2879,0_S
1789468006.7922251,2016,2879,0_S
1789468006.793878,2084,2879,0_S
1789468006.79528,2137,2880,0_S
1789468006.79664,2054,2876,0_S
1789468006.799275,2036,2878,0_S
1789468006.8006048,2052,2878,0_S
1789468006.80295,2087,2879,0_S
1789468006.805045,2047,2878,0_S
1789468006.806408,2063,2878,0_S
1789468006.8090198,2105,2879,0_S
1789468006.81042,2144,2879,0_S
1789468006.813041,2094,2877,0_S
1789468006.814416,2027,2878,0_S
1789468006.816996,2040,2879,0_S
1789468006.8184268,2106,2880,0_S
1789468006.820781,2085,2879,0_S
1789468006.823369,1987,2878,0_S
1789468006.824645,2105,2878,0_S
1789468006.826986,2060,2880,0_S
1789468006.829535,2288,2880,0_S
1789468006.830621,2071,2878,0_S
1789468006.838906,2115,2881,0_S
1789468006.8400981,2075,2877,0_S
1789468006.840307,2135,2880,0_S
1789468006.8425841,2083,2878,0_S
1789468006.842859,2107,2878,0_S
1789468006.8430989,1991,2877,0_S
1789468006.845665,1791,2878,0_S
1789468006.847452,1910,2879,0_S
1789468006.8574212,2284,2880,0_S
1789468006.857654,2154,2881,0_S
1789468006.857868,2092,2879,0_S
1789468006.8579452,2068,2879,0_S
1789468006.8580108,2080,2879,0_S
1789468006.859348,2126,2878,0_S
1789468006.86076,1984,2877,0_S
1789468006.863395,1608,2878,0_S
1789468006.8704,1990,2878,0_S
1789468006.872515,3169,2883,0_S
1789468006.8726761,2118,2878,0_S
1789468006.873014,1903,2880,0_S
1789468006.875346,1875,2878,0_S
1789468006.8763552,1893,2877,0_S
1789468006.87691,2351,2880,0_S
1789468006.879951,2560,2882,0_S
1789468006.8828921,1945,2878,0_S
1789468006.883175,1767,2876,0_S
1789468006.885611,1585,2877,0_S
1789468006.886936,1792,2877,0_S
1789468006.8892212,2847,2881,0_S
1789468006.891262,2266,2880,0_S
1789468006.89261,1653,2877,0_S
1789468006.8951008,2069,2878,0_S
1789468006.8964539,2106,2880,0_S
1789468006.899085,1696,2877,0_S
1789468006.9004538,1783,2878,0_S
1789468006.902785,2826,2881,0_S
1789468006.905625,2422,2880,0_S
1789468006.9068558,946,2877,0_S
1789468006.9097311,1974,2877,0_S
1789468006.911084,3070,2881,0_S
1789468006.913234,2292,2880,0_S
1789468006.9145951,1709,2877,0_S
1789468006.916985,1857,2877,0_S
1789468006.9184089,2196,2879,0_S
1789468006.920514,1951,2877,0_S
1789468006.923678,2034,2879,0_S
1789468006.925333,1789,2877,0_S
1789468006.926612,2032,2878,0_S
1789468006.9287329,2930,2883,0_S
1789468006.934956,1789,2878,0_S
1789468006.9357,1527,2878,0_S
1789468006.936702,1735,2878,0_S
1789468006.939134,2049,2876,0_S
1789468006.939441,1729,2878,0_S
1789468006.9421499,2178,2880,0_S
1789468006.946655,1838,2876,0_S
1789468006.949505,1382,2877,0_S
1789468006.9499059,2600,2880,0_S
1789468006.950293,2380,2880,0_S
1789468006.952474,1964,2878,0_S
1789468006.9526012,2249,2879,0_S
1789468006.955155,2178,2881,0_S
1789468006.956464,2048,2879,0_S
1789468006.958892,1977,2877,0_S
1789468006.961578,1920,2877,0_S
1789468006.967339,1868,2877,0_S
1789468006.968482,1839,2877,0_S
1789468006.970855,1926,2877,0_S
1789468006.971027,2039,2877,0_S
1789468006.97129,2035,2878,0_S
1789468006.973126,1985,2876,0_S
1789468006.9779541,1971,2877,0_S
1789468006.98115,1993,2878,0_S
1789468006.98155,1959,2879,0_S
1789468006.98474,1902,2879,0_S
1789468006.985277,1973,2879,0_S
1789468006.985482,2022,2877,0_S
1789468006.986718,2017,2877,0_S
1789468006.989295,2015,2880,0_S
1789468006.990439,2035,2878,0_S
1789468006.9929442,1928,2878,0_S
1789468006.995289,1945,2877,0_S
1789468006.996618,1982,2878,0_S
1789468006.998723,2187,2881,0_S
1789468007.0008252,2305,2880,0_S
1789468007.003402,1950,2876,0_S
1789468007.004711,1685,2877,0_S
1789468007.0070279,2039,2877,0_S
1789468007.0093398,2426,2880,0_S
1789468007.010572,1780,2876,0_S
1789468007.0128582,1796,2877,0_S
1789468007.015193,2067,2876,0_S
1789468007.016533,2371,2879,0_S
1789468007.018625,2188,2880,0_S
1789468007.020965,2356,2881,0_S
1789468007.0231318,2419,2880,0_S
1789468007.024549,2442,2881,0_S
1789468007.030554,2015,2877,0_S
1789468007.031163,1818,2878,0_S
1789468007.032244,2044,2878,0_S
1789468007.033846,2015,2878,0_S
1789468007.03541,2242,2880,0_S
1789468007.037377,1874,2878,0_S
1789468007.040204,1855,2877,0_S
1789468007.043045,2415,2879,0_S
1789468007.043177,2315,2881,0_S
1789468007.045502,2194,2881,0_S
1789468007.046817,2241,2880,0_S
1789468007.049143,2086,2879,0_S
1789468007.051627,2305,2880,0_S
1789468007.0528069,2235,2879,0_S
1789468007.058367,1865,2876,0_S
1789468007.058538,2056,2879,0_S
1789468007.0591118,2363,2879,0_S
1789468007.061602,1922,2878,0_S
1789468007.063661,1785,2877,0_S
1789468007.064946,1993,2876,0_S
1789468007.068002,2467,2880,0_S
1789468007.070786,1929,2876,0_S
1789468007.070977,1893,2877,0_S
1789468007.0734751,1941,2879,0_S
1789468007.074547,2060,2879,0_S
1789468007.077028,1996,2878,0_S
1789468007.079398,2193,2880,0_S
1789468007.08071,2438,2881,0_S
1789468007.083274,2227,2880,0_S
1789468007.084589,2171,2881,0_S
1789468007.0866659,2107,2880,0_S
1789468007.08898,2024,2880,0_S
1789468007.0913,2206,2879,0_S
1789468007.092418,2020,2877,0_S
1789468007.094748,2409,2880,0_S
1789468007.097305,2024,2877,0_S
1789468007.098608,1611,2878,0_S
1789468007.10093,1772,2877,0_S
1789468007.1030028,2281,2879,0_S
1789468007.105319,1902,2877,0_S
1789468007.106623,1962,2880,0_S
1789468007.1088068,2190,2880,0_S
1789468007.111377,2243,2879,0_S
1789468007.1180182,2089,2881,0_S
1789468007.1186152,1901,2877,0_S
1789468007.119227,2327,2881,0_S
1789468007.121126,2086,2877,0_S
1789468007.121405,2024,2877,0_S
1789468007.123211,2115,2879,0_S
1789468007.124703,1828,2877,0_S
1789468007.127535,2016,2880,0_S
1789468007.130493,2215,2880,0_S
1789468007.1307452,2078,2880,0_S
1789468007.13334,2111,2878,0_S
1789468007.134408,2057,2879,0_S
1789468007.136482,2075,2879,0_S
1789468007.1388319,1964,2878,0_S
1789468007.1444328,2142,2879,0_S
1789468007.145566,2147,2879,0_S
1789468007.145708,1928,2876,0_S
1789468007.1480808,1982,2877,0_S
1789468007.150666,2240,2881,0_S
1789468007.152171,2160,2881,0_S
1789468007.1534002,1854,2878,0_S
1789468007.1550841,2120,2880,0_S
1789468007.157913,2156,2881,0_S
1789468007.1605241,2078,2879,0_S
1789468007.1605709,2064,2879,0_S
1789468007.162845,2012,2879,0_S
1789468007.165165,1885,2877,0_S
1789468007.166477,2153,2880,0_S
1789468007.1690361,2186,2881,0_S
1789468007.1704,2165,2879,0_S
1789468007.1727319,2100,2879,0_S
1789468007.175152,2046,2879,0_S
1789468007.1774778,2051,2879,0_S
1789468007.178779,1998,2878,0_S
1789468007.181342,2019,2878,0_S
1789468007.182533,2060,2877,0_S
1789468007.1849742,2064,2878,0_S
1789468007.187596,2034,2877,0_S
1789468007.1886668,2177,2880,0_S
1789468007.190753,2121,2879,0_S
1789468007.193324,2093,2879,0_S
1789468007.1944141,2085,2879,0_S
1789468007.2012212,2007,2877,0_S
1789468007.202344,2085,2878,0_S
1789468007.203469,2174,2880,0_S
1789468007.2050471,2160,2880,0_S
1789468007.205143,2079,2879,0_S
1789468007.207521,2062,2878,0_S
1789468007.211626,2066,2880,0_S
1789468007.2119029,2101,2879,0_S
1789468007.2147992,2059,2878,0_S
1789468007.215015,2065,2878,0_S
1789468007.217956,2092,2879,0_S
1789468007.219282,2134,2880,0_S
1789468007.220591,2133,2879,0_S
1789468007.228559,2072,2878,0_S
1789468007.23053,2047,2878,0_S
1789468007.23074,2058,2878,0_S
1789468007.231,2137,2880,0_S
1789468007.2332978,2054,2878,0_S
1789468007.233423,2057,2878,0_S
1789468007.2355509,2127,2880,0_S
1789468007.2375839,2142,2878,0_S
1789468007.240515,2067,2878,0_S
1789468007.240767,2119,2877,0_S
1789468007.243211,2143,2880,0_S
1789468007.245546,2239,2880,0_S
1789468007.247222,1904,2877,0_S
1789468007.249316,2083,2878,0_S
1789468007.251159,2291,2881,0_S
1789468007.2524722,2147,2879,0_S
1789468007.2545469,2039,2879,0_S
1789468007.2566242,2109,2879,0_S
1789468007.25902,2120,2878,0_S
1789468007.261329,2142,2879,0_S
1789468007.262629,2063,2879,0_S
1789468007.2650938,2055,2879,0_S
1789468007.26736,2107,2878,0_S
1789468007.268466,2118,2881,0_S
1789468007.27055,2065,2879,0_S
1789468007.272649,2025,2878,0_S
1789468007.275048,2031,2878,0_S
1789468007.27741,2020,2877,0_S
1789468007.2835069,2114,2881,0_S
1789468007.2859478,2131,2880,0_S
1789468007.286121,2090,2878,0_S
1789468007.286347,2166,2880,0_S
1789468007.2865422,2041,2879,0_S
1789468007.289813,1971,2877,0_S
1789468007.294782,2042,2879,0_S
1789468007.295167,2198,2880,0_S
1789468007.295316,2040,2880,0_S
1789468007.297548,1939,2878,0_S
1789468007.298856,1973,2878,0_S
1789468007.302149,2165,2881,0_S
1789468007.307046,2177,2881,0_S
1789468007.308063,1982,2877,0_S
1789468007.3086562,2057,2879,0_S
1789468007.309088,2080,2880,0_S
1789468007.310635,2264,2879,0_S
1789468007.313751,2124,2880,0_S
1789468007.314883,1953,2879,0_S
1789468007.3166962,2099,2877,0_S
1789468007.319369,2166,2880,0_S
1789468007.321352,2137,2880,0_S
1789468007.3226628,2120,2880,0_S
1789468007.3250911,2055,2879,0_S
1789468007.326415,2158,2880,0_S
1789468007.328736,2053,2878,0_S
1789468007.331062,2047,2878,0_S
1789468007.333216,2013,2878,0_S
1789468007.3345122,1898,2878,0_S
1789468007.336836,2040,2877,0_S
1789468007.3391721,2307,2879,0_S
1789468007.3404748,2109,2877,0_S
1789468007.342796,2033,2878,0_S
1789468007.3453498,2104,2879,0_S
1789468007.3466449,2163,2880,0_S
1789468007.349205,2003,2877,0_S
1789468007.350503,2103,2880,0_S
1789468007.352826,2199,2880,0_S
1789468007.355296,2057,2879,0_S
1789468007.360558,2008,2878,0_S
1789468007.361069,2090,2879,0_S
1789468007.3621361,2058,2879,0_S
1789468007.3640819,2012,2877,0_S
1789468007.36664,2062,2877,0_S
1789468007.367143,2134,2878,0_S
1789468007.368646,2138,2880,0_S
1789468007.373129,2076,2879,0_S
1789468007.375803,2078,2878,0_S
1789468007.376117,1994,2879,0_S
1789468007.3772302,2031,2878,0_S
1789468007.378526,2081,2880,0_S
1789468007.380451,2074,2878,0_S
1789468007.386204,2067,2879,0_S
1789468007.38673,2077,2877,0_S
1789468007.387285,2070,2879,0_S
1789468007.3894022,2132,2879,0_S
1789468007.391613,2012,2878,0_S
1789468007.394051,2133,2879,0_S
1789468007.398098,2168,2879,0_S
1789468007.398266,1946,2877,0_S
1789468007.3985128,2060,2878,0_S
1789468007.4008021,2333,2880,0_S
1789468007.403156,2127,2880,0_S
1789468007.4048991,2103,2879,0_S
1789468007.40722,2120,2878,0_S
1789468007.40854,2094,2878,0_S
1789468007.410989,2038,2877,0_S
1789468007.413558,2018,2878,0_S
1789468007.41486,2053,2879,0_S
1789468007.4171882,2101,2879,0_S
1789468007.418488,2080,2879,0_S
1789468007.420862,2068,2880,0_S
1789468007.423425,2051,2878,0_S
1789468007.424475,2041,2878,0_S
1789468007.426839,2143,2879,0_S
1789468007.429559,2119,2881,0_S
1789468007.430861,2070,2878,0_S
1789468007.433059,2063,2878,0_S
1789468007.434418,2146,2880,0_S
1789468007.439782,2087,2879,0_S
1789468007.4404259,2028,2879,0_S
1789468007.442894,1884,2877,0_S
1789468007.443207,2118,2880,0_S
1789468007.445421,2278,2879,0_S
1789468007.4472551,1861,2878,0_S
1789468007.449258,1734,2879,0_S
1789468007.4519072,2246,2881,0_S
1789468007.453974,2401,2879,0_S
1789468007.455285,2114,2879,0_S
1789468007.456449,1877,2877,0_S
1789468007.4589891,2065,2879,0_S
1789468007.464132,2205,2880,0_S
1789468007.464704,2101,2878,0_S
1789468007.465302,2288,2879,0_S
1789468007.4676108,1925,2878,0_S
1789468007.469766,2107,2880,0_S
1789468007.471155,2141,2880,0_S
1789468007.473375,2061,2879,0_S
1789468007.476022,2035,2880,0_S
1789468007.478328,1987,2878,0_S
1789468007.478519,1989,2878,0_S
1789468007.481089,2139,2880,0_S
1789468007.483582,2046,2877,0_S
1789468007.4846458,1996,2877,0_S
1789468007.487221,1976,2878,0_S
1789468007.488526,2332,2880,0_S
1789468007.490957,2020,2878,0_S
1789468007.493515,1996,2876,0_S
1789468007.494829,2107,2880,0_S
1789468007.496911,2095,2877,0_S
1789468007.499182,2095,2879,0_S
1789468007.501499,2100,2880,0_S
1789468007.502798,2095,2879,0_S
1789468007.504875,1991,2879,0_S
1789468007.507432,2019,2879,0_S
1789468007.508727,2079,2879,0_S
1789468007.511057,2079,2880,0_S
1789468007.51738,2016,2877,0_S
1789468007.517965,2062,2878,0_S
1789468007.5190039,2112,2880,0_S
1789468007.520865,2012,2875,0_S
1789468007.521055,2152,2879,0_S
1789468007.5228999,2063,2878,0_S
1789468007.524825,2063,2878,0_S
1789468007.527019,2071,2880,0_S
1789468007.52965,2077,2877,0_S
1789468007.5319822,1980,2878,0_S
1789468007.533078,1972,2878,0_S
1789468007.5344498,2138,2879,0_S
1789468007.5366871,2159,2879,0_S
1789468007.541854,2072,2878,0_S
1789468007.542392,2089,2877,0_S
1789468007.5429199,2148,2879,0_S
1789468007.544631,2066,2878,0_S
1789468007.548009,2129,2879,0_S
1789468007.5503109,2053,2878,0_S
1789468007.5529659,2038,2878,0_S
1789468007.553043,1972,2878,0_S
1789468007.555532,2051,2880,0_S
1789468007.55684,2124,2879,0_S
1789468007.55917,2174,2878,0_S
1789468007.5604742,2188,2878,0_S
1789468007.563031,1964,2878,0_S
1789468007.565821,2242,2882,0_S
1789468007.567179,2147,2878,0_S
1789468007.56851,2031,2878,0_S
1789468007.570823,2023,2877,0_S
1789468007.572993,2115,2880,0_S
1789468007.575182,2031,2878,0_S
1789468007.576479,1930,2876,0_S
1789468007.578807,2085,2880,0_S
1789468007.5811489,2085,2878,0_S
1789468007.582447,2071,2879,0_S
1789468007.585222,2024,2878,0_S
1789468007.5873091,2036,2877,0_S
1789468007.588516,2037,2880,0_S
1789468007.5928252,2324,2879,0_S
1789468007.5933871,2307,2878,0_S
1789468007.596499,2028,2879,0_S
1789468007.596687,2123,2880,0_S
1789468007.6009321,1906,2877,0_S
1789468007.602473,1883,2878,0_S
1789468007.602753,2512,2881,0_S
1789468007.6052961,2061,2878,0_S
1789468007.607557,2050,2878,0_S
1789468007.608872,1975,2878,0_S
1789468007.6117,2045,2880,0_S
1789468007.617516,2117,2879,0_S
1789468007.618559,1775,2878,0_S
1789468007.620001,2555,2881,0_S
1789468007.621665,2151,2880,0_S
1789468007.6225548,2010,2879,0_S
1789468007.622715,2123,2879,0_S
1789468007.625943,2300,2880,0_S
1789468007.628619,1982,2879,0_S
1789468007.628932,1751,2876,0_S
1789468007.63114,1710,2878,0_S
1789468007.633499,2181,2880,0_S
1789468007.634559,2166,2881,0_S
1789468007.636893,2495,2882,0_S
1789468007.638966,2116,2879,0_S
1789468007.641057,1846,2877,0_S
1789468007.64339,2022,2878,0_S
1789468007.644692,1906,2878,0_S
1789468007.646834,2235,2878,0_S
1789468007.649139,2225,2880,0_S
1789468007.650656,2169,2879,0_S
1789468007.653399,1923,2879,0_S
1789468007.654486,1650,2876,0_S
1789468007.656842,2040,2879,0_S
1789468007.6593988,2504,2882,0_S
1789468007.660465,2032,2878,0_S
1789468007.6630201,1831,2879,0_S
1789468007.67047,2166,2879,0_S
1789468007.671476,2046,2878,0_S
1789468007.672006,1881,2878,0_S
1789468007.6733482,2040,2879,0_S
1789468007.673495,2141,2879,0_S
1789468007.675522,2041,2880,0_S
1789468007.677353,2086,2880,0_S
1789468007.679338,1999,2878,0_S
1789468007.6821802,1978,2879,0_S
1789468007.684698,2103,2879,0_S
1789468007.684913,2218,2880,0_S
1789468007.687238,2089,2879,0_S
1789468007.68854,1951,2879,0_S
1789468007.6931179,2229,2879,0_S
1789468007.69403,2205,2880,0_S
1789468007.695901,2313,2880,0_S
1789468007.69763,2202,2882,0_S
1789468007.699476,2118,2880,0_S
1789468007.70172,2165,2878,0_S
1789468007.704374,2116,2879,0_S
1789468007.70454,1949,2876,0_S
1789468007.707366,1867,2876,0_S
1789468007.7086642,1980,2878,0_S
1789468007.710928,2049,2878,0_S
1789468007.713482,1900,2877,0_S
1789468007.714793,1843,2878,0_S
1789468007.717264,2256,2881,0_S
1789468007.718414,2262,2880,0_S
1789468007.720744,1923,2877,0_S
1789468007.7228281,2294,2880,0_S
1789468007.724896,2235,2880,0_S
1789468007.7274508,2049,2879,0_S
1789468007.728822,2110,2880,0_S
1789468007.7309198,2058,2876,0_S
1789468007.733109,1932,2877,0_S
1789468007.735423,2356,2881,0_S
1789468007.736483,1973,2877,0_S
1789468007.738794,2074,2878,0_S
1789468007.7431161,2016,2879,0_S
1789468007.743653,1833,2878,0_S
1789468007.745345,2127,2879,0_S
1789468007.746811,2089,2878,0_S
1789468007.749551,2188,2880,0_S
1789468007.752547,2155,2880,0_S
1789468007.752712,2092,2880,0_S
1789468007.755522,2062,2879,0_S
1789468007.7578208,2002,2878,0_S
1789468007.759122,1878,2877,0_S
1789468007.7614431,1899,2879,0_S
1789468007.765436,2351,2880,0_S
1789468007.765546,2103,2879,0_S
1789468007.7682781,1971,2877,0_S
1789468007.7703512,2220,2880,0_S
1789468007.770505,2187,2880,0_S
1789468007.773855,2043,2879,0_S
1789468007.7766242,2097,2880,0_S
1789468007.776756,2213,2880,0_S
1789468007.778604,2114,2880,0_S
1789468007.781184,1948,2878,0_S
1789468007.783745,2003,2877,0_S
1789468007.785131,2124,2880,0_S
1789468007.786497,1985,2877,0_S
1789468007.789066,1941,2877,0_S
1789468007.791382,1995,2880,0_S
1789468007.792486,2186,2878,0_S
1789468007.794733,2016,2877,0_S
1789468007.7972941,2015,2878,0_S
1789468007.798454,2293,2880,0_S
1789468007.800721,2222,2880,0_S
1789468007.803117,2164,2879,0_S
1789468007.804469,2178,2880,0_S
1789468007.8065479,2068,2879,0_S
1789468007.808853,2127,2879,0_S
1789468007.811161,2057,2877,0_S
1789468007.816239,1956,2878,0_S
1789468007.8176792,2045,2878,0_S
1789468007.8182871,2074,2879,0_S
1789468007.818839,2047,2879,0_S
1789468007.822203,1956,2876,0_S
1789468007.823881,2037,2877,0_S
1789468007.8256729,2123,2878,0_S
1789468007.828508,2003,2878,0_S
1789468007.828662,1996,2879,0_S
1789468007.830956,2172,2880,0_S
1789468007.833285,2195,2880,0_S
1789468007.8345852,2069,2880,0_S
1789468007.839746,2065,2879,0_S
1789468007.840694,2034,2880,0_S
1789468007.842396,2168,2881,0_S
1789468007.842572,2115,2881,0_S
1789468007.845938,2040,2877,0_S
1789468007.848304,1889,2878,0_S
1789468007.851,2038,2877,0_S
1789468007.851385,2172,2880,0_S
1789468007.853472,2010,2880,0_S
1789468007.854777,2102,2879,0_S
1789468007.8572822,2170,2878,0_S
1789468007.8585799,2222,2880,0_S
1789468007.861131,2262,2880,0_S
1789468007.863652,2033,2878,0_S
1789468007.864949,2048,2878,0_S
1789468007.867285,2082,2877,0_S
1789468007.8685791,2100,2879,0_S
1789468007.870898,2009,2878,0_S
1789468007.873368,2013,2878,0_S
1789468007.874481,2037,2878,0_S
1789468007.8770418,2023,2879,0_S
1789468007.879617,1931,2877,0_S
1789468007.8809128,1957,2879,0_S
1789468007.88329,2169,2881,0_S
1789468007.884473,2218,2879,0_S
1789468007.888886,2176,2879,0_S
1789468007.8894012,1982,2879,0_S
1789468007.891689,2124,2880,0_S
1789468007.8941162,2193,2879,0_S
1789468007.895835,2124,2880,0_S
1789468007.8972642,2115,2878,0_S
1789468007.89975,2091,2878,0_S
1789468007.902106,2126,2880,0_S
1789468007.903409,2109,2879,0_S
1789468007.904707,2053,2877,0_S
1789468007.909945,2029,2879,0_S
1789468007.910381,1978,2876,0_S
1789468007.910856,2088,2880,0_S
1789468007.9126048,2114,2880,0_S
1789468007.9153678,2033,2877,0_S
1789468007.917652,2046,2877,0_S
1789468007.919996,2079,2880,0_S
1789468007.922122,2065,2880,0_S
1789468007.9234402,2054,2878,0_S
1789468007.924712,2020,2879,0_S
1789468007.9272761,2106,2880,0_S
1789468007.928573,2098,2880,0_S
1789468007.930887,2067,2878,0_S
1789468007.933183,2097,2881,0_S
1789468007.934479,2132,2879,0_S
1789468007.9370298,2108,2878,0_S
1789468007.939348,1974,2875,0_S
1789468007.9404511,1970,2877,0_S
1789468007.9430022,2072,2880,0_S
1789468007.9454741,2034,2877,0_S
1789468007.946765,2071,2877,0_S
1789468007.9490712,2097,2880,0_S
1789468007.9512022,2255,2881,0_S
1789468007.952495,2180,2878,0_S
1789468007.957031,2045,2879,0_S
1789468007.9571772,2050,2880,0_S
1789468007.9597042,2105,2879,0_S
1789468007.961289,2061,2878,0_S
1789468007.963039,2147,2880,0_S
1789468007.964962,2031,2877,0_S
1789468007.967215,1936,2878,0_S
1789468007.968992,1944,2877,0_S
1789468007.971318,2140,2879,0_S
1789468007.9726138,2074,2879,0_S
1789468007.975183,2208,2879,0_S
1789468007.9774961,2154,2879,0_S
1789468007.97855,1934,2878,0_S
1789468007.980999,1629,2877,0_S
1789468007.983524,2050,2878,0_S
1789468007.984816,2555,2881,0_S
1789468007.9871209,2077,2879,0_S
1789468007.989185,2150,2878,0_S
1789468007.991501,2089,2878,0_S
1789468007.992555,2047,2876,0_S
1789468007.9948611,2003,2879,0_S
1789468007.997408,1934,2878,0_S
1789468007.9984572,2398,2881,0_S
1789468008.0040479,2077,2879,0_S
1789468008.0042188,1725,2878,0_S
1789468008.006758,2345,2880,0_S
1789468008.0084321,2391,2879,0_S
1789468008.008846,1890,2877,0_S
1789468008.01204,2161,2880,0_S
1789468008.014333,2170,2878,0_S
1789468008.014514,2119,2877,0_S
1789468008.0174,2065,2877,0_S
1789468008.018461,2037,2879,0_S
1789468008.020779,1918,2878,0_S
1789468008.0228522,1974,2878,0_S
1789468008.025158,2023,2879,0_S
1789468008.027473,2000,2878,0_S
1789468008.028769,2108,2878,0_S
1789468008.03108,2094,2879,0_S
1789468008.0324538,2087,2878,0_S
1789468008.034535,2050,2880,0_S
1789468008.036614,1999,2880,0_S
1789468008.038929,1988,2879,0_S
1789468008.0414798,1963,2876,0_S
1789468008.0427809,1891,2877,0_S
1789468008.045089,2296,2882,0_S
1789468008.0464482,2373,2880,0_S
1789468008.052016,2135,2880,0_S
1789468008.0529711,1854,2877,0_S
1789468008.0530958,2172,2880,0_S
1789468008.055014,2012,2877,0_S
1789468008.057034,1982,2877,0_S
1789468008.060423,2225,2880,0_S
1789468008.062881,2253,2879,0_S
1789468008.063232,1829,2878,0_S
1789468008.065464,1674,2877,0_S
1789468008.066776,2138,2877,0_S
1789468008.072806,2335,2880,0_S
1789468008.072926,2103,2879,0_S
1789468008.073403,1964,2879,0_S
1789468008.075645,2142,2879,0_S
1789468008.0771148,2203,2880,0_S
1789468008.0792692,2107,2880,0_S
1789468008.081007,2094,2878,0_S
1789468008.083461,2105,2879,0_S
1789468008.085768,2126,2880,0_S
1789468008.086848,2185,2879,0_S
1789468008.089173,2043,2879,0_S
1789468008.0904808,2010,2880,0_S
1789468008.0928068,2014,2880,0_S
1789468008.095544,2008,2877,0_S
1789468008.0968719,1953,2878,0_S
1789468008.099113,2124,2879,0_S
1789468008.100458,2386,2880,0_S
1789468008.102775,2136,2879,0_S
1789468008.105052,2043,2879,0_S
1789468008.106475,2105,2879,0_S
1789468008.108793,2087,2879,0_S
1789468008.111349,2100,2877,0_S
1789468008.113427,1897,2879,0_S
1789468008.114479,2193,2880,0_S
1789468008.121189,2338,2881,0_S
1789468008.1216772,1594,2877,0_S
1789468008.121851,1912,2876,0_S
1789468008.1239,2398,2880,0_S
1789468008.1264691,2091,2880,0_S
1789468008.126633,2277,2879,0_S
1789468008.129777,2244,2879,0_S
1789468008.132289,2143,2880,0_S
1789468008.132658,2135,2880,0_S
1789468008.134885,1981,2878,0_S
1789468008.137246,1894,2878,0_S
1789468008.143212,2281,2880,0_S
1789468008.1436958,2303,2880,0_S
1789468008.144133,1874,2877,0_S
1789468008.145776,1913,2878,0_S
1789468008.147557,2171,2879,0_S
1789468008.149426,2000,2878,0_S
1789468008.151624,1971,2877,0_S
1789468008.15454,2410,2880,0_S
1789468008.157025,2142,2880,0_S
1789468008.157287,1900,2876,0_S
1789468008.158596,2077,2879,0_S
1789468008.16116,1887,2878,0_S
1789468008.163488,2280,2880,0_S
1789468008.164551,2268,2880,0_S
1789468008.1668632,1830,2878,0_S
1789468008.169216,1908,2878,0_S
1789468008.171287,2291,2880,0_S
1789468008.172522,2308,2880,0_S
1789468008.175081,1913,2878,0_S
1789468008.177388,1334,2877,0_S
1789468008.178456,2568,2880,0_S
1789468008.180772,2094,2882,0_S
1789468008.183171,1318,2878,0_S
1789468008.1845078,2484,2881,0_S
1789468008.186837,2152,2879,0_S
1789468008.189326,1521,2877,0_S
1789468008.190434,2266,2881,0_S
1789468008.196356,2722,2882,0_S
1789468008.196855,1830,2877,0_S
1789468008.19749,2086,2877,0_S
1789468008.200366,2160,2878,0_S
1789468008.201184,1914,2879,0_S
1789468008.2031271,2310,2880,0_S
1789468008.2050061,1569,2877,0_S
1789468008.207521,1400,2876,0_S
1789468008.20991,3030,2881,0_S
1789468008.210992,2186,2880,0_S
1789468008.213558,2144,2880,0_S
1789468008.2180748,1970,2878,0_S
1789468008.2186189,1875,2878,0_S
1789468008.2187688,2029,2878,0_S
1789468008.2212858,2401,2880,0_S
1789468008.223136,2023,2879,0_S
1789468008.224968,762,2877,0_S
1789468008.2272792,1819,2876,0_S
1789468008.229931,2260,2879,0_S
1789468008.232235,1660,2877,0_S
1789468008.233546,2160,2880,0_S
1789468008.234611,2678,2881,0_S
1789468008.2371871,1818,2877,0_S
1789468008.239264,1679,2878,0_S
1789468008.2416131,2240,2880,0_S
1789468008.2426739,1530,2877,0_S
1789468008.245226,1767,2878,0_S
1789468008.246523,1432,2877,0_S
1789468008.248839,1384,2878,0_S
1789468008.251015,2754,2880,0_S
1789468008.253331,1619,2876,0_S
1789468008.25454,1413,2876,0_S
1789468008.256619,2429,2879,0_S
1789468008.2589262,1813,2877,0_S
1789468008.2610009,2114,2878,0_S
1789468008.263554,1729,2878,0_S
1789468008.268051,1243,2877,0_S
1789468008.2681541,2213,2880,0_S
1789468008.2708638,2245,2880,0_S
1789468008.271063,2137,2880,0_S
1789468008.2734358,1792,2878,0_S
1789468008.275164,2274,2880,0_S
1789468008.279032,2111,2877,0_S
1789468008.2791748,1889,2878,0_S
1789468008.281395,1782,2878,0_S
1789468008.282469,1706,2877,0_S
1789468008.28481,1689,2877,0_S
1789468008.289509,1615,2876,0_S
1789468008.2899158,1471,2877,0_S
1789468008.29175,1155,2877,0_S
1789468008.293338,1632,2877,0_S
1789468008.295326,2706,2881,0_S
1789468008.2972028,1659,2877,0_S
1789468008.2997792,1763,2877,0_S
1789468008.302037,1622,2877,0_S
1789468008.303339,2012,2877,0_S
1789468008.3046348,1784,2877,0_S
1789468008.306954,1728,2878,0_S
1789468008.3095071,1677,2876,0_S
1789468008.3105621,1660,2877,0_S
1789468008.312868,1544,2877,0_S
1789468008.315177,1541,2878,0_S
1789468008.316619,1614,2878,0_S
1789468008.318951,1673,2877,0_S
1789468008.321523,1686,2876,0_S
1789468008.3226109,1672,2877,0_S
1789468008.324904,1707,2877,0_S
1789468008.326966,1761,2877,0_S
1789468008.329279,1731,2877,0_S
1789468008.330591,1672,2878,0_S
1789468008.332913,1735,2878,0_S
1789468008.3375518,1778,2877,0_S
1789468008.338136,1867,2878,0_S
1789468008.340538,1842,2877,0_S
1789468008.340854,1805,2878,0_S
1789468008.344385,2019,2877,0_S
1789468008.3463721,2036,2876,0_S
1789468008.349257,1779,2877,0_S
1789468008.349868,1894,2877,0_S
1789468008.351719,2168,2881,0_S
1789468008.3533928,2210,2880,0_S
1789468008.354708,2066,2880,0_S
1789468008.360031,2081,2880,0_S
1789468008.360571,1966,2877,0_S
1789468008.3611279,2172,2881,0_S
1789468008.363212,2410,2881,0_S
1789468008.3655272,2171,2880,0_S
1789468008.3669949,2317,2879,0_S
1789468008.369306,2220,2880,0_S
1789468008.372284,2628,2880,0_S
1789468008.374603,2564,2880,0_S
1789468008.37488,2276,2880,0_S
1789468008.377022,2202,2879,0_S
1789468008.3795998,2373,2880,0_S
1789468008.380661,2496,2880,0_S
1789468008.382974,2343,2880,0_S
1789468008.3855329,2282,2878,0_S
1789468008.3865879,2482,2880,0_S
1789468008.388858,2412,2879,0_S
1789468008.391415,2336,2880,0_S
1789468008.392725,2236,2879,0_S
1789468008.395099,2951,2881,0_S
1789468008.397407,2515,2880,0_S
1789468008.399476,2295,2881,0_S
1789468008.400772,2133,2879,0_S
1789468008.403082,1849,2877,0_S
1789468008.405633,1810,2879,0_S
1789468008.4069362,2731,2882,0_S
1789468008.412142,2586,2880,0_S
1789468008.412699,2511,2881,0_S
1789468008.413225,2194,2879,0_S
1789468008.4149508,2452,2880,0_S
1789468008.458295,2486,2880,0_S
1789468008.4583979,3119,2882,0_S
1789468008.458441,3035,2882,0_S
1789468008.4585228,2142,2880,0_S
1789468008.45857,1557,2876,0_S
1789468008.4586082,1802,2878,0_S
1789468008.458855,1972,2879,0_S
1789468008.458975,1956,2878,0_S
1789468008.459048,2378,2880,0_S
1789468008.459177,2268,2880,0_S
1789468008.459337,2365,2880,0_S
1789468008.4594529,2136,2879,0_S
1789468008.459549,2394,2880,0_S
1789468008.45963,2381,2879,0_S
1789468008.4596741,2154,2878,0_S
1789468008.459775,2194,2876,0_S
1789468008.459821,1537,2877,0_S
1789468008.459865,1573,2876,0_S
1789468008.459902,2426,2881,0_S
1789468008.4599402,2398,2880,0_S
1789468008.460036,2191,2879,0_S
1789468008.4600792,2154,2879,0_S
1789468008.461386,2260,2880,0_S
1789468008.462682,2299,2879,0_S
1789468008.464576,2385,2881,0_S
1789468008.467287,2237,2879,0_S
1789468008.468632,2031,2879,0_S
1789468008.471553,1928,2878,0_S
1789468008.473012,2077,2879,0_S
1789468008.475363,1909,2877,0_S
1789468008.476664,2163,2881,0_S
1789468008.47901,2149,2877,0_S
1789468008.481587,2170,2878,0_S
1789468008.482881,2052,2878,0_S
1789468008.485197,2052,2878,0_S
1789468008.487512,2141,2879,0_S
1789468008.493071,1970,2879,0_S
1789468008.493769,1940,2877,0_S
1789468008.4946828,2163,2879,0_S
1789468008.494786,2124,2881,0_S
1789468008.498834,2117,2878,0_S
1789468008.499365,2089,2878,0_S
1789468008.50082,2137,2881,0_S
1789468008.5053482,2156,2878,0_S
1789468008.5056279,2015,2878,0_S
1789468008.508033,1858,2877,0_S
1789468008.509347,2234,2879,0_S
1789468008.511967,2222,2879,0_S
1789468008.516298,1953,2877,0_S
1789468008.517129,1946,2878,0_S
1789468008.5176342,2271,2881,0_S
1789468008.519364,2252,2880,0_S
1789468008.521137,2042,2880,0_S
1789468008.52478,2100,2879,0_S
1789468008.5249999,2110,2879,0_S
1789468008.527843,2100,2880,0_S
1789468008.530164,2015,2877,0_S
1789468008.531477,2151,2879,0_S
1789468008.5325398,2222,2881,0_S
1789468008.5350559,2138,2880,0_S
1789468008.537611,2015,2879,0_S
1789468008.538913,2069,2878,0_S
1789468008.5414789,2173,2879,0_S
1789468008.542779,2130,2881,0_S
1789468008.5450912,1963,2879,0_S
1789468008.547649,2127,2879,0_S
1789468008.548945,2089,2878,0_S
1789468008.551499,2027,2877,0_S
1789468008.552551,2090,2878,0_S
1789468008.555103,2163,2879,0_S
1789468008.5574179,1871,2876,0_S
1789468008.5597508,2438,2881,0_S
1789468008.5610461,2255,2879,0_S
1789468008.5683541,2215,2879,0_S
1789468008.569252,2167,2880,0_S
1789468008.569379,2191,2881,0_S
1789468008.570722,2194,2879,0_S
1789468008.570941,2128,2878,0_S
1789468008.574036,2036,2879,0_S
1789468008.576305,2063,2879,0_S
1789468008.579168,2011,2878,0_S
1789468008.579444,1894,2879,0_S
1789468008.581294,2011,2877,0_S
1789468008.582599,2290,2880,0_S
1789468008.584678,2243,2880,0_S
1789468008.589822,2009,2880,0_S
1789468008.590358,1969,2877,0_S
1789468008.592693,2066,2879,0_S
1789468008.5929348,2093,2879,0_S
1789468008.596114,2252,2881,0_S
1789468008.598361,2012,2878,0_S
1789468008.601417,2036,2878,0_S
1789468008.6017542,2133,2879,0_S
1789468008.6039412,2116,2879,0_S
1789468008.6052501,2086,2879,0_S
1789468008.6073961,2085,2879,0_S
1789468008.6095061,2236,2881,0_S
1789468008.6107311,2111,2879,0_S
1789468008.6128068,1978,2877,0_S
1789468008.615123,2007,2878,0_S
1789468008.617196,2104,2879,0_S
1789468008.618495,2180,2881,0_S
1789468008.621194,2138,2879,0_S
1789468008.622494,2093,2878,0_S
1789468008.6249468,2101,2879,0_S
1789468008.6274738,2124,2878,0_S
1789468008.6287758,2091,2881,0_S
1789468008.6311,2080,2878,0_S
1789468008.633406,2110,2878,0_S
1789468008.635726,2149,2879,0_S
1789468008.640926,2146,2879,0_S
1789468008.6418822,2059,2879,0_S
1789468008.642828,2016,2878,0_S
1789468008.644212,2029,2876,0_S
1789468008.646722,2142,2880,0_S
1789468008.64764,1956,2878,0_S
1789468008.653028,2038,2878,0_S
1789468008.6532211,2230,2880,0_S
1789468008.653467,2187,2879,0_S
1789468008.65533,2160,2879,0_S
1789468008.6566389,2054,2878,0_S
1789468008.658952,1966,2876,0_S
1789468008.664723,2024,2878,0_S
1789468008.665204,2182,2880,0_S
1789468008.665637,2199,2880,0_S
1789468008.667108,2172,2879,0_S
1789468008.669465,1983,2880,0_S
1789468008.671607,2135,2880,0_S
1789468008.6732512,2133,2879,0_S
1789468008.676116,2413,2881,0_S
1789468008.6783721,2268,2880,0_S
1789468008.679681,2015,2877,0_S
1789468008.6807392,2021,2878,0_S
1789468008.683087,2086,2877,0_S
1789468008.685683,2150,2880,0_S
1789468008.6869838,1962,2876,0_S
1789468008.6895418,2135,2880,0_S
1789468008.690597,2152,2879,0_S
1789468008.6926742,1880,2877,0_S
1789468008.694991,1715,2878,0_S
1789468008.697552,1990,2879,0_S
1789468008.698632,2275,2880,0_S
1789468008.701174,2085,2878,0_S
1789468008.7034812,2167,2879,0_S
1789468008.704777,2308,2880,0_S
1789468008.707093,2011,2879,0_S
1789468008.7096472,2035,2878,0_S
1789468008.710836,2394,2881,0_S
1789468008.715511,2075,2878,0_S
1789468008.7156339,2041,2877,0_S
1789468008.7185018,2095,2879,0_S
1789468008.718841,2216,2879,0_S
1789468008.722516,1997,2879,0_S
1789468008.722941,1901,2877,0_S
1789468008.724706,2081,2879,0_S
1789468008.7276301,2180,2881,0_S
1789468008.729645,2048,2878,0_S
1789468008.730946,1966,2878,0_S
1789468008.7335,2022,2879,0_S
1789468008.738226,1987,2878,0_S
1789468008.738772,2119,2879,0_S
1789468008.7392619,2186,2880,0_S
1789468008.741278,1987,2879,0_S
1789468008.743024,2065,2880,0_S
1789468008.745143,2192,2880,0_S
1789468008.747096,2112,2879,0_S
1789468008.7499268,2107,2879,0_S
1789468008.75178,2139,2880,0_S
1789468008.753089,2033,2879,0_S
1789468008.755714,1943,2880,0_S
1789468008.7569652,2029,2878,0_S
1789468008.759281,2040,2878,0_S
1789468008.760579,2069,2877,0_S
1789468008.7631319,2032,2879,0_S
1789468008.765698,2182,2880,0_S
1789468008.766994,2136,2880,0_S
1789468008.769135,2050,2880,0_S
1789468008.771688,2044,2878,0_S
1789468008.772744,2071,2879,0_S
1789468008.775059,2070,2880,0_S
1789468008.777615,2079,2879,0_S
1789468008.77891,2122,2880,0_S
1789468008.7813,1918,2878,0_S
1789468008.782599,2221,2880,0_S
1789468008.7888682,2193,2879,0_S
1789468008.789752,2088,2880,0_S
1789468008.7902331,1994,2879,0_S
1789468008.7917929,2212,2879,0_S
1789468008.793875,2086,2880,0_S
1789468008.795717,2300,2881,0_S
1789468008.797646,2043,2878,0_S
1789468008.8004658,2091,2877,0_S
1789468008.800589,2145,2881,0_S
1789468008.803508,2251,2879,0_S
1789468008.804568,1988,2878,0_S
1789468008.8102798,1905,2877,0_S
1789468008.8110359,2021,2877,0_S
1789468008.8115468,2177,2881,0_S
1789468008.814228,2007,2878,0_S
1789468008.8158479,2008,2878,0_S
1789468008.817934,2114,2880,0_S
1789468008.820797,2206,2880,0_S
1789468008.8211079,2062,2880,0_S
1789468008.8227599,2124,2879,0_S
1789468008.824901,2095,2879,0_S
1789468008.827467,2004,2877,0_S
1789468008.828522,2054,2878,0_S
1789468008.830841,2087,2878,0_S
1789468008.8331652,2061,2877,0_S
1789468008.835501,2141,2880,0_S
1789468008.836559,2079,2878,0_S
1789468008.838861,2030,2878,0_S
1789468008.8414102,1991,2878,0_S
1789468008.8437371,2088,2880,0_S
1789468008.845032,2165,2881,0_S
1789468008.847587,2039,2877,0_S
1789468008.8487759,1932,2878,0_S
1789468008.8512,2250,2880,0_S
1789468008.853717,2095,2879,0_S
1789468008.858204,2060,2878,0_S
1789468008.85873,2135,2880,0_S
1789468008.85956,2123,2880,0_S
1789468008.860785,2114,2880,0_S
1789468008.864008,1990,2878,0_S
1789468008.866037,2129,2881,0_S
1789468008.86883,2067,2878,0_S
1789468008.8690429,2169,2880,0_S
1789468008.8711061,2084,2880,0_S
1789468008.873518,2038,2878,0_S
1789468008.8782248,2120,2880,0_S
1789468008.878686,2127,2878,0_S
1789468008.879452,2109,2878,0_S
1789468008.881005,2021,2878,0_S
1789468008.882582,2094,2878,0_S
1789468008.886042,2102,2880,0_S
1789468008.8886101,2099,2880,0_S
1789468008.888741,2046,2877,0_S
1789468008.89086,2056,2878,0_S
1789468008.8934278,2095,2880,0_S
1789468008.8947232,2068,2878,0_S
1789468008.8970308,2014,2878,0_S
1789468008.8993979,2090,2879,0_S
1789468008.900695,1893,2877,0_S
1789468008.902891,2160,2879,0_S
1789468008.905354,2278,2879,0_S
1789468008.906467,2067,2879,0_S
1789468008.9085839,2089,2878,0_S
1789468008.9109051,2091,2880,0_S
1789468008.91346,2165,2881,0_S
1789468008.9147542,2114,2879,0_S
1789468008.917233,2033,2878,0_S
1789468008.919303,2178,2880,0_S
1789468008.920598,2150,2880,0_S
1789468008.9264379,2033,2879,0_S
1789468008.927257,1981,2878,0_S
1789468008.928556,2121,2879,0_S
1789468008.928698,2130,2877,0_S
1789468008.931786,2147,2878,0_S
1789468008.933829,2070,2879,0_S
1789468008.936597,2096,2880,0_S
1789468008.936804,1962,2876,0_S
1789468008.939698,1872,2876,0_S
1789468008.940759,2082,2878,0_S
1789468008.94609,2082,2879,0_S
1789468008.946486,2173,2879,0_S
1789468008.946613,1888,2877,0_S
1789468008.948756,2204,2881,0_S
1789468008.951914,2348,2880,0_S
1789468008.9539452,2194,2880,0_S
1789468008.956539,2227,2879,0_S
1789468008.956726,2142,2880,0_S
1789468008.959588,2029,2877,0_S
1789468008.960635,2139,2880,0_S
1789468008.962958,2078,2877,0_S
1789468008.9655218,1989,2877,0_S
1789468008.966662,1878,2878,0_S
1789468008.9687428,2070,2879,0_S
1789468008.971303,2121,2880,0_S
1789468008.972605,2096,2878,0_S
1789468008.9749088,1994,2878,0_S
1789468008.976989,1946,2877,0_S
1789468008.979542,2220,2881,0_S
1789468008.980803,2015,2878,0_S
1789468008.9833999,2000,2878,0_S
1789468008.984738,2151,2880,0_S
1789468008.98706,2152,2880,0_S
1789468008.993682,2181,2879,0_S
1789468008.9937768,2064,2880,0_S
1789468008.994246,2022,2878,0_S
1789468008.996049,2165,2880,0_S
1789468008.997806,2082,2878,0_S
1789468008.999964,1980,2879,0_S
1789468009.0018141,2184,2879,0_S
1789468009.0046358,2097,2880,0_S
1789468009.0050418,1998,2878,0_S
1789468009.0066738,1945,2878,0_S
1789468009.009235,1922,2877,0_S
1789468009.014102,2046,2877,0_S
1789468009.014533,2341,2882,0_S
1789468009.014678,2141,2880,0_S
1789468009.0186381,2165,2878,0_S
1789468009.019457,2293,2880,0_S
1789468009.0223029,2112,2880,0_S
1789468009.024981,2000,2877,0_S
1789468009.025113,1788,2878,0_S
1789468009.0269032,2242,2880,0_S
1789468009.029232,2160,2881,0_S
1789468009.031383,2045,2878,0_S
1789468009.03284,2011,2878,0_S
1789468009.035402,2077,2880,0_S
1789468009.0366971,2037,2878,0_S
1789468009.039252,1982,2876,0_S
1789468009.0405471,2016,2878,0_S
1789468009.043096,2552,2882,0_S
1789468009.045401,2123,2878,0_S
1789468009.046698,2006,2878,0_S
1789468009.049083,1956,2877,0_S
1789468009.051595,1890,2877,0_S
1789468009.0528908,2398,2881,0_S
1789468009.05504,2196,2880,0_S
1789468009.0573702,1981,2879,0_S
1789468009.06176,1918,2877,0_S
1789468009.0626922,2066,2879,0_S
1789468009.06318,2088,2878,0_S
1789468009.064811,2153,2880,0_S
1789468009.067153,1963,2878,0_S
1789468009.0726871,1970,2877,0_S
1789468009.072931,2128,2880,0_S
1789468009.073086,2244,2880,0_S
1789468009.0751739,2008,2879,0_S
1789468009.077748,2364,2880,0_S
1789468009.079061,2163,2881,0_S
1789468009.08339,1859,2878,0_S
1789468009.0843892,2095,2878,0_S
1789468009.086143,2299,2880,0_S
1789468009.088484,2007,2877,0_S
1789468009.088619,1962,2877,0_S
1789468009.091488,2009,2879,0_S
1789468009.094238,2041,2879,0_S
1789468009.096002,1934,2876,0_S
1789468009.0970528,2151,2880,0_S
1789468009.0991502,2038,2879,0_S
1789468009.101739,2059,2878,0_S
1789468009.1027908,2085,2880,0_S
1789468009.10534,2020,2879,0_S
1789468009.106632,2218,2879,0_S
1789468009.109183,2203,2880,0_S
1789468009.111756,2237,2880,0_S
1789468009.113054,1833,2878,0_S
1789468009.115305,1747,2878,0_S
1789468009.116603,2300,2880,0_S
1789468009.1189241,2232,2881,0_S
1789468009.121474,1980,2879,0_S
1789468009.122528,2188,2880,0_S
1789468009.124589,2064,2880,0_S
1789468009.126955,1916,2877,0_S
1789468009.131476,2112,2878,0_S
1789468009.13198,2243,2881,0_S
