timestamp,ch1,ch2,label
1789468319.634342,2075,2880,7_S
1789468319.634642,2016,2877,7_S
1789468319.6369789,2042,2879,7_S
1789468319.6394749,2072,2880,7_S
1789468319.639731,2099,2877,7_S
1789468319.642751,2111,2879,7_S
1789468319.644953,1891,2878,7_S
1789468319.647691,2095,2881,7_S
1789468319.6480188,2140,2879,7_S
1789468319.6503308,2034,2878,7_S
1789468319.651385,2075,2879,7_S
1789468319.653687,2126,2879,7_S
1789468319.655808,2140,2881,7_S
1789468319.658381,2109,2878,7_S
1789468319.659435,2097,2879,7_S
1789468319.6615648,2056,2878,7_S
1789468319.664116,2012,2877,7_S
1789468319.6661801,2117,2878,7_S
1789468319.667475,2068,2878,7_S
1789468319.6700218,2019,2878,7_S
1789468319.6713128,2056,2878,7_S
1789468319.673861,2031,2878,7_S
1789468319.6764102,2139,2880,7_S
1789468319.677703,2074,2878,7_S
1789468319.6800818,2162,2881,7_S
1789468319.6823502,2089,2880,7_S
1789468319.6836429,2095,2879,7_S
1789468319.685715,1952,2877,7_S
1789468319.688071,2078,2880,7_S
1789468319.689368,2081,2878,7_S
1789468319.691551,2099,2879,7_S
1789468319.69386,2074,2878,7_S
1789468319.6964102,2140,2880,7_S
1789468319.6977038,2126,2879,7_S
1789468319.700255,2075,2879,7_S
1789468319.701549,2090,2878,7_S
1789468319.704106,2070,2879,7_S
1789468319.7054021,2079,2878,7_S
1789468319.707716,2053,2879,7_S
1789468319.712608,2094,2880,7_S
1789468319.713089,2060,2877,7_S
1789468319.715344,2139,2880,7_S
1789468319.7154372,2087,2878,7_S
1789468319.7183511,2033,2878,7_S
1789468319.720882,2021,2880,7_S
1789468319.7237818,2081,2879,7_S
1789468319.723975,2106,2878,7_S
1789468319.725322,2037,2879,7_S
1789468319.7278762,2099,2880,7_S
1789468319.730187,2066,2881,7_S
1789468319.731481,2120,2879,7_S
1789468319.734032,2041,2878,7_S
1789468319.736345,2054,2880,7_S
1789468319.737399,2128,2879,7_S
1789468319.739949,2109,2881,7_S
1789468319.7422552,1991,2878,7_S
1789468319.743547,2021,2879,7_S
1789468319.7461061,2125,2880,7_S
1789468319.7484212,2148,2880,7_S
1789468319.7497149,2009,2878,7_S
1789468319.7520242,2094,2878,7_S
1789468319.7540858,2127,2879,7_S
1789468319.756404,2123,2880,7_S
1789468319.7574542,2028,2879,7_S
1789468319.759681,1958,2879,7_S
1789468319.761747,2175,2880,7_S
1789468319.764071,2150,2880,7_S
1789468319.766376,2088,2880,7_S
1789468319.767668,2045,2879,7_S
1789468319.769741,1910,2876,7_S
1789468319.7722619,2148,2880,7_S
1789468319.773314,2174,2880,7_S
1789468319.775625,2047,2877,7_S
1789468319.7781482,2071,2878,7_S
1789468319.780273,2086,2879,7_S
1789468319.781331,2086,2880,7_S
1789468319.783882,1976,2878,7_S
1789468319.7862022,2071,2880,7_S
1789468319.787498,2148,2880,7_S
1789468319.7900538,2093,2880,7_S
1789468319.792386,1990,2877,7_S
1789468319.793679,2015,2879,7_S
1789468319.7959528,2142,2880,7_S
1789468319.7973099,2146,2880,7_S
1789468319.799623,2046,2879,7_S
1789468319.8021362,1949,2875,7_S
1789468319.80445,1979,2877,7_S
1789468319.805505,2162,2880,7_S
1789468319.807629,2129,2881,7_S
1789468319.809725,2068,2877,7_S
1789468319.812278,2156,2880,7_S
1789468319.813575,2104,2880,7_S
1789468319.81999,2061,2880,7_S
1789468319.820446,2092,2880,7_S
1789468319.820539,2034,2879,7_S
1789468319.822082,2127,2880,7_S
1789468319.823519,2090,2881,7_S
1789468319.826261,1936,2878,7_S
1789468319.829619,1985,2878,7_S
1789468319.829875,2270,2880,7_S
1789468319.831923,2252,2880,7_S
1789468319.834385,2001,2879,7_S
1789468319.8354309,1956,2878,7_S
1789468319.841524,2116,2879,7_S
1789468319.84228,2180,2881,7_S
1789468319.842724,1956,2878,7_S
1789468319.844461,1974,2878,7_S
1789468319.846289,2175,2881,7_S
1789468319.847873,2149,2879,7_S
1789468319.8495538,2028,2880,7_S
1789468319.8525681,2018,2879,7_S
1789468319.853641,2104,2879,7_S
1789468319.856194,2204,2880,7_S
1789468319.857488,2025,2878,7_S
1789468319.860042,2026,2879,7_S
1789468319.8613372,2112,2880,7_S
1789468319.8638878,1999,2877,7_S
1789468319.866205,2053,2880,7_S
1789468319.8674948,2184,2879,7_S
1789468319.870042,2055,2879,7_S
1789468319.872393,2106,2879,7_S
1789468319.873694,2164,2880,7_S
1789468319.8759959,2079,2879,7_S
1789468319.877311,2072,2878,7_S
1789468319.879387,2063,2878,7_S
1789468319.8817012,2115,2880,7_S
1789468319.884011,2003,2879,7_S
1789468319.886081,2065,2879,7_S
1789468319.888385,2062,2880,7_S
1789468319.889678,2073,2879,7_S
1789468319.891988,2033,2878,7_S
1789468319.894285,2130,2878,7_S
1789468319.8955772,2154,2880,7_S
1789468319.8976371,2095,2879,7_S
1789468319.900047,2043,2879,7_S
1789468319.902339,2054,2879,7_S
1789468319.903394,2052,2879,7_S
1789468319.905463,2089,2879,7_S
1789468319.907532,2024,2876,7_S
1789468319.910086,2016,2879,7_S
1789468319.9147809,2086,2879,7_S
1789468319.915552,2129,2880,7_S
1789468319.915967,2048,2878,7_S
1789468319.917749,1991,2878,7_S
1789468319.9195929,1970,2876,7_S
1789468319.9226491,2222,2879,7_S
1789468319.9240682,2131,2881,7_S
1789468319.925565,2019,2878,7_S
1789468319.928129,2026,2879,7_S
1789468319.929342,2198,2881,7_S
1789468319.931669,2086,2880,7_S
1789468319.935631,2096,2880,7_S
1789468319.93638,2082,2879,7_S
1789468319.938507,2089,2880,7_S
1789468319.940277,2087,2881,7_S
1789468319.941777,2019,2879,7_S
1789468319.943431,2052,2879,7_S
1789468319.9465642,2121,2880,7_S
1789468319.947618,2094,2880,7_S
1789468319.9497442,2073,2878,7_S
1789468319.952055,2102,2880,7_S
1789468319.9533582,2051,2879,7_S
1789468319.95593,2119,2879,7_S
1789468319.958011,2048,2879,7_S
1789468319.96032,2016,2878,7_S
1789468319.961368,2183,2880,7_S
1789468319.963569,2174,2880,7_S
1789468319.966121,2041,2878,7_S
1789468319.968241,2061,2880,7_S
1789468319.9695308,1997,2877,7_S
1789468319.971832,2033,2878,7_S
1789468319.974137,2129,2881,7_S
1789468319.975428,1995,2878,7_S
1789468319.9777331,2017,2877,7_S
1789468319.980042,2104,2881,7_S
1789468319.9813309,2102,2879,7_S
1789468319.983876,2044,2880,7_S
1789468319.98608,2017,2880,7_S
1789468319.987608,2168,2880,7_S
1789468319.989921,2120,2880,7_S
1789468319.99248,2020,2878,7_S
1789468319.993531,2072,2879,7_S
1789468319.995832,2159,2880,7_S
1789468319.998378,2167,2879,7_S
1789468319.999668,2062,2880,7_S
1789468320.006098,2091,2878,7_S
1789468320.006233,2101,2879,7_S
1789468320.006668,2054,2878,7_S
1789468320.009046,2000,2878,7_S
1789468320.010886,2075,2879,7_S
1789468320.0126998,2033,2879,7_S
1789468320.014432,2047,2880,7_S
1789468320.015858,2233,2879,7_S
1789468320.018053,2133,2880,7_S
1789468320.019354,1973,2877,7_S
1789468320.0216699,2120,2880,7_S
1789468320.0279381,2018,2878,7_S
1789468320.028373,1900,2878,7_S
1789468320.028796,2174,2880,7_S
1789468320.030669,2199,2880,7_S
1789468320.032185,2051,2879,7_S
1789468320.0342941,2023,2879,7_S
1789468320.036017,2018,2880,7_S
1789468320.037405,2024,2878,7_S
1789468320.040211,2171,2881,7_S
1789468320.0413,2110,2878,7_S
1789468320.04361,2027,2878,7_S
1789468320.0456882,2043,2878,7_S
1789468320.0480142,2192,2879,7_S
1789468320.049311,2042,2878,7_S
1789468320.051619,2058,2877,7_S
1789468320.054071,2058,2879,7_S
1789468320.056373,2173,2880,7_S
1789468320.0574248,2025,2879,7_S
1789468320.0597289,2040,2878,7_S
1789468320.062037,2119,2880,7_S
1789468320.064349,2187,2879,7_S
1789468320.06565,2031,2879,7_S
1789468320.0679638,2011,2879,7_S
1789468320.0693161,2045,2879,7_S
1789468320.071636,2049,2877,7_S
1789468320.074188,2119,2878,7_S
1789468320.075315,2193,2880,7_S
1789468320.077612,1938,2877,7_S
1789468320.079853,2067,2879,7_S
1789468320.082161,2171,2880,7_S
1789468320.08346,2045,2878,7_S
1789468320.0860102,2056,2879,7_S
1789468320.0873039,2082,2880,7_S
1789468320.089824,2084,2878,7_S
1789468320.092125,2096,2878,7_S
1789468320.093417,2069,2879,7_S
1789468320.0992498,2095,2880,7_S
1789468320.099692,2042,2879,7_S
1789468320.100118,2015,2878,7_S
1789468320.101969,2029,2880,7_S
1789468320.1037672,2072,2879,7_S
1789468320.1053922,2188,2881,7_S
1789468320.108225,2076,2879,7_S
1789468320.1103501,2056,2879,7_S
1789468320.111649,2093,2877,7_S
1789468320.114205,2181,2880,7_S
1789468320.115327,2115,2879,7_S
1789468320.120099,2117,2879,7_S
1789468320.1204789,2072,2879,7_S
1789468320.122907,2037,2877,7_S
1789468320.12433,2058,2878,7_S
1789468320.126127,2005,2879,7_S
1789468320.1277142,2119,2880,7_S
1789468320.130989,2082,2879,7_S
1789468320.1322858,2045,2879,7_S
1789468320.133579,2061,2878,7_S
1789468320.13589,2041,2880,7_S
1789468320.138232,2053,2879,7_S
1789468320.139551,2071,2878,7_S
1789468320.141854,2080,2878,7_S
1789468320.144165,2119,2881,7_S
1789468320.146477,2086,2880,7_S
1789468320.147773,2026,2879,7_S
1789468320.149948,2177,2879,7_S
1789468320.151309,2101,2879,7_S
1789468320.1536179,2090,2879,7_S
1789468320.155921,2106,2880,7_S
1789468320.158232,1973,2878,7_S
1789468320.159522,2021,2878,7_S
1789468320.16207,2109,2878,7_S
1789468320.16336,2123,2879,7_S
1789468320.165662,2146,2879,7_S
1789468320.1679628,2087,2878,7_S
1789468320.1692748,2047,2879,7_S
1789468320.171819,2101,2879,7_S
1789468320.1739311,2141,2880,7_S
1789468320.175282,1986,2877,7_S
1789468320.177595,1967,2879,7_S
1789468320.1798232,2114,2879,7_S
1789468320.18237,2166,2879,7_S
1789468320.1834219,2032,2878,7_S
1789468320.185735,2073,2879,7_S
1789468320.190559,2058,2879,7_S
1789468320.1913521,2113,2881,7_S
1789468320.191434,2078,2877,7_S
1789468320.1946912,2104,2878,7_S
1789468320.1963,2144,2882,7_S
1789468320.1979961,2101,2880,7_S
1789468320.199394,2002,2879,7_S
1789468320.202091,2018,2878,7_S
1789468320.203391,2001,2880,7_S
1789468320.2059479,2106,2878,7_S
1789468320.211045,2055,2878,7_S
1789468320.211137,2069,2880,7_S
1789468320.213356,2114,2880,7_S
1789468320.213467,2146,2880,7_S
1789468320.217014,2068,2879,7_S
1789468320.219538,1995,2879,7_S
1789468320.21965,2007,2880,7_S
1789468320.222244,2146,2879,7_S
1789468320.2233028,2113,2880,7_S
1789468320.226314,2031,2878,7_S
1789468320.227631,2065,2878,7_S
1789468320.229955,2148,2880,7_S
1789468320.232554,2030,2878,7_S
1789468320.2336051,1816,2878,7_S
1789468320.235925,2002,2876,7_S
1789468320.238223,2451,2879,7_S
1789468320.2393029,2258,2879,7_S
1789468320.2415512,1599,2879,7_S
1789468320.243857,1880,2877,7_S
1789468320.246165,2235,2880,7_S
1789468320.247349,2252,2880,7_S
1789468320.249899,2182,2879,7_S
1789468320.2519639,1928,2880,7_S
1789468320.2542698,2046,2879,7_S
1789468320.255331,2105,2880,7_S
1789468320.257442,2043,2878,7_S
1789468320.259748,2045,2878,7_S
1789468320.261865,2021,2878,7_S
1789468320.264512,2206,2881,7_S
1789468320.265811,2339,2880,7_S
1789468320.2680151,2074,2878,7_S
1789468320.2703109,2085,2880,7_S
1789468320.2716029,2147,2880,7_S
1789468320.273665,2115,2878,7_S
1789468320.279475,2075,2879,7_S
1789468320.279954,2088,2879,7_S
1789468320.2803872,2053,2878,7_S
1789468320.282471,2046,2880,7_S
1789468320.284787,2059,2879,7_S
1789468320.286011,2001,2878,7_S
1789468320.2875671,1856,2878,7_S
1789468320.291033,1590,2878,7_S
1789468320.292083,1912,2879,7_S
1789468320.293374,2979,2882,7_S
1789468320.295923,2416,2881,7_S
1789468320.300749,1679,2877,7_S
1789468320.300885,1837,2878,7_S
1789468320.303103,1900,2877,7_S
1789468320.304835,2959,2880,7_S
1789468320.306465,2268,2879,7_S
1789468320.307957,1001,2878,7_S
1789468320.30954,1691,2878,7_S
1789468320.312135,2275,2882,7_S
1789468320.3133361,1892,2878,7_S
1789468320.315893,2513,2881,7_S
1789468320.318343,2174,2880,7_S
1789468320.319415,2294,2879,7_S
1789468320.321725,2210,2880,7_S
1789468320.32386,2204,2877,7_S
1789468320.326406,2155,2879,7_S
1789468320.327693,2195,2877,7_S
1789468320.329993,2041,2877,7_S
1789468320.3320692,1945,2879,7_S
1789468320.3341382,1921,2878,7_S
1789468320.3362129,1999,2877,7_S
1789468320.337502,1838,2876,7_S
1789468320.3400488,1705,2877,7_S
1789468320.342299,1996,2878,7_S
1789468320.343586,2246,2880,7_S
1789468320.346133,2087,2879,7_S
1789468320.347422,2015,2879,7_S
1789468320.349717,1911,2878,7_S
1789468320.352031,1925,2879,7_S
1789468320.353326,2019,2879,7_S
1789468320.3556259,2164,2881,7_S
1789468320.357923,2149,2878,7_S
1789468320.360471,2041,2877,7_S
1789468320.361525,1833,2879,7_S
1789468320.363714,2128,2880,7_S
1789468320.368902,2058,2879,7_S
1789468320.369387,1883,2879,7_S
1789468320.369886,1779,2877,7_S
1789468320.371472,1967,2877,7_S
1789468320.374301,2407,2882,7_S
1789468320.376155,2109,2877,7_S
1789468320.377862,1951,2877,7_S
1789468320.379869,1990,2877,7_S
1789468320.3821719,2092,2878,7_S
1789468320.3833358,2370,2879,7_S
1789468320.385646,2105,2878,7_S
1789468320.389169,2034,2879,7_S
1789468320.389581,1614,2879,7_S
1789468320.391716,2164,2879,7_S
1789468320.3945239,2492,2881,7_S
1789468320.3980649,1864,2878,7_S
1789468320.3983,1875,2876,7_S
1789468320.399831,1766,2876,7_S
1789468320.402165,2677,2880,7_S
1789468320.403457,2361,2879,7_S
1789468320.4055748,1928,2876,7_S
1789468320.408155,1896,2878,7_S
1789468320.409454,2234,2878,7_S
1789468320.411513,1600,2877,7_S
1789468320.413814,2285,2881,7_S
1789468320.41593,2526,2881,7_S
1789468320.417983,1786,2879,7_S
1789468320.4202938,1908,2878,7_S
1789468320.421345,2070,2880,7_S
1789468320.423659,2059,2878,7_S
1789468320.425973,1951,2879,7_S
1789468320.427325,1879,2878,7_S
1789468320.429625,2193,2880,7_S
1789468320.431681,2429,2879,7_S
1789468320.433742,1774,2875,7_S
1789468320.4360619,1856,2879,7_S
1789468320.438118,1783,2877,7_S
1789468320.440417,1910,2877,7_S
1789468320.4414551,1672,2878,7_S
1789468320.443753,3074,2882,7_S
1789468320.446296,2260,2879,7_S
1789468320.447349,1804,2876,7_S
1789468320.449406,1386,2876,7_S
1789468320.451954,2351,2879,7_S
1789468320.457346,2111,2878,7_S
1789468320.457393,1990,2877,7_S
1789468320.458123,1662,2877,7_S
1789468320.4596338,1991,2877,7_S
1789468320.462189,2836,2881,7_S
1789468320.46426,992,2876,7_S
1789468320.466377,2118,2878,7_S
1789468320.4679658,2772,2881,7_S
1789468320.469318,1854,2876,7_S
1789468320.4718678,1848,2878,7_S
1789468320.477938,1985,2878,7_S
1789468320.4783418,1787,2878,7_S
1789468320.479031,1646,2878,7_S
1789468320.4805021,2342,2881,7_S
1789468320.4825091,2153,2879,7_S
1789468320.485306,1838,2880,7_S
1789468320.485452,1272,2877,7_S
1789468320.487512,2697,2881,7_S
1789468320.490036,2983,2882,7_S
1789468320.491341,1347,2877,7_S
1789468320.493886,1309,2878,7_S
1789468320.495946,2396,2880,7_S
1789468320.497372,2561,2881,7_S
1789468320.499941,1942,2878,7_S
1789468320.501345,1067,2876,7_S
1789468320.503659,1958,2877,7_S
1789468320.505718,2158,2880,7_S
1789468320.508134,1872,2877,7_S
1789468320.509422,2260,2880,7_S
1789468320.511969,1706,2877,7_S
1789468320.51427,1224,2877,7_S
1789468320.515562,1333,2876,7_S
1789468320.517868,2666,2881,7_S
1789468320.520299,1882,2878,7_S
1789468320.5213492,1372,2878,7_S
1789468320.523896,1757,2878,7_S
1789468320.525955,1634,2877,7_S
1789468320.528252,2720,2881,7_S
1789468320.529332,2444,2881,7_S
1789468320.531638,1728,2877,7_S
1789468320.5339441,1829,2876,7_S
1789468320.535309,1679,2877,7_S
1789468320.537623,1890,2878,7_S
1789468320.540168,1893,2877,7_S
1789468320.5414279,1934,2878,7_S
1789468320.547116,879,2876,7_S
1789468320.547464,2063,2876,7_S
1789468320.547893,2151,2879,7_S
1789468320.549396,1500,2876,7_S
1789468320.552564,1221,2877,7_S
1789468320.554153,1881,2877,7_S
1789468320.556469,2209,2881,7_S
1789468320.558372,1876,2877,7_S
1789468320.559671,1640,2876,7_S
1789468320.5619771,2061,2878,7_S
1789468320.56456,1874,2876,7_S
1789468320.568321,1326,2877,7_S
1789468320.569088,1257,2876,7_S
1789468320.570816,2300,2878,7_S
1789468320.5726101,2862,2881,7_S
1789468320.5740979,1721,2876,7_S
1789468320.5756822,1425,2878,7_S
1789468320.5781262,1867,2877,7_S
1789468320.580074,2112,2878,7_S
1789468320.581367,2297,2880,7_S
1789468320.583916,1918,2877,7_S
1789468320.5862179,1325,2877,7_S
1789468320.587342,1765,2876,7_S
1789468320.5899038,1614,2878,7_S
1789468320.592472,1674,2878,7_S
1789468320.593761,2366,2881,7_S
1789468320.596307,1357,2877,7_S
1789468320.597601,2334,2879,7_S
1789468320.600151,2113,2880,7_S
1789468320.601441,2197,2879,7_S
1789468320.6037529,1817,2878,7_S
1789468320.606072,1830,2877,7_S
1789468320.608383,1877,2878,7_S
1789468320.6096718,1959,2878,7_S
1789468320.612085,1839,2876,7_S
1789468320.613376,2208,2879,7_S
1789468320.615679,2049,2879,7_S
1789468320.617743,1761,2876,7_S
1789468320.62029,2001,2877,7_S
1789468320.621578,2011,2878,7_S
1789468320.623637,1820,2877,7_S
1789468320.6257122,1981,2877,7_S
1789468320.628007,1777,2877,7_S
1789468320.629319,1790,2877,7_S
1789468320.631428,2325,2879,7_S
1789468320.6368608,1895,2879,7_S
1789468320.6373,2057,2881,7_S
1789468320.6390872,2531,2881,7_S
1789468320.6409621,2338,2880,7_S
1789468320.64222,1967,2880,7_S
1789468320.644098,1963,2878,7_S
1789468320.646671,2223,2881,7_S
1789468320.648716,2237,2880,7_S
1789468320.649778,2011,2879,7_S
1789468320.652089,1978,2878,7_S
1789468320.6542678,1989,2880,7_S
1789468320.658774,1982,2878,7_S
1789468320.659233,2081,2879,7_S
1789468320.659622,2101,2879,7_S
1789468320.662575,2092,2877,7_S
1789468320.6643991,1903,2877,7_S
1789468320.665783,1733,2876,7_S
1789468320.668525,2161,2879,7_S
1789468320.6702971,2123,2879,7_S
1789468320.671593,2134,2879,7_S
1789468320.673907,1951,2878,7_S
1789468320.675293,1597,2879,7_S
1789468320.6776881,1814,2879,7_S
1789468320.6801631,2392,2881,7_S
1789468320.681312,2669,2881,7_S
1789468320.683504,2544,2880,7_S
1789468320.685815,2435,2880,7_S
1789468320.6881301,2288,2880,7_S
1789468320.689394,2478,2880,7_S
1789468320.6916952,2574,2881,7_S
1789468320.69424,2505,2880,7_S
1789468320.695319,2293,2880,7_S
1789468320.6978629,2524,2880,7_S
1789468320.700308,2176,2879,7_S
1789468320.701351,2137,2880,7_S
1789468320.703427,1860,2876,7_S
1789468320.705536,2096,2877,7_S
1789468320.707946,2682,2881,7_S
1789468320.7100549,2454,2881,7_S
1789468320.7123652,3053,2881,7_S
1789468320.713652,2810,2881,7_S
1789468320.7157161,2005,2879,7_S
1789468320.717782,1959,2876,7_S
1789468320.7203252,2134,2878,7_S
1789468320.721375,3138,2883,7_S
1789468320.723783,2637,2881,7_S
1789468320.72771,2429,2880,7_S
1789468320.727813,2469,2880,7_S
1789468320.730191,2055,2879,7_S
1789468320.731788,2506,2880,7_S
1789468320.7350101,2512,2881,7_S
1789468320.737779,2385,2881,7_S
1789468320.738061,2579,2881,7_S
1789468320.739947,2054,2879,7_S
1789468320.742252,2197,2879,7_S
1789468320.74354,1952,2878,7_S
1789468320.749778,1968,2879,7_S
1789468320.749877,2644,2881,7_S
1789468320.750299,2415,2881,7_S
1789468320.7520058,2341,2880,7_S
1789468320.753658,2306,2879,7_S
1789468320.756605,2553,2880,7_S
1789468320.75933,2382,2881,7_S
1789468320.759478,2037,2878,7_S
1789468320.762181,2217,2880,7_S
1789468320.763476,2829,2881,7_S
1789468320.766027,2671,2881,7_S
1789468320.767318,2381,2880,7_S
1789468320.769889,2011,2880,7_S
1789468320.77223,2307,2880,7_S
1789468320.773314,2489,2880,7_S
1789468320.775424,2346,2880,7_S
1789468320.777568,2283,2881,7_S
1789468320.780117,2506,2879,7_S
1789468320.781408,2428,2881,7_S
1789468320.7837172,2350,2880,7_S
1789468320.786262,1822,2877,7_S
1789468320.787313,1675,2878,7_S
1789468320.789611,2459,2881,7_S
1789468320.79191,2420,2880,7_S
1789468320.793317,2042,2878,7_S
1789468320.795618,2403,2881,7_S
1789468320.797923,1712,2877,7_S
1789468320.7992818,2217,2881,7_S
1789468320.8015969,2152,2881,7_S
1789468320.803755,1971,2878,7_S
1789468320.8060591,1693,2878,7_S
1789468320.807348,1285,2878,7_S
1789468320.8096519,3326,2884,7_S
1789468320.81197,3684,2884,7_S
1789468320.813314,1986,2880,7_S
1789468320.818537,1077,2876,7_S
1789468320.818978,2160,2878,7_S
1789468320.821069,2570,2882,7_S
1789468320.822779,3033,2881,7_S
1789468320.824623,2157,2881,7_S
1789468320.828573,1169,2877,7_S
1789468320.828717,960,2876,7_S
1789468320.830611,1165,2876,7_S
1789468320.831904,2043,2880,7_S
1789468320.834465,2401,2881,7_S
1789468320.8355699,2250,2880,7_S
1789468320.840058,2067,2880,7_S
1789468320.840456,2386,2881,7_S
1789468320.842421,2651,2882,7_S
1789468320.8445299,1679,2877,7_S
1789468320.845998,784,2877,7_S
1789468320.850019,2278,2879,7_S
1789468320.850147,2631,2881,7_S
1789468320.8522298,1472,2876,7_S
1789468320.8535411,859,2878,7_S
1789468320.855619,1966,2879,7_S
1789468320.85793,863,2877,7_S
1789468320.859336,2888,2882,7_S
1789468320.861653,3407,2884,7_S
1789468320.8637881,1468,2877,7_S
1789468320.866095,1899,2878,7_S
1789468320.867383,2347,2881,7_S
1789468320.869928,1625,2878,7_S
1789468320.872233,505,2877,7_S
1789468320.873288,398,2877,7_S
1789468320.875396,1635,2878,7_S
1789468320.877454,2002,2880,7_S
1789468320.88001,2014,2878,7_S
1789468320.881366,3299,2884,7_S
1789468320.883917,1528,2877,7_S
1789468320.8860319,1320,2878,7_S
1789468320.8884559,2042,2879,7_S
1789468320.8897438,3479,2883,7_S
1789468320.892042,2205,2878,7_S
1789468320.8933299,575,2876,7_S
1789468320.895874,1650,2878,7_S
1789468320.897933,981,2876,7_S
1789468320.899297,789,2876,7_S
1789468320.901613,2103,2880,7_S
1789468320.903921,2741,2880,7_S
1789468320.909104,2932,2881,7_S
1789468320.9092171,2584,2880,7_S
1789468320.909652,1815,2877,7_S
1789468320.911659,1737,2878,7_S
1789468320.914475,2254,2880,7_S
1789468320.9164329,2152,2880,7_S
1789468320.919713,1823,2877,7_S
1789468320.9199302,1812,2876,7_S
1789468320.921487,1770,2877,7_S
1789468320.923557,1701,2878,7_S
1789468320.925659,1547,2878,7_S
1789468320.931069,1680,2877,7_S
1789468320.931517,2400,2881,7_S
1789468320.932526,2485,2880,7_S
1789468320.934707,1494,2877,7_S
1789468320.936157,2226,2880,7_S
1789468320.938254,1920,2878,7_S
1789468320.9414861,2290,2880,7_S
1789468320.941657,2302,2880,7_S
1789468320.944385,1985,2877,7_S
1789468320.945676,1923,2878,7_S
1789468320.947978,1973,2877,7_S
1789468320.950291,1851,2877,7_S
1789468320.951597,1788,2878,7_S
1789468320.9539049,1791,2877,7_S
1789468320.956471,1934,2878,7_S
1789468320.957763,1883,2877,7_S
1789468320.9600708,2107,2877,7_S
1789468320.961359,1740,2877,7_S
1789468320.963876,2011,2878,7_S
1789468320.965947,2151,2879,7_S
1789468320.968257,1763,2876,7_S
1789468320.9693089,1323,2878,7_S
1789468320.9714198,2783,2882,7_S
1789468320.9739819,1989,2879,7_S
1789468320.975343,2214,2881,7_S
1789468320.977901,2026,2878,7_S
1789468320.980243,2012,2878,7_S
1789468320.981308,2244,2881,7_S
1789468320.983854,2094,2879,7_S
1789468320.98592,2168,2878,7_S
1789468320.987354,1958,2879,7_S
1789468320.989473,2080,2879,7_S
1789468320.992033,1536,2877,7_S
1789468320.993323,2264,2881,7_S
1789468320.9957702,2937,2883,7_S
1789468321.000709,2103,2879,7_S
1789468321.0011399,1962,2877,7_S
1789468321.003349,2325,2881,7_S
1789468321.0034611,2142,2880,7_S
1789468321.0065541,2180,2880,7_S
1789468321.008069,1770,2878,7_S
1789468321.011431,2515,2880,7_S
1789468321.0116029,2260,2880,7_S
1789468321.014378,2338,2880,7_S
1789468321.015439,2229,2880,7_S
1789468321.017749,1940,2877,7_S
1789468321.023144,2234,2880,7_S
1789468321.023809,2573,2881,7_S
1789468321.024244,1846,2878,7_S
1789468321.025845,1661,2877,7_S
1789468321.028641,2255,2882,7_S
1789468321.030417,2253,2879,7_S
1789468321.0338418,2081,2879,7_S
1789468321.034045,1982,2880,7_S
1789468321.035585,2125,2879,7_S
1789468321.037833,2820,2881,7_S
1789468321.040142,2109,2880,7_S
1789468321.041436,1895,2877,7_S
1789468321.044019,2484,2881,7_S
1789468321.0463328,2242,2880,7_S
1789468321.047455,2122,2879,7_S
1789468321.049991,2396,2879,7_S
1789468321.052306,2108,2880,7_S
1789468321.053602,1475,2877,7_S
1789468321.055669,2707,2881,7_S
1789468321.057733,2352,2881,7_S
1789468321.0600278,1822,2878,7_S
1789468321.062334,2149,2880,7_S
1789468321.063377,2185,2878,7_S
1789468321.065558,2028,2878,7_S
1789468321.067862,2141,2879,7_S
1789468321.069912,2328,2880,7_S
1789468321.0720599,2058,2877,7_S
1789468321.07336,1975,2878,7_S
1789468321.075905,2490,2881,7_S
1789468321.0782049,2140,2879,7_S
1789468321.079494,2073,2879,7_S
1789468321.082038,2074,2880,7_S
1789468321.083327,1963,2876,7_S
1789468321.085873,2360,2881,7_S
1789468321.088182,2152,2881,7_S
1789468321.0926342,2120,2879,7_S
1789468321.093785,2122,2880,7_S
1789468321.093916,1828,2877,7_S
1789468321.0955698,2200,2881,7_S
1789468321.098067,2297,2880,7_S
1789468321.1003258,1986,2879,7_S
1789468321.103901,2389,2880,7_S
1789468321.104182,2133,2880,7_S
1789468321.105973,2133,2880,7_S
1789468321.108295,2065,2877,7_S
1789468321.1095848,2182,2881,7_S
1789468321.115502,2357,2881,7_S
1789468321.1158888,2244,2880,7_S
1789468321.116246,2103,2879,7_S
1789468321.117999,2077,2878,7_S
1789468321.119704,2127,2880,7_S
1789468321.122745,2090,2880,7_S
1789468321.126323,2127,2880,7_S
1789468321.126455,1741,2878,7_S
1789468321.1283572,1244,2877,7_S
1789468321.129428,2763,2881,7_S
1789468321.131979,2905,2883,7_S
1789468321.1333241,1906,2879,7_S
1789468321.1356559,2165,2881,7_S
1789468321.137883,2135,2880,7_S
1789468321.140352,2319,2881,7_S
1789468321.141641,2194,2879,7_S
1789468321.144116,2117,2879,7_S
1789468321.1454039,2287,2880,7_S
1789468321.147707,2025,2879,7_S
1789468321.150251,1920,2878,7_S
1789468321.151333,1966,2878,7_S
1789468321.153644,2085,2879,7_S
1789468321.156192,2215,2881,7_S
1789468321.157481,2175,2878,7_S
1789468321.1598809,2056,2879,7_S
1789468321.162185,2092,2877,7_S
1789468321.163306,2143,2880,7_S
1789468321.165615,2052,2880,7_S
1789468321.167912,1967,2878,7_S
1789468321.170227,2111,2879,7_S
1789468321.171514,2250,2880,7_S
1789468321.173635,2175,2880,7_S
1789468321.176181,2143,2878,7_S
1789468321.177471,2166,2879,7_S
1789468321.1797671,2154,2879,7_S
1789468321.18459,2088,2879,7_S
1789468321.185374,2016,2877,7_S
1789468321.1860979,2112,2878,7_S
1789468321.188822,2125,2878,7_S
1789468321.190412,2249,2879,7_S
1789468321.192043,2037,2877,7_S
1789468321.1956952,2095,2880,7_S
1789468321.1958568,2193,2881,7_S
1789468321.1977,2231,2879,7_S
1789468321.200253,2097,2879,7_S
1789468321.201542,2064,2880,7_S
1789468321.207794,2111,2878,7_S
1789468321.2085361,2162,2880,7_S
1789468321.208878,2194,2880,7_S
1789468321.211641,2155,2878,7_S
1789468321.211772,2185,2881,7_S
1789468321.214556,2191,2880,7_S
1789468321.218218,2127,2879,7_S
1789468321.218352,2053,2879,7_S
1789468321.21986,2183,2879,7_S
1789468321.222409,2171,2881,7_S
1789468321.2236989,2145,2880,7_S
1789468321.226007,2094,2878,7_S
1789468321.228336,2061,2877,7_S
1789468321.229633,2126,2880,7_S
1789468321.2317078,2283,2879,7_S
1789468321.234011,2110,2879,7_S
1789468321.235308,2022,2879,7_S
1789468321.237754,2052,2879,7_S
1789468321.240057,2155,2880,7_S
1789468321.241347,2061,2877,7_S
1789468321.243892,2136,2879,7_S
1789468321.246196,2234,2881,7_S
1789468321.248498,2198,2879,7_S
1789468321.2497861,2127,2880,7_S
1789468321.252095,2093,2879,7_S
1789468321.2533839,2053,2879,7_S
1789468321.2556858,2126,2881,7_S
1789468321.257733,2107,2877,7_S
1789468321.260031,2070,2879,7_S
1789468321.2613199,2105,2880,7_S
1789468321.263865,2073,2880,7_S
1789468321.266169,1999,2879,7_S
1789468321.267456,2037,2879,7_S
1789468321.2697558,2041,2880,7_S
1789468321.2720609,1989,2878,7_S
1789468321.273349,2276,2881,7_S
1789468321.278445,2107,2880,7_S
1789468321.2788448,2033,2879,7_S
1789468321.280542,2031,2878,7_S
1789468321.282335,2231,2879,7_S
1789468321.284137,2125,2880,7_S
1789468321.2888021,2019,2879,7_S
1789468321.289071,1981,2877,7_S
1789468321.290911,2010,2878,7_S
1789468321.2919638,2048,2878,7_S
1789468321.294271,2063,2878,7_S
1789468321.295441,2102,2881,7_S
1789468321.300579,2249,2879,7_S
1789468321.301335,2233,2879,7_S
1789468321.302805,2012,2877,7_S
1789468321.304512,2099,2879,7_S
1789468321.306092,2146,2880,7_S
1789468321.307661,1927,2879,7_S
1789468321.311222,2015,2878,7_S
1789468321.3113549,2115,2879,7_S
1789468321.314046,2114,2879,7_S
1789468321.315338,2046,2878,7_S
1789468321.3178601,1891,2876,7_S
1789468321.320425,2079,2879,7_S
1789468321.3217258,2275,2880,7_S
1789468321.3241758,2012,2877,7_S
1789468321.3254669,2106,2878,7_S
1789468321.328017,2076,2878,7_S
1789468321.330087,2111,2880,7_S
1789468321.331381,1860,2875,7_S
1789468321.333926,2096,2880,7_S
1789468321.336141,2162,2878,7_S
1789468321.337429,2288,2879,7_S
1789468321.3397388,2317,2881,7_S
1789468321.34179,2157,2881,7_S
1789468321.344095,1824,2877,7_S
1789468321.346408,1921,2878,7_S
1789468321.347696,2282,2880,7_S
1789468321.350143,2015,2880,7_S
1789468321.351431,1719,2877,7_S
1789468321.3539798,2100,2879,7_S
1789468321.35629,2148,2879,7_S
1789468321.357576,2094,2881,7_S
1789468321.36012,1967,2877,7_S
1789468321.362432,2480,2880,7_S
1789468321.363477,2143,2881,7_S
1789468321.3694358,1828,2877,7_S
1789468321.3698308,1966,2877,7_S
1789468321.3702521,2115,2879,7_S
1789468321.371905,2030,2879,7_S
1789468321.373657,2003,2878,7_S
1789468321.37661,2031,2878,7_S
1789468321.380307,2007,2878,7_S
1789468321.380472,2024,2878,7_S
1789468321.382284,2076,2878,7_S
1789468321.383578,2191,2880,7_S
1789468321.386123,1954,2877,7_S
1789468321.387423,2129,2879,7_S
1789468321.392468,2190,2880,7_S
1789468321.392899,1740,2877,7_S
1789468321.3944268,1956,2878,7_S
1789468321.395812,2267,2880,7_S
1789468321.397488,2124,2880,7_S
1789468321.402173,2020,2877,7_S
1789468321.402303,1802,2878,7_S
1789468321.4042492,2257,2879,7_S
1789468321.405545,2273,2880,7_S
1789468321.407665,1929,2877,7_S
1789468321.4099698,1960,2877,7_S
1789468321.41126,2043,2879,7_S
1789468321.4138198,2217,2881,7_S
1789468321.416369,2209,2879,7_S
1789468321.4176588,1927,2878,7_S
1789468321.420029,1967,2877,7_S
1789468321.421317,2240,2879,7_S
1789468321.423861,2206,2880,7_S
1789468321.425211,2017,2878,7_S
1789468321.42766,1902,2878,7_S
1789468321.429963,2130,2878,7_S
1789468321.4320152,2224,2880,7_S
1789468321.434321,2036,2879,7_S
1789468321.435374,2015,2880,7_S
1789468321.437676,2244,2880,7_S
1789468321.440227,1880,2878,7_S
1789468321.441278,1975,2878,7_S
1789468321.4438221,1960,2879,7_S
1789468321.446026,2120,2878,7_S
1789468321.448334,2156,2881,7_S
1789468321.449622,2208,2879,7_S
1789468321.451933,2209,2879,7_S
1789468321.4542348,1983,2879,7_S
1789468321.455285,2153,2880,7_S
1789468321.457772,2177,2882,7_S
1789468321.462092,2123,2878,7_S
1789468321.462188,2124,2878,7_S
1789468321.4644659,2209,2879,7_S
1789468321.465825,2188,2880,7_S
1789468321.467308,2162,2879,7_S
1789468321.472366,2090,2878,7_S
1789468321.4724832,1937,2876,7_S
1789468321.474349,1994,2877,7_S
1789468321.475643,1987,2879,7_S
1789468321.477949,2054,2878,7_S
1789468321.479241,2062,2878,7_S
1789468321.484756,2019,2879,7_S
1789468321.48517,2052,2878,7_S
1789468321.485599,2029,2879,7_S
1789468321.488634,2112,2879,7_S
1789468321.49013,2128,2881,7_S
1789468321.491703,2046,2878,7_S
1789468321.4949481,2175,2881,7_S
1789468321.4968178,2142,2881,7_S
1789468321.4981172,2201,2879,7_S
1789468321.499409,1979,2879,7_S
1789468321.501878,1952,2876,7_S
1789468321.503201,2201,2880,7_S
1789468321.5055318,2333,2879,7_S
1789468321.5079339,2170,2880,7_S
1789468321.510237,1567,2877,7_S
1789468321.511523,2042,2876,7_S
1789468321.513833,2362,2881,7_S
1789468321.5152462,2231,2881,7_S
1789468321.5173068,1906,2878,7_S
1789468321.519367,1705,2877,7_S
1789468321.521665,2278,2879,7_S
1789468321.524211,2282,2880,7_S
1789468321.525267,2099,2878,7_S
1789468321.527818,2111,2878,7_S
1789468321.529172,2133,2879,7_S
1789468321.531693,2100,2879,7_S
1789468321.534237,2188,2880,7_S
1789468321.535288,2012,2879,7_S
1789468321.5378299,2000,2879,7_S
1789468321.5402088,2134,2880,7_S
1789468321.541258,2071,2878,7_S
1789468321.543802,1927,2878,7_S
1789468321.545207,2063,2878,7_S
1789468321.547509,2158,2880,7_S
1789468321.5535,2051,2879,7_S
1789468321.554181,1959,2876,7_S
1789468321.554297,2126,2880,7_S
1789468321.55616,2234,2880,7_S
1789468321.557604,2135,2880,7_S
1789468321.560698,2031,2877,7_S
1789468321.563702,2032,2878,7_S
1789468321.563802,2162,2880,7_S
1789468321.565845,2156,2879,7_S
1789468321.56815,1983,2876,7_S
1789468321.569203,2039,2880,7_S
1789468321.574688,2096,2880,7_S
1789468321.575646,2011,2877,7_S
1789468321.5757382,1946,2878,7_S
1789468321.577417,2138,2880,7_S
1789468321.580181,2127,2880,7_S
1789468321.58195,2234,2879,7_S
1789468321.5850492,2117,2880,7_S
1789468321.586786,1984,2880,7_S
1789468321.5878642,2012,2877,7_S
1789468321.589198,2214,2881,7_S
1789468321.5915148,2116,2881,7_S
1789468321.594083,2031,2877,7_S
1789468321.595381,2107,2880,7_S
1789468321.597684,2107,2880,7_S
1789468321.599993,2130,2880,7_S
1789468321.601283,1968,2877,7_S
1789468321.603392,2054,2880,7_S
1789468321.6054668,2034,2878,7_S
1789468321.6077828,2081,2880,7_S
1789468321.6098392,2044,2878,7_S
1789468321.6112058,2053,2878,7_S
1789468321.61352,2128,2881,7_S
1789468321.6158311,2058,2879,7_S
1789468321.61838,2033,2879,7_S
1789468321.619668,2205,2879,7_S
1789468321.621738,2116,2879,7_S
1789468321.62397,2021,2878,7_S
1789468321.625257,2036,2877,7_S
1789468321.627557,2088,2879,7_S
1789468321.6298702,2140,2880,7_S
1789468321.6320481,2119,2878,7_S
1789468321.633336,2096,2880,7_S
1789468321.635884,1970,2876,7_S
1789468321.638071,2098,2879,7_S
1789468321.642963,2125,2880,7_S
1789468321.643695,2036,2876,7_S
1789468321.64448,2066,2877,7_S
1789468321.647208,2125,2880,7_S
1789468321.6476328,2058,2879,7_S
1789468321.650311,2010,2878,7_S
1789468321.6534011,1981,2876,7_S
1789468321.653555,2061,2878,7_S
1789468321.656374,1993,2878,7_S
1789468321.657492,2154,2879,7_S
1789468321.659892,2110,2880,7_S
1789468321.665232,2102,2878,7_S
1789468321.665886,2205,2879,7_S
1789468321.666004,2220,2879,7_S
1789468321.667408,2294,2879,7_S
1789468321.670202,2030,2880,7_S
1789468321.671942,2024,2878,7_S
1789468321.674739,2040,2878,7_S
1789468321.676546,1937,2879,7_S
1789468321.677841,1975,2879,7_S
1789468321.679957,2019,2877,7_S
1789468321.682274,2121,2878,7_S
1789468321.68332,1993,2879,7_S
1789468321.685557,2017,2879,7_S
1789468321.6878772,2174,2880,7_S
1789468321.68917,2169,2880,7_S
1789468321.6917171,2051,2878,7_S
1789468321.6940758,2061,2878,7_S
1789468321.695204,2155,2881,7_S
1789468321.697522,2115,2879,7_S
1789468321.699837,2113,2879,7_S
1789468321.7011929,2070,2879,7_S
1789468321.703498,2035,2879,7_S
1789468321.7058089,2113,2880,7_S
1789468321.708108,2049,2877,7_S
1789468321.709226,2089,2878,7_S
1789468321.711772,2092,2877,7_S
1789468321.714317,2129,2881,7_S
1789468321.715605,2090,2880,7_S
1789468321.7179148,2029,2878,7_S
1789468321.752939,2069,2879,7_S
1789468321.753103,2098,2880,7_S
1789468321.75314,2107,2879,7_S
1789468321.753172,2019,2880,7_S
1789468321.753206,2030,2879,7_S
1789468321.7532349,2110,2880,7_S
1789468321.753265,2131,2880,7_S
1789468321.753403,2007,2878,7_S
1789468321.753508,2040,2879,7_S
1789468321.7535858,2048,2879,7_S
1789468321.753651,2168,2881,7_S
1789468321.7537222,2084,2877,7_S
1789468321.7537851,2069,2880,7_S
1789468321.753848,2082,2879,7_S
1789468321.7539258,2092,2880,7_S
1789468321.753972,2106,2879,7_S
1789468321.754007,2011,2877,7_S
1789468321.75404,2018,2878,7_S
1789468321.7686532,2109,2880,7_S
1789468321.76882,2171,2881,7_S
1789468321.768965,2005,2878,7_S
1789468321.7691362,1950,2878,7_S
1789468321.7693062,2232,2881,7_S
1789468321.769391,2252,2879,7_S
1789468321.769511,2056,2880,7_S
1789468321.769558,2145,2879,7_S
1789468321.772172,2149,2879,7_S
1789468321.773468,2162,2880,7_S
1789468321.776035,2087,2877,7_S
1789468321.778379,2032,2879,7_S
1789468321.779444,2110,2880,7_S
1789468321.781753,2077,2880,7_S
1789468321.7840729,1991,2878,7_S
1789468321.7851992,2015,2879,7_S
1789468321.787772,2068,2880,7_S
1789468321.789851,1934,2877,7_S
1789468321.792162,1826,2878,7_S
1789468321.79322,2193,2882,7_S
1789468321.795533,2473,2881,7_S
1789468321.798087,2222,2880,7_S
1789468321.799187,2003,2878,7_S
1789468321.8014872,1844,2877,7_S
1789468321.803828,2048,2879,7_S
1789468321.805894,2344,2880,7_S
1789468321.807169,2094,2878,7_S
1789468321.809481,2047,2877,7_S
1789468321.8118038,2010,2879,7_S
1789468321.814125,1866,2877,7_S
1789468321.8151941,1908,2876,7_S
1789468321.817515,2736,2880,7_S
1789468321.82006,2217,2880,7_S
1789468321.821267,2005,2876,7_S
1789468321.823821,2031,2877,7_S
1789468321.8261251,1935,2878,7_S
1789468321.827559,2092,2878,7_S
1789468321.831771,1872,2877,7_S
1789468321.83191,1615,2876,7_S
1789468321.834507,2461,2880,7_S
1789468321.836101,2718,2880,7_S
1789468321.838072,1841,2880,7_S
1789468321.8397381,2116,2880,7_S
1789468321.842738,2234,2879,7_S
1789468321.8447511,2255,2879,7_S
1789468321.8458009,2143,2879,7_S
1789468321.847208,2057,2878,7_S
1789468321.849673,1999,2880,7_S
1789468321.8553002,1703,2876,7_S
1789468321.855752,2256,2879,7_S
1789468321.8565068,2369,2879,7_S
1789468321.85934,2227,2879,7_S
1789468321.85977,1504,2877,7_S
1789468321.862559,2057,2879,7_S
1789468321.865355,2655,2881,7_S
1789468321.865524,2178,2880,7_S
1789468321.8674712,1837,2878,7_S
1789468321.869875,1963,2879,7_S
1789468321.8711839,2152,2879,7_S
1789468321.8734899,2130,2879,7_S
1789468321.876051,2160,2879,7_S
1789468321.8773482,2025,2878,7_S
1789468321.879898,1533,2879,7_S
1789468321.882208,2226,2881,7_S
1789468321.883499,2410,2880,7_S
1789468321.885798,2082,2879,7_S
1789468321.887969,2138,2879,7_S
1789468321.890269,1712,2877,7_S
1789468321.891558,1946,2878,7_S
1789468321.894103,2002,2878,7_S
1789468321.895144,2648,2882,7_S
1789468321.897443,2462,2880,7_S
1789468321.899748,2389,2880,7_S
1789468321.902268,1276,2875,7_S
1789468321.903574,1339,2877,7_S
1789468321.906084,2467,2881,7_S
1789468321.9074078,2607,2881,7_S
1789468321.909499,2029,2879,7_S
1789468321.911571,2188,2879,7_S
1789468321.9139059,2300,2880,7_S
1789468321.915213,2135,2879,7_S
1789468321.917561,1993,2876,7_S
1789468321.919879,2091,2879,7_S
1789468321.921175,1949,2877,7_S
1789468321.925986,2048,2878,7_S
1789468321.927406,1968,2877,7_S
1789468321.928292,1529,2877,7_S
1789468321.9305012,1568,2877,7_S
1789468321.932054,2652,2881,7_S
1789468321.9337559,2570,2880,7_S
1789468321.936053,2148,2878,7_S
1789468321.938796,1935,2876,7_S
1789468321.940852,1573,2877,7_S
1789468321.942154,2031,2879,7_S
1789468321.9432,2380,2880,7_S
1789468321.945709,2142,2880,7_S
1789468321.950909,2060,2880,7_S
1789468321.9514189,1469,2876,7_S
1789468321.952158,1249,2876,7_S
1789468321.9537349,2136,2881,7_S
1789468321.955599,2689,2881,7_S
1789468321.9587789,2812,2882,7_S
1789468321.961545,1589,2877,7_S
1789468321.961677,1633,2878,7_S
1789468321.963579,2132,2878,7_S
1789468321.9659069,2617,2882,7_S
1789468321.967974,2104,2880,7_S
1789468321.969268,2055,2880,7_S
1789468321.971358,1875,2877,7_S
1789468321.973923,1897,2877,7_S
1789468321.9752178,1971,2878,7_S
1789468321.977767,2083,2878,7_S
1789468321.9800682,1855,2878,7_S
1789468321.981363,2174,2879,7_S
1789468321.9839091,2296,2879,7_S
1789468321.9859798,1117,2876,7_S
1789468321.9872751,1749,2876,7_S
1789468321.989829,2918,2882,7_S
1789468321.9921448,2177,2881,7_S
1789468321.993441,537,2877,7_S
1789468321.9957602,1704,2877,7_S
1789468321.997874,3754,2885,7_S
1789468321.999178,2068,2878,7_S
1789468322.001566,1922,2879,7_S
1789468322.00388,1986,2878,7_S
1789468322.005182,1967,2878,7_S
1789468322.007251,2489,2881,7_S
1789468322.009381,1933,2877,7_S
1789468322.01161,1943,2877,7_S
1789468322.014164,1723,2878,7_S
1789468322.015296,1441,2877,7_S
1789468322.017737,1803,2877,7_S
1789468322.023573,2328,2880,7_S
1789468322.024096,1367,2876,7_S
1789468322.024204,2458,2881,7_S
1789468322.026338,2439,2880,7_S
1789468322.028299,2389,2880,7_S
1789468322.030533,1876,2878,7_S
1789468322.031908,1847,2877,7_S
1789468322.0347872,1958,2879,7_S
1789468322.036751,1927,2876,7_S
1789468322.038049,2028,2880,7_S
1789468322.0393422,1968,2879,7_S
1789468322.041898,1521,2877,7_S
1789468322.047374,2311,2880,7_S
1789468322.0478358,1483,2878,7_S
1789468322.048259,2069,2878,7_S
1789468322.049928,2064,2878,7_S
1789468322.051766,1701,2878,7_S
1789468322.0537431,2141,2880,7_S
1789468322.0551832,2153,2880,7_S
1789468322.05816,1567,2878,7_S
1789468322.060082,1463,2877,7_S
1789468322.0611331,2968,2882,7_S
1789468322.0634508,2126,2881,7_S
1789468322.065569,1735,2878,7_S
1789468322.067735,1257,2877,7_S
1789468322.069078,2097,2878,7_S
1789468322.071208,2597,2879,7_S
1789468322.0732749,1712,2876,7_S
1789468322.075335,2339,2880,7_S
1789468322.0775812,1897,2876,7_S
1789468322.080126,1564,2878,7_S
1789468322.0814269,1805,2877,7_S
1789468322.08398,2230,2881,7_S
1789468322.085275,2773,2881,7_S
1789468322.087327,2237,2880,7_S
1789468322.089391,1251,2876,7_S
1789468322.0917,1489,2877,7_S
1789468322.0939798,1924,2877,7_S
1789468322.095082,2021,2878,7_S
1789468322.097198,2224,2880,7_S
1789468322.0997472,1931,2877,7_S
1789468322.1010911,1803,2877,7_S
1789468322.103391,1979,2880,7_S
1789468322.105695,1749,2876,7_S
1789468322.1078022,2029,2878,7_S
1789468322.110113,1870,2877,7_S
1789468322.111156,2309,2881,7_S
1789468322.113276,1993,2877,7_S
1789468322.115818,2098,2878,7_S
1789468322.120779,2104,2879,7_S
1789468322.121242,1994,2880,7_S
1789468322.1216571,1893,2878,7_S
1789468322.124177,1951,2878,7_S
1789468322.125509,2000,2877,7_S
1789468322.130642,2176,2880,7_S
1789468322.130836,1956,2877,7_S
1789468322.132898,2101,2879,7_S
1789468322.134197,1996,2879,7_S
1789468322.135489,1860,2876,7_S
1789468322.137689,1977,2877,7_S
1789468322.1430452,2086,2877,7_S
1789468322.143486,1852,2878,7_S
1789468322.1442811,1922,2878,7_S
1789468322.145911,2135,2879,7_S
1789468322.1477299,1900,2877,7_S
1789468322.1497118,2022,2879,7_S
1789468322.153829,1966,2879,7_S
1789468322.1540601,1964,2878,7_S
1789468322.1560261,1960,2878,7_S
1789468322.15709,1805,2878,7_S
1789468322.1592,1889,2878,7_S
1789468322.161278,2235,2881,7_S
1789468322.163844,2283,2881,7_S
1789468322.1651149,1938,2878,7_S
1789468322.167666,1785,2877,7_S
1789468322.169738,2125,2880,7_S
1789468322.1719198,2234,2881,7_S
1789468322.1732101,2327,2880,7_S
1789468322.1755168,2083,2878,7_S
1789468322.178062,1894,2878,7_S
1789468322.179266,1988,2879,7_S
1789468322.181817,2310,2880,7_S
1789468322.184129,2248,2880,7_S
1789468322.185444,2081,2880,7_S
1789468322.187755,1836,2877,7_S
1789468322.189823,2197,2880,7_S
1789468322.19112,2182,2880,7_S
1789468322.193486,2287,2879,7_S
1789468322.195563,2321,2880,7_S
1789468322.197657,2052,2879,7_S
1789468322.199046,2515,2881,7_S
1789468322.2013922,2429,2880,7_S
1789468322.204006,2413,2880,7_S
1789468322.205316,2525,2881,7_S
1789468322.207602,2547,2880,7_S
1789468322.210072,1968,2878,7_S
1789468322.211313,2716,2881,7_S
1789468322.218174,2289,2879,7_S
1789468322.219019,2165,2880,7_S
1789468322.22089,2632,2880,7_S
1789468322.222616,2337,2880,7_S
1789468322.223042,2270,2880,7_S
1789468322.223524,2157,2880,7_S
1789468322.226699,2136,2880,7_S
1789468322.229784,1543,2879,7_S
1789468322.229882,2037,2879,7_S
1789468322.231988,1926,2876,7_S
1789468322.233294,1965,2879,7_S
1789468322.2356212,1927,2879,7_S
1789468322.237936,2263,2878,7_S
1789468322.2434409,2545,2880,7_S
1789468322.2438989,1951,2878,7_S
1789468322.243973,2164,2878,7_S
1789468322.24579,2480,2881,7_S
1789468322.2476292,2272,2881,7_S
1789468322.250907,2231,2880,7_S
1789468322.2538161,2110,2879,7_S
1789468322.253959,2095,2879,7_S
1789468322.255886,2000,2879,7_S
1789468322.25718,1966,2879,7_S
1789468322.259447,1854,2879,7_S
1789468322.261524,1532,2879,7_S
1789468322.263711,2746,2882,7_S
1789468322.2650712,2135,2880,7_S
1789468322.2676291,2182,2879,7_S
1789468322.269948,1860,2879,7_S
1789468322.271244,2173,2880,7_S
1789468322.2737951,2100,2877,7_S
1789468322.275101,1996,2879,7_S
1789468322.277405,2221,2879,7_S
1789468322.279953,2220,2880,7_S
1789468322.281247,1946,2876,7_S
1789468322.283801,1767,2876,7_S
1789468322.286098,1487,2876,7_S
1789468322.287391,2180,2878,7_S
1789468322.2899358,2416,2880,7_S
1789468322.29123,2303,2880,7_S
1789468322.293466,2110,2877,7_S
1789468322.296014,2158,2877,7_S
1789468322.297308,2281,2880,7_S
1789468322.299556,2191,2879,7_S
1789468322.3021069,2461,2880,7_S
1789468322.3033988,2354,2880,7_S
1789468322.30571,2278,2878,7_S
1789468322.3071082,2380,2880,7_S
1789468322.3094258,1949,2878,7_S
1789468322.316326,1767,2878,7_S
1789468322.316808,1947,2877,7_S
1789468322.3169558,1922,2879,7_S
1789468322.317714,1535,2877,7_S
1789468322.320693,1733,2876,7_S
1789468322.322328,1758,2876,7_S
1789468322.324084,2524,2881,7_S
1789468322.3273,2201,2880,7_S
1789468322.32748,2110,2878,7_S
1789468322.3300421,2307,2881,7_S
1789468322.331098,2623,2881,7_S
1789468322.3335779,2540,2881,7_S
1789468322.3400729,1652,2878,7_S
1789468322.3405042,1868,2879,7_S
1789468322.340899,2218,2880,7_S
1789468322.342186,1746,2877,7_S
1789468322.3438249,1963,2879,7_S
1789468322.345463,1459,2878,7_S
1789468322.3473752,2059,2878,7_S
1789468322.3504682,3002,2882,7_S
1789468322.3525,1063,2877,7_S
1789468322.3535612,1742,2877,7_S
1789468322.35611,2369,2881,7_S
1789468322.3574028,2615,2880,7_S
1789468322.359473,2058,2878,7_S
1789468322.362038,1846,2878,7_S
1789468322.363095,2215,2879,7_S
1789468322.3654,2329,2881,7_S
1789468322.367506,2296,2880,7_S
1789468322.3698921,2055,2880,7_S
1789468322.371181,2009,2880,7_S
1789468322.3737311,1745,2878,7_S
1789468322.37505,1336,2879,7_S
1789468322.3773582,1750,2877,7_S
1789468322.379662,2575,2880,7_S
1789468322.382221,1557,2877,7_S
1789468322.383512,1192,2876,7_S
1789468322.385826,2114,2879,7_S
1789468322.387115,2878,2881,7_S
1789468322.389418,2686,2881,7_S
1789468322.391724,1990,2879,7_S
1789468322.39308,2358,2881,7_S
1789468322.395626,1274,2878,7_S
1789468322.397932,1551,2880,7_S
1789468322.399067,2536,2881,7_S
1789468322.401388,3248,2884,7_S
1789468322.4035048,2180,2881,7_S
1789468322.406066,1279,2877,7_S
1789468322.407358,1690,2877,7_S
1789468322.4094348,2599,2882,7_S
1789468322.414069,2584,2881,7_S
1789468322.414101,1867,2877,7_S
1789468322.415591,2094,2879,7_S
1789468322.417709,2156,2879,7_S
1789468322.419242,1498,2878,7_S
1789468322.422591,2344,2881,7_S
1789468322.4258401,1840,2877,7_S
1789468322.425981,1915,2877,7_S
1789468322.428114,2341,2881,7_S
1789468322.429418,2230,2878,7_S
1789468322.4319701,2270,2881,7_S
1789468322.4332721,2197,2880,7_S
1789468322.438475,1980,2879,7_S
1789468322.4389088,1890,2877,7_S
1789468322.4393861,1559,2878,7_S
1789468322.4424589,2136,2880,7_S
1789468322.443994,2312,2881,7_S
1789468322.445942,2542,2881,7_S
1789468322.449333,1970,2877,7_S
1789468322.449465,2130,2879,7_S
1789468322.4513888,2130,2880,7_S
1789468322.4537191,2098,2878,7_S
1789468322.455791,2044,2879,7_S
1789468322.457084,2008,2879,7_S
1789468322.4594119,1983,2878,7_S
1789468322.461731,1812,2878,7_S
1789468322.4638069,1916,2878,7_S
1789468322.4661171,2002,2878,7_S
1789468322.467158,2693,2882,7_S
1789468322.469227,1252,2876,7_S
1789468322.4714959,1989,2877,7_S
1789468322.4740422,2622,2881,7_S
1789468322.475085,2284,2881,7_S
1789468322.47763,2141,2879,7_S
1789468322.479748,1800,2878,7_S
1789468322.482133,1808,2878,7_S
1789468322.483178,2118,2878,7_S
1789468322.485236,2995,2882,7_S
1789468322.487674,1977,2878,7_S
1789468322.489047,1956,2879,7_S
1789468322.4915998,2035,2878,7_S
1789468322.494147,2073,2878,7_S
1789468322.4954371,2216,2880,7_S
1789468322.497749,2147,2880,7_S
1789468322.499022,2089,2878,7_S
1789468322.5014908,2104,2880,7_S
1789468322.503798,2076,2879,7_S
1789468322.506101,1703,2877,7_S
1789468322.507392,1881,2878,7_S
1789468322.5143418,2293,2881,7_S
1789468322.514796,2141,2881,7_S
1789468322.515599,2122,2879,7_S
1789468322.516772,2290,2879,7_S
1789468322.518694,2104,2879,7_S
1789468322.520577,2094,2880,7_S
1789468322.521943,1757,2878,7_S
1789468322.525302,2333,2880,7_S
1789468322.52541,2422,2881,7_S
1789468322.527447,2075,2879,7_S
1789468322.530016,2005,2877,7_S
1789468322.531311,2249,2879,7_S
1789468322.537705,2191,2880,7_S
1789468322.538151,2131,2878,7_S
1789468322.53886,2071,2880,7_S
1789468322.540333,2191,2880,7_S
1789468322.542135,2110,2879,7_S
1789468322.54393,1533,2877,7_S
1789468322.5481138,2143,2880,7_S
1789468322.548311,2990,2883,7_S
1789468322.550144,2085,2879,7_S
1789468322.551441,1654,2876,7_S
1789468322.5539908,2166,2880,7_S
1789468322.55504,2236,2880,7_S
1789468322.55759,2168,2879,7_S
1789468322.560152,1794,2877,7_S
1789468322.5614452,2199,2881,7_S
1789468322.563759,1999,2879,7_S
1789468322.565818,2102,2881,7_S
1789468322.568117,1941,2879,7_S
1789468322.569225,2397,2880,7_S
1789468322.5712798,2023,2877,7_S
1789468322.573591,2261,2881,7_S
1789468322.575894,2151,2878,7_S
1789468322.577182,1651,2877,7_S
1789468322.5794828,1970,2879,7_S
1789468322.581811,2173,2880,7_S
1789468322.583873,2552,2880,7_S
1789468322.5859299,2013,2879,7_S
1789468322.5869792,2021,2879,7_S
1789468322.589041,2169,2880,7_S
1789468322.59134,2148,2878,7_S
1789468322.5938828,2097,2878,7_S
1789468322.595056,2063,2878,7_S
1789468322.597607,2046,2880,7_S
1789468322.5989618,1940,2879,7_S
1789468322.601511,1877,2878,7_S
1789468322.607701,1907,2877,7_S
1789468322.608823,2171,2881,7_S
1789468322.609173,1821,2879,7_S
1789468322.6092942,2072,2878,7_S
1789468322.612455,2258,2879,7_S
1789468322.615212,2219,2880,7_S
1789468322.6184351,2065,2880,7_S
1789468322.618606,1949,2879,7_S
1789468322.620606,1972,2879,7_S
1789468322.621904,2196,2881,7_S
1789468322.623198,2229,2881,7_S
1789468322.6252959,2129,2878,7_S
1789468322.6305861,1900,2880,7_S
1789468322.6310022,2136,2880,7_S
1789468322.631134,2145,2880,7_S
1789468322.633129,2105,2879,7_S
1789468322.636014,2053,2879,7_S
1789468322.641016,2045,2880,7_S
1789468322.641133,2217,2880,7_S
1789468322.641248,2090,2878,7_S
1789468322.643973,1750,2879,7_S
1789468322.645264,2460,2881,7_S
1789468322.6476061,2158,2879,7_S
1789468322.648937,1432,2877,7_S
1789468322.651021,1958,2877,7_S
1789468322.653333,2389,2880,7_S
1789468322.655638,2340,2881,7_S
1789468322.657811,2191,2880,7_S
1789468322.6590998,2132,2880,7_S
1789468322.6614022,2143,2878,7_S
1789468322.66363,2208,2880,7_S
1789468322.665934,2213,2880,7_S
1789468322.666983,2105,2880,7_S
1789468322.669282,2026,2879,7_S
1789468322.671825,2015,2880,7_S
1789468322.6729338,2036,2880,7_S
1789468322.6750028,1980,2878,7_S
1789468322.677547,2021,2878,7_S
1789468322.679845,2113,2879,7_S
1789468322.6811368,2217,2880,7_S
1789468322.683397,2197,2878,7_S
1789468322.6858208,2033,2880,7_S
1789468322.687119,1892,2877,7_S
1789468322.689431,2043,2877,7_S
1789468322.691732,2124,2881,7_S
1789468322.69296,2225,2881,7_S
1789468322.699782,1885,2878,7_S
1789468322.700479,2120,2881,7_S
1789468322.7005749,2348,2881,7_S
1789468322.702029,2131,2880,7_S
1789468322.704175,2087,2879,7_S
1789468322.7069728,2185,2880,7_S
1789468322.7071512,2090,2881,7_S
1789468322.710329,2012,2878,7_S
1789468322.712322,2149,2881,7_S
1789468322.713616,2162,2880,7_S
1789468322.714968,2173,2880,7_S
1789468322.7170749,1947,2877,7_S
1789468322.722614,2053,2879,7_S
1789468322.723319,2133,2880,7_S
1789468322.723712,2192,2880,7_S
1789468322.7263622,1995,2877,7_S
1789468322.7281642,2023,2878,7_S
1789468322.732546,2150,2879,7_S
1789468322.732689,2143,2880,7_S
1789468322.734538,2115,2880,7_S
1789468322.735845,2030,2881,7_S
1789468322.736963,2040,2880,7_S
1789468322.73927,2151,2879,7_S
1789468322.741591,2120,2881,7_S
1789468322.743924,2075,2878,7_S
1789468322.745217,2125,2882,7_S
1789468322.747763,2117,2880,7_S
1789468322.749876,2096,2879,7_S
1789468322.7509499,2019,2879,7_S
1789468322.753502,2099,2878,7_S
1789468322.7558742,2160,2879,7_S
1789468322.7571661,2098,2881,7_S
1789468322.7597098,2028,2878,7_S
1789468322.7619462,2033,2877,7_S
1789468322.7632399,2121,2880,7_S
1789468322.76579,2207,2879,7_S
1789468322.767854,2014,2881,7_S
1789468322.769147,1933,2877,7_S
1789468322.77146,2084,2880,7_S
1789468322.773514,2113,2880,7_S
1789468322.7760189,1955,2877,7_S
1789468322.777306,2114,2880,7_S
1789468322.779853,2187,2881,7_S
1789468322.781141,2266,2879,7_S
1789468322.783662,2134,2880,7_S
1789468322.7849522,2120,2880,7_S
1789468322.787497,2141,2880,7_S
1789468322.791809,2135,2880,7_S
1789468322.7919202,2045,2877,7_S
1789468322.79314,1976,2878,7_S
1789468322.79669,2024,2879,7_S
1789468322.7991629,2182,2880,7_S
1789468322.799276,2099,2878,7_S
1789468322.802551,2025,2878,7_S
1789468322.8041291,2030,2879,7_S
1789468322.805184,2096,2879,7_S
1789468322.807302,2060,2877,7_S
1789468322.8096159,2020,2879,7_S
1789468322.814019,2080,2878,7_S
1789468322.814383,1962,2877,7_S
1789468322.816382,2125,2879,7_S
1789468322.818274,2270,2879,7_S
1789468322.8200471,2085,2878,7_S
1789468322.824425,2122,2879,7_S
1789468322.824598,2085,2878,7_S
1789468322.826571,2027,2878,7_S
1789468322.827619,2031,2879,7_S
1789468322.82993,2119,2881,7_S
1789468322.830979,2028,2878,7_S
1789468322.833303,2014,2877,7_S
1789468322.835614,1925,2878,7_S
1789468322.8379252,1985,2879,7_S
1789468322.839118,2155,2880,7_S
1789468322.8411798,2438,2881,7_S
1789468322.84366,2175,2880,7_S
1789468322.8457532,1945,2878,7_S
1789468322.847818,1900,2879,7_S
1789468322.8489542,2082,2880,7_S
1789468322.851254,2244,2879,7_S
1789468322.853555,2140,2880,7_S
1789468322.855872,2126,2879,7_S
1789468322.856938,2004,2877,7_S
1789468322.8592372,1724,2878,7_S
1789468322.861535,1742,2878,7_S
1789468322.863702,2257,2880,7_S
1789468322.865037,2212,2880,7_S
1789468322.867339,2068,2879,7_S
1789468322.869694,2019,2878,7_S
1789468322.870944,1981,2879,7_S
1789468322.873256,2087,2882,7_S
1789468322.8755698,2064,2878,7_S
1789468322.87812,2128,2879,7_S
1789468322.883341,2155,2878,7_S
1789468322.883774,2338,2881,7_S
1789468322.884172,2142,2879,7_S
1789468322.885578,1933,2879,7_S
1789468322.887347,1804,2876,7_S
1789468322.888978,1896,2878,7_S
1789468322.893513,2217,2881,7_S
1789468322.8936079,2136,2879,7_S
1789468322.8955,2089,2877,7_S
1789468322.898057,1829,2877,7_S
1789468322.899355,1741,2877,7_S
1789468322.901533,2094,2879,7_S
1789468322.9055512,2272,2879,7_S
1789468322.9059148,2144,2879,7_S
1789468322.907582,1802,2877,7_S
1789468322.909913,2297,2881,7_S
1789468322.9122581,2137,2878,7_S
1789468322.915433,2004,2879,7_S
1789468322.915518,2115,2881,7_S
1789468322.917411,1974,2876,7_S
1789468322.919966,2126,2880,7_S
1789468322.9210272,1990,2879,7_S
1789468322.923578,2079,2880,7_S
1789468322.925906,2125,2879,7_S
1789468322.9272,1995,2877,7_S
1789468322.929745,1963,2880,7_S
1789468322.93205,1951,2878,7_S
1789468322.9332201,2251,2881,7_S
1789468322.935767,1945,2878,7_S
1789468322.938091,1871,2877,7_S
1789468322.9391448,2047,2879,7_S
1789468322.941688,2343,2880,7_S
1789468322.9439921,2190,2880,7_S
1789468322.945279,2250,2879,7_S
1789468322.9478269,2122,2880,7_S
1789468322.948951,2296,2881,7_S
1789468322.9510221,2024,2878,7_S
1789468322.9535658,1940,2877,7_S
1789468322.9549272,2327,2879,7_S
1789468322.9571462,2120,2879,7_S
1789468322.959695,1964,2876,7_S
1789468322.960984,2030,2878,7_S
1789468322.963294,2183,2881,7_S
1789468322.965847,2205,2879,7_S
1789468322.967136,2107,2879,7_S
1789468322.969449,2135,2879,7_S
1789468322.970865,2002,2877,7_S
1789468322.974717,1869,2878,7_S
1789468322.97705,1954,2878,7_S
1789468322.977216,2027,2878,7_S
1789468322.980105,2155,2878,7_S
1789468322.9819572,1989,2876,7_S
1789468322.984965,2184,2880,7_S
1789468322.985101,2129,2880,7_S
1789468322.9878411,2182,2880,7_S
1789468322.988893,2059,2879,7_S
1789468322.991447,2088,2877,7_S
1789468322.9964318,2113,2879,7_S
1789468322.9971719,1990,2878,7_S
1789468322.997886,2081,2880,7_S
1789468322.999084,2216,2879,7_S
1789468323.0024378,2192,2879,7_S
1789468323.003795,2140,2879,7_S
1789468323.006704,2241,2880,7_S
1789468323.008317,2102,2881,7_S
1789468323.009372,1981,2879,7_S
1789468323.01192,1969,2879,7_S
1789468323.0130298,2255,2881,7_S
1789468323.015195,2306,2879,7_S
1789468323.017594,1972,2879,7_S
1789468323.019735,2019,2879,7_S
1789468323.021031,2009,2879,7_S
1789468323.023338,2064,2878,7_S
1789468323.0256388,2023,2878,7_S
1789468323.0277,1976,2878,7_S
1789468323.028987,1983,2877,7_S
1789468323.03153,2085,2879,7_S
1789468323.033586,2108,2879,7_S
1789468323.034873,1946,2878,7_S
1789468323.037189,2112,2879,7_S
1789468323.039736,2051,2880,7_S
1789468323.041018,1964,2878,7_S
1789468323.043564,2178,2880,7_S
1789468323.044854,2168,2881,7_S
1789468323.0473979,1986,2877,7_S
1789468323.04986,2236,2880,7_S
1789468323.051152,2191,2878,7_S
1789468323.053697,2051,2879,7_S
1789468323.054987,1995,2877,7_S
1789468323.0572858,2196,2880,7_S
1789468323.059584,2134,2879,7_S
1789468323.0608718,2178,2881,7_S
1789468323.0655308,2144,2880,7_S
1789468323.066302,2072,2880,7_S
1789468323.067887,2017,2879,7_S
1789468323.069612,1898,2877,7_S
1789468323.071585,2007,2878,7_S
1789468323.072895,2039,2878,7_S
1789468323.075726,1936,2878,7_S
1789468323.0776498,2079,2877,7_S
1789468323.078946,2216,2880,7_S
1789468323.081496,2119,2880,7_S
1789468323.082839,2089,2878,7_S
1789468323.08703,1946,2877,7_S
1789468323.087689,2054,2880,7_S
1789468323.089429,2330,2880,7_S
1789468323.09165,2297,2880,7_S
1789468323.0939798,1893,2878,7_S
1789468323.096676,1999,2878,7_S
1789468323.0982559,2073,2880,7_S
1789468323.0993059,2225,2880,7_S
1789468323.101759,2029,2880,7_S
1789468323.102823,1864,2878,7_S
1789468323.105131,1996,2878,7_S
1789468323.1074681,2012,2879,7_S
1789468323.109901,2075,2878,7_S
1789468323.111191,2131,2881,7_S
1789468323.113747,2107,2880,7_S
1789468323.115037,2115,2879,7_S
1789468323.117337,2031,2880,7_S
1789468323.1194491,2076,2880,7_S
1789468323.121761,2057,2878,7_S
1789468323.123057,2189,2881,7_S
1789468323.125362,2109,2877,7_S
1789468323.127907,2002,2878,7_S
1789468323.129194,2095,2880,7_S
1789468323.1316311,2074,2879,7_S
1789468323.132919,1980,2876,7_S
1789468323.135224,2060,2880,7_S
1789468323.1374831,2258,2879,7_S
1789468323.138837,2151,2880,7_S
1789468323.1409101,2091,2880,7_S
1789468323.1434612,2037,2877,7_S
1789468323.144832,2075,2878,7_S
1789468323.147379,2114,2881,7_S
1789468323.149514,2136,2879,7_S
1789468323.150856,2038,2879,7_S
1789468323.156003,1940,2877,7_S
1789468323.1563818,2044,2880,7_S
1789468323.158325,2127,2880,7_S
1789468323.16077,2081,2879,7_S
1789468323.161452,1998,2878,7_S
1789468323.1632729,2185,2880,7_S
1789468323.1661708,2142,2880,7_S
1789468323.168061,2083,2879,7_S
1789468323.169357,2046,2880,7_S
1789468323.171909,2092,2880,7_S
1789468323.1731,2092,2881,7_S
1789468323.177543,1918,2878,7_S
1789468323.1782029,2014,2879,7_S
1789468323.179845,2199,2881,7_S
1789468323.181282,2072,2880,7_S
1789468323.1844711,2101,2880,7_S
1789468323.18711,2140,2881,7_S
1789468323.187347,1967,2877,7_S
1789468323.189176,2031,2879,7_S
1789468323.1912389,2389,2880,7_S
1789468323.1937861,2084,2878,7_S
1789468323.1950772,2025,2879,7_S
1789468323.19717,2115,2880,7_S
1789468323.199486,2057,2879,7_S
1789468323.201791,1929,2878,7_S
1789468323.202837,1971,2877,7_S
1789468323.205133,2097,2881,7_S
1789468323.2076778,2123,2880,7_S
1789468323.208858,2154,2881,7_S
1789468323.2114072,1877,2878,7_S
1789468323.213964,2289,2880,7_S
1789468323.215255,2304,2880,7_S
1789468323.2178,2072,2880,7_S
1789468323.2190888,2043,2880,7_S
1789468323.221635,1984,2877,7_S
1789468323.223947,2191,2880,7_S
1789468323.225235,2066,2878,7_S
1789468323.227516,2018,2878,7_S
1789468323.228874,1933,2877,7_S
1789468323.231432,2118,2879,7_S
1789468323.232851,2168,2878,7_S
1789468323.2351549,2132,2880,7_S
1789468323.237699,1972,2877,7_S
1789468323.238809,2102,2881,7_S
1789468323.241121,2048,2879,7_S
1789468323.2465768,1887,2877,7_S
1789468323.246975,2130,2879,7_S
1789468323.247374,2196,2881,7_S
1789468323.2493272,2040,2880,7_S
1789468323.25246,2061,2879,7_S
1789468323.2540889,2062,2878,7_S
1789468323.2567859,2110,2880,7_S
1789468323.257121,2196,2880,7_S
1789468323.259567,2096,2877,7_S
1789468323.260861,2008,2878,7_S
1789468323.2631612,2023,2877,7_S
1789468323.268571,2158,2879,7_S
1789468323.269269,2121,2877,7_S
1789468323.269706,2102,2878,7_S
1789468323.2711942,2039,2879,7_S
1789468323.274218,2108,2878,7_S
1789468323.275661,2171,2880,7_S
1789468323.2782998,2171,2880,7_S
1789468323.279867,2083,2881,7_S
1789468323.281166,2044,2880,7_S
1789468323.2837162,2128,2879,7_S
1789468323.284839,2075,2879,7_S
1789468323.287393,2059,2879,7_S
1789468323.28972,2119,2880,7_S
1789468323.290835,2093,2878,7_S
1789468323.293324,2016,2878,7_S
1789468323.295636,2039,2877,7_S
1789468323.2969248,2072,2880,7_S
1789468323.299281,2099,2879,7_S
1789468323.3015838,2014,2879,7_S
1789468323.303884,2021,2880,7_S
1789468323.305173,2078,2880,7_S
1789468323.307478,2108,2880,7_S
1789468323.3097758,2023,2879,7_S
1789468323.3108501,2060,2879,7_S
1789468323.313395,2059,2878,7_S
1789468323.3159418,2044,2881,7_S
1789468323.316999,2098,2879,7_S
1789468323.31906,2131,2879,7_S
1789468323.321358,1926,2878,7_S
1789468323.323427,2105,2880,7_S
1789468323.325738,2156,2879,7_S
1789468323.3270268,1771,2877,7_S
1789468323.32933,2493,2880,7_S
1789468323.3314009,2369,2880,7_S
1789468323.337445,2089,2880,7_S
1789468323.337575,2014,2878,7_S
1789468323.338377,1946,2876,7_S
1789468323.340148,1684,2878,7_S
1789468323.341867,1714,2877,7_S
1789468323.343395,1763,2878,7_S
1789468323.344911,3303,2884,7_S
1789468323.3475251,2732,2882,7_S
1789468323.3491058,1263,2875,7_S
1789468323.351659,1948,2877,7_S
1789468323.352949,2352,2881,7_S
1789468323.35873,1678,2878,7_S
1789468323.359424,2461,2880,7_S
1789468323.359872,2651,2880,7_S
1789468323.361281,2226,2880,7_S
1789468323.36308,1708,2877,7_S
1789468323.3660648,1782,2877,7_S
1789468323.368625,2188,2881,7_S
1789468323.3705359,2370,2881,7_S
1789468323.371594,2332,2881,7_S
1789468323.37289,2094,2878,7_S
1789468323.3752651,2056,2878,7_S
1789468323.377818,2064,2880,7_S
1789468323.379058,1858,2877,7_S
1789468323.3816168,1827,2877,7_S
1789468323.38291,1650,2877,7_S
1789468323.385129,2004,2878,7_S
1789468323.387655,2703,2881,7_S
1789468323.3898501,2335,2880,7_S
1789468323.3908968,1768,2876,7_S
1789468323.393439,1949,2878,7_S
1789468323.394793,1735,2878,7_S
1789468323.397103,1783,2878,7_S
1789468323.399401,2111,2881,7_S
1789468323.4007869,2855,2881,7_S
1789468323.402851,2244,2879,7_S
1789468323.405397,1852,2877,7_S
1789468323.407941,2231,2881,7_S
1789468323.409229,1919,2878,7_S
1789468323.411776,1890,2878,7_S
1789468323.413067,2526,2880,7_S
1789468323.415516,2003,2878,7_S
1789468323.4178162,1839,2877,7_S
1789468323.418859,2011,2879,7_S
1789468323.421161,2055,2879,7_S
1789468323.423579,2021,2877,7_S
1789468323.4285922,2229,2880,7_S
1789468323.429315,2203,2880,7_S
1789468323.429759,1915,2877,7_S
1789468323.43122,2043,2879,7_S
1789468323.433493,2356,2880,7_S
1789468323.4358861,2084,2880,7_S
1789468323.4384809,1820,2877,7_S
1789468323.4399831,1939,2877,7_S
1789468323.441278,2379,2881,7_S
1789468323.443598,2135,2881,7_S
1789468323.44489,2001,2878,7_S
1789468323.450484,1897,2878,7_S
1789468323.451287,2084,2880,7_S
1789468323.451702,2136,2880,7_S
1789468323.4529579,2014,2880,7_S
1789468323.4560351,1690,2877,7_S
1789468323.457607,1763,2878,7_S
1789468323.4600372,2348,2881,7_S
1789468323.4615622,2366,2880,7_S
1789468323.463727,2153,2880,7_S
1789468323.465017,2103,2879,7_S
1789468323.467564,2257,2880,7_S
1789468323.4688609,2087,2879,7_S
1789468323.471183,2248,2881,7_S
1789468323.4737349,2000,2877,7_S
1789468323.474779,1520,2878,7_S
1789468323.477084,2227,2880,7_S
1789468323.4793952,2525,2880,7_S
1789468323.481696,1407,2877,7_S
1789468323.48292,1636,2876,7_S
1789468323.48547,2786,2881,7_S
1789468323.487544,2058,2879,7_S
1789468323.4888341,1826,2877,7_S
1789468323.491138,1807,2877,7_S
1789468323.4936829,2094,2878,7_S
1789468323.4949708,1968,2879,7_S
1789468323.497279,2244,2880,7_S
1789468323.4994528,2199,2880,7_S
1789468323.5017622,1801,2878,7_S
1789468323.502809,1439,2877,7_S
1789468323.50536,2513,2881,7_S
1789468323.506716,2091,2878,7_S
1789468323.5092638,2235,2881,7_S
1789468323.51157,2273,2880,7_S
1789468323.512722,1867,2877,7_S
1789468323.515111,1928,2877,7_S
1789468323.51942,1486,2877,7_S
1789468323.519851,2356,2880,7_S
1789468323.5218391,3007,2882,7_S
1789468323.523621,1339,2876,7_S
1789468323.525551,1738,2878,7_S
1789468323.529378,2142,2879,7_S
1789468323.5295548,1669,2878,7_S
1789468323.531654,2567,2881,7_S
1789468323.532707,2074,2879,7_S
1789468323.535009,1782,2877,7_S
1789468323.540954,1950,2877,7_S
1789468323.541058,2186,2881,7_S
1789468323.54114,2095,2880,7_S
1789468323.5450408,1625,2878,7_S
1789468323.5455732,2012,2877,7_S
1789468323.547659,2442,2881,7_S
1789468323.551732,2000,2879,7_S
1789468323.551876,1607,2876,7_S
1789468323.553942,2266,2880,7_S
1789468323.555248,2181,2880,7_S
1789468323.557455,1833,2876,7_S
1789468323.5596852,1695,2878,7_S
1789468323.5609941,2212,2881,7_S
1789468323.5632691,2300,2880,7_S
1789468323.565516,2029,2880,7_S
1789468323.5668218,1364,2876,7_S
1789468323.568939,2281,2881,7_S
1789468323.571567,1919,2879,7_S
1789468323.572819,2102,2880,7_S
1789468323.575283,1996,2878,7_S
1789468323.5775008,1571,2878,7_S
1789468323.578871,1844,2878,7_S
1789468323.581523,2620,2880,7_S
1789468323.582936,2239,2881,7_S
1789468323.5852108,1435,2877,7_S
1789468323.587723,1887,2878,7_S
1789468323.5890298,2519,2881,7_S
1789468323.591161,1682,2877,7_S
1789468323.593363,1724,2877,7_S
1789468323.5957482,2175,2880,7_S
1789468323.596884,1942,2877,7_S
1789468323.5992188,2269,2880,7_S
1789468323.6014972,1948,2879,7_S
1789468323.6037881,811,2876,7_S
1789468323.605047,1625,2876,7_S
1789468323.6073978,2751,2882,7_S
1789468323.608681,2491,2881,7_S
1789468323.610962,1320,2877,7_S
1789468323.620961,1036,2877,7_S
1789468323.623154,2533,2880,7_S
1789468323.6238348,2578,2881,7_S
1789468323.626919,2248,2879,7_S
1789468323.631828,2290,2880,7_S
1789468323.632355,2399,2881,7_S
1789468323.63259,1249,2877,7_S
1789468323.632858,1636,2877,7_S
1789468323.634578,2162,2878,7_S
1789468323.635278,1998,2877,7_S
1789468323.635471,1851,2879,7_S
1789468323.6355898,1365,2877,7_S
1789468323.636919,840,2876,7_S
1789468323.6394281,2584,2880,7_S
1789468323.641803,2345,2880,7_S
1789468323.6487832,2063,2878,7_S
1789468323.650451,1667,2879,7_S
1789468323.652182,2150,2881,7_S
1789468323.654745,2254,2881,7_S
1789468323.655822,1035,2877,7_S
1789468323.65676,2415,2880,7_S
1789468323.656937,2254,2880,7_S
1789468323.6588721,1675,2877,7_S
1789468323.662175,2143,2881,7_S
1789468323.66238,1762,2878,7_S
1789468323.664188,2129,2878,7_S
1789468323.6653461,1725,2878,7_S
1789468323.667716,1811,2877,7_S
1789468323.66903,1732,2877,7_S
1789468323.6712809,1775,2877,7_S
1789468323.6735098,3576,2884,7_S
1789468323.674691,1990,2879,7_S
1789468323.677088,1256,2878,7_S
1789468323.679342,2216,2878,7_S
1789468323.680855,2305,2879,7_S
1789468323.68316,2172,2878,7_S
1789468323.685598,1759,2877,7_S
1789468323.6867251,1697,2877,7_S
1789468323.6894689,1699,2876,7_S
1789468323.6907039,1456,2877,7_S
1789468323.692781,2091,2879,7_S
1789468323.69535,1955,2876,7_S
1789468323.69767,2271,2881,7_S
1789468323.698726,2057,2878,7_S
1789468323.700804,1934,2878,7_S
1789468323.703105,2568,2881,7_S
1789468323.7054138,2033,2878,7_S
1789468323.7067058,1744,2876,7_S
1789468323.7092311,1836,2877,7_S
1789468323.711288,1742,2878,7_S
1789468323.7136,1946,2878,7_S
1789468323.714693,2031,2877,7_S
1789468323.717258,2115,2879,7_S
1789468323.719329,1891,2876,7_S
1789468323.721519,1935,2877,7_S
1789468323.7228239,2019,2879,7_S
1789468323.7290182,2059,2880,7_S
1789468323.729165,2012,2877,7_S
1789468323.7302139,2332,2880,7_S
1789468323.73245,2231,2880,7_S
1789468323.7342541,2267,2881,7_S
1789468323.735523,2162,2880,7_S
1789468323.736862,2064,2878,7_S
1789468323.7416441,1992,2877,7_S
1789468323.7418282,2017,2878,7_S
1789468323.744286,2369,2881,7_S
1789468323.745625,1795,2876,7_S
1789468323.746727,1764,2876,7_S
1789468323.749231,2093,2879,7_S
1789468323.751936,2599,2881,7_S
1789468323.756651,2000,2880,7_S
1789468323.757534,2127,2879,7_S
1789468323.758112,2014,2878,7_S
1789468323.759719,2230,2880,7_S
1789468323.761954,2208,2881,7_S
1789468323.7642229,2154,2880,7_S
1789468323.765653,1894,2877,7_S
1789468323.7689521,1632,2877,7_S
1789468323.769116,1978,2877,7_S
1789468323.771463,2101,2880,7_S
1789468323.773786,2038,2879,7_S
1789468323.775084,2193,2881,7_S
1789468323.777405,2283,2880,7_S
1789468323.7797718,2352,2881,7_S
1789468323.7810829,2307,2880,7_S
1789468323.783402,2494,2880,7_S
1789468323.784739,2362,2881,7_S
1789468323.7867992,2119,2880,7_S
1789468323.788865,2139,2880,7_S
1789468323.791142,1879,2876,7_S
1789468323.793474,1497,2878,7_S
1789468323.795722,2364,2881,7_S
1789468323.796996,2455,2880,7_S
1789468323.799405,2284,2879,7_S
1789468323.800725,2579,2881,7_S
1789468323.803288,2136,2879,7_S
1789468323.80564,2703,2881,7_S
1789468323.806724,2488,2881,7_S
1789468323.8092952,2345,2881,7_S
1789468323.8116648,2386,2881,7_S
1789468323.8130171,2469,2880,7_S
1789468323.81559,2508,2880,7_S
1789468323.816691,1936,2879,7_S
1789468323.81903,2205,2880,7_S
1789468323.821594,2376,2880,7_S
1789468323.822776,2641,2882,7_S
1789468323.8253498,2458,2879,7_S
1789468323.827918,2048,2877,7_S
1789468323.8290381,1647,2878,7_S
1789468323.831157,1659,2877,7_S
1789468323.838054,2411,2880,7_S
1789468323.839211,2824,2881,7_S
1789468323.839763,2657,2880,7_S
1789468323.8412201,2087,2880,7_S
1789468323.841402,2861,2882,7_S
1789468323.8433542,2763,2881,7_S
1789468323.8449652,2641,2881,7_S
1789468323.847481,2934,2882,7_S
1789468323.851264,2811,2882,7_S
1789468323.851435,2039,2880,7_S
1789468323.85367,1731,2877,7_S
1789468323.85499,1978,2878,7_S
1789468323.8573089,2694,2881,7_S
1789468323.858706,2485,2880,7_S
1789468323.8654878,1961,2878,7_S
1789468323.866048,2046,2878,7_S
1789468323.8670778,2609,2881,7_S
1789468323.868407,2503,2881,7_S
1789468323.8712971,2256,2880,7_S
1789468323.872587,2124,2880,7_S
1789468323.8787048,2073,2879,7_S
1789468323.878844,1815,2878,7_S
1789468323.879013,1769,2879,7_S
1789468323.879183,2361,2880,7_S
1789468323.8811688,2614,2881,7_S
1789468323.883502,1703,2876,7_S
1789468323.8848069,1840,2876,7_S
1789468323.8871748,2597,2881,7_S
1789468323.8894951,2421,2880,7_S
1789468323.8915882,2572,2881,7_S
1789468323.892713,2038,2877,7_S
1789468323.895276,2021,2877,7_S
1789468323.897849,2261,2880,7_S
1789468323.899154,2419,2881,7_S
1789468323.9012392,2027,2879,7_S
1789468323.903758,1758,2876,7_S
1789468323.904834,1865,2877,7_S
1789468323.907219,1550,2878,7_S
1789468323.9093928,1698,2878,7_S
1789468323.911764,2130,2877,7_S
1789468323.912967,2578,2880,7_S
1789468323.9152892,2348,2880,7_S
1789468323.9173691,2357,2880,7_S
1789468323.919688,2156,2879,7_S
1789468323.920746,1674,2878,7_S
1789468323.923197,1740,2878,7_S
1789468323.92527,1967,2878,7_S
1789468323.927701,1715,2878,7_S
1789468323.928998,1155,2877,7_S
1789468323.9315488,1843,2876,7_S
1789468323.932841,1049,2877,7_S
1789468323.935153,1639,2877,7_S
1789468323.937418,3131,2882,7_S
1789468323.938714,3248,2883,7_S
1789468323.941013,2765,2881,7_S
1789468323.943372,2217,2880,7_S
1789468323.9446661,894,2878,7_S
1789468323.949784,1431,2878,7_S
1789468323.949837,3114,2883,7_S
1789468323.95259,1996,2880,7_S
1789468323.952825,0,2875,7_S
1789468323.955722,720,2877,7_S
1789468323.9583879,3198,2883,7_S
1789468323.962079,3306,2884,7_S
1789468323.962292,2010,2880,7_S
1789468323.9643059,1771,2879,7_S
1789468323.965615,2161,2878,7_S
1789468323.9668832,1635,2878,7_S
1789468323.969213,1436,2877,7_S
1789468323.975716,1780,2877,7_S
1789468323.976208,1994,2879,7_S
1789468323.976647,290,2875,7_S
1789468323.978693,2023,2879,7_S
1789468323.978851,3521,2884,7_S
1789468323.981696,2594,2881,7_S
1789468323.9840808,2294,2881,7_S
1789468323.987664,1212,2878,7_S
1789468323.9878788,2091,2879,7_S
1789468323.9900649,2644,2881,7_S
1789468323.991374,2084,2879,7_S
1789468323.9936829,1255,2876,7_S
1789468323.994737,1285,2877,7_S
1789468323.997061,1978,2880,7_S
1789468323.999628,2361,2880,7_S
1789468324.000926,2084,2878,7_S
1789468324.003477,2262,2880,7_S
1789468324.0047731,1742,2878,7_S
1789468324.007078,1894,2878,7_S
1789468324.0096269,1838,2879,7_S
1789468324.010684,1747,2877,7_S
1789468324.012991,1869,2877,7_S
1789468324.015539,2007,2880,7_S
1789468324.01683,2115,2879,7_S
1789468324.019138,1703,2878,7_S
1789468324.021445,1290,2878,7_S
1789468324.0237598,3042,2882,7_S
1789468324.024833,2594,2880,7_S
1789468324.027135,1378,2876,7_S
1789468324.029451,2538,2882,7_S
1789468324.0317261,1740,2877,7_S
1789468324.0330172,1928,2878,7_S
1789468324.035328,2854,2881,7_S
1789468324.037399,1983,2878,7_S
1789468324.03869,1119,2878,7_S
1789468324.0412428,2214,2880,7_S
1789468324.043793,2745,2880,7_S
1789468324.045084,2068,2880,7_S
1789468324.0473979,1840,2877,7_S
1789468324.0486982,2166,2881,7_S
1789468324.053629,2269,2880,7_S
1789468324.0541608,2339,2880,7_S
1789468324.0563169,2205,2880,7_S
1789468324.058372,2059,2877,7_S
1789468324.059832,1800,2878,7_S
1789468324.0618129,1808,2878,7_S
1789468324.06566,1557,2877,7_S
1789468324.065802,1859,2877,7_S
1789468324.0681012,2057,2880,7_S
1789468324.0691462,2100,2880,7_S
1789468324.071219,2201,2880,7_S
1789468324.07377,2138,2881,7_S
1789468324.0789602,1635,2878,7_S
1789468324.079419,2696,2881,7_S
1789468324.079872,1659,2878,7_S
1789468324.0816588,2364,2881,7_S
1789468324.083297,2782,2881,7_S
1789468324.0869088,1184,2876,7_S
1789468324.0870788,2436,2879,7_S
1789468324.09088,2270,2880,7_S
1789468324.091016,1784,2877,7_S
1789468324.093163,2003,2877,7_S
1789468324.0957172,1617,2877,7_S
1789468324.09678,2397,2881,7_S
1789468324.099275,2277,2880,7_S
1789468324.1016,2263,2879,7_S
1789468324.1029,2157,2879,7_S
1789468324.1052082,1957,2877,7_S
1789468324.1077602,2417,2881,7_S
1789468324.109055,2207,2879,7_S
1789468324.11151,2152,2881,7_S
1789468324.112803,2011,2878,7_S
1789468324.1153522,2086,2879,7_S
1789468324.116645,2061,2879,7_S
1789468324.118953,1975,2880,7_S
1789468324.1215029,2141,2879,7_S
1789468324.1227992,2303,2880,7_S
1789468324.125042,2149,2880,7_S
1789468324.127352,1963,2879,7_S
1789468324.129664,2005,2877,7_S
1789468324.130929,2143,2879,7_S
1789468324.132999,2070,2880,7_S
1789468324.135301,2072,2879,7_S
1789468324.137872,2052,2880,7_S
1789468324.1389241,2095,2879,7_S
1789468324.141226,2194,2880,7_S
1789468324.143536,1955,2878,7_S
1789468324.145626,1613,2879,7_S
1789468324.14692,2449,2881,7_S
1789468324.149089,2468,2881,7_S
1789468324.156551,2081,2878,7_S
1789468324.156964,2169,2880,7_S
1789468324.157435,2100,2878,7_S
1789468324.158714,1554,2878,7_S
1789468324.158873,2203,2878,7_S
1789468324.161737,1947,2878,7_S
1789468324.164156,2264,2880,7_S
1789468324.168177,2341,2880,7_S
1789468324.1683068,2033,2878,7_S
1789468324.170419,2044,2880,7_S
1789468324.171718,2104,2880,7_S
1789468324.172766,2025,2878,7_S
1789468324.174839,2281,2879,7_S
1789468324.180906,1685,2879,7_S
1789468324.181369,2787,2881,7_S
1789468324.182234,2267,2880,7_S
1789468324.183682,1959,2878,7_S
1789468324.185181,1678,2875,7_S
1789468324.1886232,2110,2880,7_S
1789468324.1923509,2265,2880,7_S
1789468324.192508,2391,2881,7_S
1789468324.194481,2008,2878,7_S
1789468324.1957839,1917,2878,7_S
1789468324.1970801,2121,2880,7_S
1789468324.199147,1825,2877,7_S
1789468324.201456,1672,2877,7_S
1789468324.2026172,2713,2881,7_S
1789468324.20518,2016,2879,7_S
1789468324.2077389,1684,2877,7_S
1789468324.208916,2157,2878,7_S
1789468324.211463,2612,2881,7_S
1789468324.212588,2127,2881,7_S
1789468324.21489,2142,2880,7_S
1789468324.217442,2101,2880,7_S
1789468324.2187479,2078,2880,7_S
1789468324.220928,2088,2880,7_S
1789468324.223474,2276,2880,7_S
1789468324.2247648,2078,2878,7_S
1789468324.2269912,1884,2878,7_S
1789468324.229538,1589,2878,7_S
1789468324.230827,2213,2879,7_S
1789468324.233376,2195,2879,7_S
1789468324.2356899,1903,2878,7_S
1789468324.2369852,1777,2876,7_S
1789468324.2395341,1858,2879,7_S
1789468324.240824,2894,2882,7_S
1789468324.2428968,2243,2881,7_S
1789468324.2452102,1997,2877,7_S
1789468324.247531,2033,2878,7_S
1789468324.248823,2278,2881,7_S
1789468324.2545311,1973,2877,7_S
1789468324.255285,1745,2877,7_S
1789468324.255699,2027,2876,7_S
1789468324.2572548,2601,2880,7_S
1789468324.258802,2052,2880,7_S
1789468324.262121,1957,2877,7_S
1789468324.266009,2053,2879,7_S
1789468324.266259,2249,2881,7_S
1789468324.268204,2313,2879,7_S
1789468324.269509,2088,2879,7_S
1789468324.270807,1912,2878,7_S
1789468324.272892,2064,2879,7_S
1789468324.2791622,1983,2879,7_S
1789468324.2796311,2030,2878,7_S
1789468324.279713,2204,2880,7_S
1789468324.292202,2143,2879,7_S
1789468324.292578,2208,2880,7_S
1789468324.292618,2077,2880,7_S
1789468324.29265,2139,2879,7_S
1789468324.292681,2168,2881,7_S
1789468324.292764,2189,2881,7_S
1789468324.2927969,2031,2878,7_S
1789468324.29537,2031,2878,7_S
1789468324.2967901,2115,2880,7_S
1789468324.2993689,2116,2879,7_S
1789468324.3006852,2091,2880,7_S
1789468324.30446,2117,2880,7_S
1789468324.3056378,2022,2877,7_S
1789468324.30669,2296,2880,7_S
1789468324.3090088,2264,2881,7_S
1789468324.311145,2046,2877,7_S
1789468324.313707,2136,2881,7_S
1789468324.314765,2212,2879,7_S
1789468324.317324,2212,2879,7_S
1789468324.31862,2178,2881,7_S
1789468324.321174,2075,2880,7_S
1789468324.323385,2060,2879,7_S
1789468324.324655,2036,2878,7_S
1789468324.3272069,1955,2879,7_S
1789468324.3296142,2184,2880,7_S
1789468324.330911,2238,2880,7_S
1789468324.333219,2128,2879,7_S
1789468324.334589,2061,2879,7_S
1789468324.337142,2055,2879,7_S
1789468324.339266,2100,2880,7_S
1789468324.340571,2271,2880,7_S
1789468324.342879,2067,2878,7_S
1789468324.34537,2057,2878,7_S
1789468324.347687,2043,2878,7_S
1789468324.3487449,1999,2878,7_S
1789468324.35081,2243,2880,7_S
1789468324.3533702,2177,2879,7_S
1789468324.358558,2056,2879,7_S
1789468324.359071,2210,2880,7_S
1789468324.359572,2153,2880,7_S
1789468324.36163,2085,2879,7_S
1789468324.3630452,2116,2882,7_S
1789468324.36709,2156,2881,7_S
1789468324.367237,2172,2881,7_S
1789468324.371285,2134,2879,7_S
1789468324.371472,2148,2880,7_S
1789468324.373206,2134,2879,7_S
1789468324.374581,2104,2880,7_S
1789468324.376899,2063,2879,7_S
1789468324.3792472,2123,2878,7_S
1789468324.383936,2128,2880,7_S
1789468324.385325,2161,2880,7_S
1789468324.387587,2104,2878,7_S
1789468324.3877451,2077,2877,7_S
1789468324.390487,2069,2881,7_S
1789468324.3913689,2130,2880,7_S
1789468324.393801,2017,2879,7_S
1789468324.397919,2015,2879,7_S
1789468324.398039,2089,2878,7_S
1789468324.40022,2125,2880,7_S
1789468324.401286,2004,2879,7_S
1789468324.402591,2034,2878,7_S
1789468324.404673,2075,2878,7_S
1789468324.406996,1964,2876,7_S
1789468324.409324,2021,2879,7_S
1789468324.410584,2287,2880,7_S
1789468324.4129019,2120,2880,7_S
1789468324.4152162,2038,2880,7_S
1789468324.4178,2031,2880,7_S
1789468324.419094,2233,2879,7_S
1789468324.4214048,2127,2879,7_S
1789468324.4237251,2122,2881,7_S
1789468324.424775,2152,2880,7_S
1789468324.427021,2093,2878,7_S
1789468324.429089,1983,2876,7_S
1789468324.4314072,2007,2878,7_S
1789468324.433522,2118,2879,7_S
1789468324.434583,2011,2879,7_S
1789468324.436901,1981,2879,7_S
1789468324.439452,1970,2876,7_S
1789468324.44074,2118,2880,7_S
1789468324.443104,2039,2877,7_S
1789468324.445436,2083,2880,7_S
1789468324.446593,2047,2878,7_S
1789468324.4489138,2069,2880,7_S
1789468324.451256,2111,2878,7_S
1789468324.4525802,1987,2878,7_S
1789468324.454908,2032,2880,7_S
1789468324.4571981,2069,2881,7_S
1789468324.45859,2041,2879,7_S
1789468324.466502,2077,2880,7_S
1789468324.46843,1958,2879,7_S
1789468324.469933,2109,2880,7_S
1789468324.471947,2265,2879,7_S
1789468324.4765089,2039,2879,7_S
1789468324.4812338,1909,2876,7_S
1789468324.481605,2006,2877,7_S
1789468324.481913,2210,2881,7_S
1789468324.482204,2080,2878,7_S
1789468324.4839628,1898,2878,7_S
1789468324.484571,2088,2880,7_S
1789468324.4848719,2167,2879,7_S
1789468324.4850152,2090,2880,7_S
1789468324.487255,2174,2879,7_S
1789468324.489385,2049,2879,7_S
1789468324.4906938,2120,2881,7_S
1789468324.493024,1968,2878,7_S
1789468324.4951859,2294,2881,7_S
1789468324.497351,2038,2878,7_S
1789468324.498571,1740,2879,7_S
1789468324.500824,1740,2877,7_S
1789468324.5031612,2525,2880,7_S
1789468324.5052779,2127,2879,7_S
1789468324.5065868,1908,2877,7_S
1789468324.514197,1945,2878,7_S
1789468324.514775,2258,2880,7_S
1789468324.5171149,2070,2879,7_S
1789468324.517192,2028,2878,7_S
1789468324.5172322,2203,2880,7_S
1789468324.518548,1813,2878,7_S
1789468324.521096,1836,2878,7_S
1789468324.5237079,2214,2880,7_S
1789468324.525673,2095,2880,7_S
1789468324.527602,1875,2878,7_S
1789468324.531879,1962,2877,7_S
1789468324.532087,2134,2881,7_S
1789468324.534432,2280,2880,7_S
1789468324.535862,2041,2879,7_S
1789468324.536994,2365,2880,7_S
1789468324.539319,2093,2880,7_S
1789468324.540619,1887,2877,7_S
1789468324.5426931,1829,2879,7_S
1789468324.545344,1940,2878,7_S
1789468324.546659,2316,2880,7_S
1789468324.5492108,2161,2879,7_S
1789468324.551509,1824,2877,7_S
1789468324.552808,2049,2880,7_S
1789468324.5553658,1808,2876,7_S
1789468324.556624,2240,2881,7_S
1789468324.558997,2431,2879,7_S
1789468324.561122,1990,2879,7_S
1789468324.5634408,2061,2878,7_S
1789468324.564746,2017,2877,7_S
1789468324.567054,2155,2880,7_S
1789468324.569372,1913,2877,7_S
1789468324.571672,2030,2880,7_S
1789468324.573009,2353,2880,7_S
1789468324.5752802,1960,2876,7_S
1789468324.577347,1919,2877,7_S
1789468324.579416,2265,2880,7_S
1789468324.5807092,2263,2881,7_S
1789468324.58303,2110,2880,7_S
1789468324.585473,2159,2880,7_S
1789468324.5867672,1841,2877,7_S
1789468324.588855,1806,2878,7_S
1789468324.591083,2205,2881,7_S
1789468324.5933928,2122,2881,7_S
1789468324.59876,2160,2881,7_S
1789468324.5992699,2103,2880,7_S
1789468324.5997581,2079,2879,7_S
1789468324.6020072,1947,2878,7_S
1789468324.60397,2098,2882,7_S
1789468324.605738,2089,2880,7_S
1789468324.607445,2057,2880,7_S
1789468324.611294,2070,2880,7_S
1789468324.6114628,1717,2879,7_S
1789468324.613581,2385,2880,7_S
1789468324.6148841,2288,2881,7_S
1789468324.6170208,1738,2877,7_S
1789468324.619574,2296,2881,7_S
1789468324.6252868,2246,2881,7_S
1789468324.6258502,2361,2881,7_S
1789468324.6259358,2093,2880,7_S
1789468324.627831,1878,2879,7_S
1789468324.629811,1957,2877,7_S
1789468324.631354,1847,2878,7_S
1789468324.6333718,2121,2880,7_S
1789468324.637014,2125,2881,7_S
1789468324.637232,2019,2880,7_S
1789468324.638957,1886,2877,7_S
1789468324.641527,2103,2881,7_S
1789468324.642825,2064,2878,7_S
1789468324.644906,2029,2879,7_S
1789468324.6472151,2186,2881,7_S
1789468324.6492999,2224,2880,7_S
1789468324.650601,2214,2879,7_S
1789468324.652676,2250,2879,7_S
1789468324.655227,1913,2876,7_S
1789468324.656571,1829,2878,7_S
1789468324.6591191,2177,2879,7_S
1789468324.6614232,1960,2878,7_S
1789468324.66257,1654,2879,7_S
1789468324.665122,2362,2879,7_S
1789468324.667318,2385,2879,7_S
1789468324.668611,2106,2880,7_S
1789468324.6709151,2049,2879,7_S
1789468324.672988,2133,2881,7_S
1789468324.6752908,2256,2879,7_S
1789468324.676585,2104,2877,7_S
1789468324.678706,2131,2877,7_S
1789468324.681018,2041,2877,7_S
1789468324.683326,2047,2879,7_S
1789468324.684631,1966,2879,7_S
1789468324.6869261,2000,2879,7_S
1789468324.688986,1947,2877,7_S
1789468324.691076,2141,2880,7_S
1789468324.693381,2081,2879,7_S
1789468324.694674,1912,2879,7_S
1789468324.6969888,2089,2877,7_S
1789468324.7040389,2368,2881,7_S
1789468324.704541,1998,2879,7_S
1789468324.705028,1916,2874,7_S
1789468324.7054799,2066,2879,7_S
1789468324.70673,2087,2878,7_S
1789468324.709538,2043,2877,7_S
1789468324.7118359,1958,2879,7_S
1789468324.715337,2023,2879,7_S
1789468324.7155259,2261,2880,7_S
1789468324.717526,1991,2880,7_S
1789468324.718828,1947,2879,7_S
1789468324.721153,2007,2879,7_S
1789468324.723467,2028,2878,7_S
1789468324.728367,2451,2881,7_S
1789468324.729277,2058,2879,7_S
1789468324.729738,2033,2879,7_S
1789468324.731169,2126,2879,7_S
1789468324.73345,2092,2879,7_S
1789468324.7347672,1995,2878,7_S
1789468324.739851,1909,2877,7_S
1789468324.7400389,2140,2880,7_S
1789468324.742102,2147,2880,7_S
1789468324.7434099,1934,2879,7_S
1789468324.745683,2023,2879,7_S
1789468324.746741,2172,2880,7_S
1789468324.7490492,2148,2879,7_S
1789468324.75163,2185,2878,7_S
1789468324.752937,2112,2879,7_S
1789468324.7554922,2219,2879,7_S
1789468324.756585,1903,2876,7_S
1789468324.759146,2000,2878,7_S
1789468324.7617002,2092,2877,7_S
1789468324.7627468,1973,2877,7_S
1789468324.765043,2191,2880,7_S
1789468324.767597,1955,2879,7_S
1789468324.7688918,1894,2876,7_S
1789468324.771036,2207,2879,7_S
1789468324.7734861,2173,2880,7_S
1789468324.774621,2192,2881,7_S
1789468324.7769542,1705,2878,7_S
1789468324.779507,2201,2880,7_S
1789468324.78064,2101,2879,7_S
1789468324.782706,2149,2880,7_S
1789468324.784771,1994,2880,7_S
1789468324.78708,2085,2880,7_S
1789468324.789631,2112,2879,7_S
1789468324.790677,2157,2879,7_S
1789468324.792757,2046,2879,7_S
1789468324.794852,2083,2879,7_S
1789468324.7971609,2056,2878,7_S
1789468324.799295,1956,2878,7_S
1789468324.800589,2227,2880,7_S
1789468324.8058171,1991,2879,7_S
1789468324.806365,2022,2879,7_S
1789468324.808697,2059,2879,7_S
1789468324.808963,2267,2881,7_S
1789468324.811996,2125,2878,7_S
1789468324.8145049,2041,2879,7_S
1789468324.818013,2211,2881,7_S
1789468324.818282,2074,2879,7_S
1789468324.820034,1939,2877,7_S
1789468324.821332,1993,2880,7_S
1789468324.822626,2115,2880,7_S
1789468324.825181,2074,2880,7_S
1789468324.83148,1961,2878,7_S
1789468324.831945,2001,2878,7_S
1789468324.832062,2219,2881,7_S
1789468324.8344362,2156,2879,7_S
1789468324.835964,1961,2877,7_S
1789468324.8374898,2232,2881,7_S
1789468324.839885,2163,2880,7_S
1789468324.843379,2093,2880,7_S
1789468324.8435159,2043,2877,7_S
1789468324.8455691,2035,2879,7_S
1789468324.846872,2156,2881,7_S
1789468324.849427,2202,2880,7_S
1789468324.850722,2140,2879,7_S
1789468324.853036,2047,2880,7_S
1789468324.85537,1860,2877,7_S
1789468324.857676,1953,2878,7_S
1789468324.858729,2048,2877,7_S
1789468324.861289,2078,2879,7_S
1789468324.862586,2036,2879,7_S
1789468324.865102,2151,2879,7_S
1789468324.867658,2136,2880,7_S
1789468324.868713,1966,2879,7_S
1789468324.8710122,2102,2879,7_S
1789468324.873392,2122,2880,7_S
1789468324.8756962,2078,2878,7_S
1789468324.876757,1998,2879,7_S
1789468324.879137,2112,2878,7_S
1789468324.881449,2096,2880,7_S
1789468324.882744,2129,2880,7_S
1789468324.884896,2014,2879,7_S
1789468324.887445,1984,2879,7_S
1789468324.888553,2049,2880,7_S
1789468324.8908641,2224,2880,7_S
1789468324.8930402,2142,2881,7_S
1789468324.895346,1989,2878,7_S
1789468324.896638,2008,2878,7_S
1789468324.8991659,2132,2880,7_S
1789468324.9016142,2271,2879,7_S
1789468324.902664,2248,2880,7_S
1789468324.90881,2135,2879,7_S
1789468324.908921,1957,2876,7_S
1789468324.909407,1817,2878,7_S
1789468324.911531,1851,2878,7_S
1789468324.9132211,1778,2878,7_S
1789468324.9149241,2010,2877,7_S
1789468324.917147,2682,2881,7_S
1789468324.920369,2487,2879,7_S
1789468324.922594,1792,2875,7_S
1789468324.9226298,2043,2877,7_S
1789468324.92518,2078,2878,7_S
1789468324.927777,2349,2878,7_S
1789468324.9288461,2157,2879,7_S
1789468324.933527,1872,2878,7_S
1789468324.9339871,2477,2880,7_S
1789468324.9361122,1943,2878,7_S
1789468324.9380531,1751,2876,7_S
1789468324.9395561,2087,2880,7_S
1789468324.941557,1705,2877,7_S
1789468324.945024,2781,2881,7_S
1789468324.945212,2207,2879,7_S
1789468324.947307,2193,2879,7_S
1789468324.948608,2512,2880,7_S
1789468324.95072,1807,2875,7_S
1789468324.953034,1696,2876,7_S
1789468324.955117,2433,2880,7_S
1789468324.957431,2126,2878,7_S
1789468324.958729,2034,2878,7_S
1789468324.96128,2076,2877,7_S
1789468324.963361,2279,2880,7_S
1789468324.964658,2043,2878,7_S
1789468324.967208,1593,2877,7_S
1789468324.968629,1890,2876,7_S
1789468324.970685,2747,2882,7_S
1789468324.9729972,1800,2877,7_S
1789468324.975063,1964,2878,7_S
1789468324.977611,2167,2878,7_S
1789468324.9786549,2676,2881,7_S
1789468324.9812071,2538,2880,7_S
1789468324.98256,1893,2876,7_S
1789468324.9851131,1716,2877,7_S
1789468324.9871879,2189,2880,7_S
1789468324.9894998,1949,2877,7_S
1789468324.990568,2232,2879,7_S
1789468324.993121,2069,2880,7_S
1789468324.9954402,1958,2877,7_S
1789468324.9967349,2134,2880,7_S
1789468324.998889,1771,2878,7_S
1789468325.001438,2208,2881,7_S
1789468325.002731,2180,2879,7_S
1789468325.0050502,2032,2877,7_S
1789468325.0108988,2042,2878,7_S
1789468325.01138,2230,2881,7_S
1789468325.012938,1900,2877,7_S
1789468325.013233,1976,2878,7_S
1789468325.015145,1917,2878,7_S
1789468325.018424,2299,2880,7_S
1789468325.02142,2178,2880,7_S
1789468325.0216131,2299,2880,7_S
1789468325.023381,1833,2877,7_S
1789468325.025695,2199,2880,7_S
1789468325.026992,2235,2881,7_S
1789468325.029545,1677,2878,7_S
1789468325.034325,1892,2878,7_S
1789468325.0347798,2003,2877,7_S
1789468325.035902,1935,2877,7_S
1789468325.0392709,1832,2876,7_S
1789468325.039711,2014,2879,7_S
1789468325.0411148,2570,2881,7_S
1789468325.045395,2284,2879,7_S
1789468325.045517,1835,2877,7_S
1789468325.047423,2102,2878,7_S
1789468325.048722,2654,2882,7_S
1789468325.051271,2350,2880,7_S
1789468325.052585,1120,2877,7_S
1789468325.055157,2152,2879,7_S
1789468325.057647,2187,2879,7_S
1789468325.05894,1826,2877,7_S
1789468325.061492,2064,2879,7_S
1789468325.062785,2006,2878,7_S
1789468325.064878,2463,2881,7_S
1789468325.0674272,1994,2878,7_S
1789468325.068612,1556,2878,7_S
1789468325.0706828,2114,2877,7_S
1789468325.0727968,2247,2879,7_S
1789468325.074943,1940,2877,7_S
1789468325.0772538,1828,2877,7_S
1789468325.079304,2022,2879,7_S
1789468325.081606,949,2876,7_S
1789468325.082654,2205,2881,7_S
1789468325.084974,2681,2881,7_S
1789468325.087049,2408,2880,7_S
1789468325.0891168,2274,2880,7_S
1789468325.0916831,2014,2880,7_S
1789468325.0927339,2011,2879,7_S
1789468325.095283,2163,2877,7_S
1789468325.097476,2472,2881,7_S
1789468325.098654,1893,2878,7_S
1789468325.1007318,1010,2876,7_S
1789468325.1076381,1137,2876,7_S
1789468325.108139,1743,2877,7_S
1789468325.109065,2926,2882,7_S
1789468325.10951,2956,2883,7_S
1789468325.1107872,1855,2880,7_S
1789468325.113931,1478,2878,7_S
1789468325.116411,2047,2879,7_S
1789468325.119453,2642,2882,7_S
1789468325.1198459,1798,2877,7_S
1789468325.121789,2820,2881,7_S
1789468325.123086,2189,2879,7_S
1789468325.1256351,504,2874,7_S
1789468325.1269288,1066,2877,7_S
1789468325.133318,2828,2881,7_S
1789468325.13343,2297,2880,7_S
1789468325.133905,1539,2877,7_S
1789468325.136114,2053,2877,7_S
1789468325.1376991,2204,2881,7_S
1789468325.1395059,3206,2882,7_S
1789468325.1415591,2076,2879,7_S
1789468325.144525,1390,2876,7_S
1789468325.144632,1715,2878,7_S
1789468325.147477,2963,2881,7_S
1789468325.148774,2292,2881,7_S
1789468325.151194,2063,2880,7_S
1789468325.1534982,809,2876,7_S
1789468325.154562,1760,2877,7_S
1789468325.1567008,2806,2881,7_S
1789468325.159018,1428,2876,7_S
1789468325.161315,747,2877,7_S
1789468325.162605,3487,2883,7_S
1789468325.1649148,2900,2881,7_S
1789468325.16747,1265,2876,7_S
1789468325.168767,2116,2878,7_S
1789468325.17083,1790,2878,7_S
1789468325.172894,1766,2877,7_S
1789468325.174967,1713,2879,7_S
1789468325.177265,1657,2877,7_S
1789468325.179568,2000,2879,7_S
1789468325.1808572,1996,2879,7_S
1789468325.182923,1525,2876,7_S
1789468325.185469,2225,2879,7_S
1789468325.186759,1977,2878,7_S
1789468325.188819,759,2876,7_S
1789468325.190877,2728,2881,7_S
1789468325.193175,2301,2879,7_S
1789468325.195693,1938,2878,7_S
1789468325.196981,1137,2876,7_S
1789468325.199282,1479,2877,7_S
1789468325.200573,2264,2881,7_S
1789468325.206358,2929,2882,7_S
1789468325.206896,1304,2878,7_S
1789468325.207653,1979,2878,7_S
1789468325.209128,2168,2881,7_S
1789468325.211752,1263,2876,7_S
1789468325.214001,1282,2878,7_S
1789468325.217119,2161,2880,7_S
1789468325.217456,1422,2877,7_S
1789468325.219543,1887,2878,7_S
1789468325.2208488,2470,2880,7_S
1789468325.223058,1729,2877,7_S
1789468325.225628,1608,2878,7_S
1789468325.235265,2637,2880,7_S
1789468325.236555,1480,2877,7_S
1789468325.2373528,1432,2878,7_S
1789468325.2378519,2062,2878,7_S
1789468325.239308,2055,2879,7_S
1789468325.2394931,1318,2877,7_S
1789468325.242825,1246,2876,7_S
1789468325.24293,2744,2881,7_S
1789468325.243107,2665,2881,7_S
1789468325.245295,1862,2877,7_S
1789468325.2466,1984,2878,7_S
1789468325.249156,2327,2880,7_S
1789468325.250491,2150,2878,7_S
1789468325.252838,1862,2878,7_S
1789468325.254905,1361,2878,7_S
1789468325.25735,2549,2880,7_S
1789468325.259656,1991,2879,7_S
1789468325.260701,1487,2878,7_S
1789468325.2630012,1977,2877,7_S
1789468325.265312,1949,2877,7_S
1789468325.266469,1884,2877,7_S
1789468325.269021,1789,2877,7_S
1789468325.271461,2073,2880,7_S
1789468325.272753,1841,2877,7_S
1789468325.275258,2047,2879,7_S
1789468325.276551,2314,2879,7_S
1789468325.2788532,1077,2877,7_S
1789468325.281162,1947,2879,7_S
1789468325.2834592,2778,2883,7_S
1789468325.28451,1818,2878,7_S
1789468325.2868109,2131,2880,7_S
1789468325.2890701,2064,2880,7_S
1789468325.2911339,1835,2877,7_S
1789468325.293441,1765,2878,7_S
1789468325.294492,1726,2878,7_S
1789468325.2970471,1762,2877,7_S
1789468325.299424,1941,2877,7_S
1789468325.300717,1665,2877,7_S
1789468325.305193,1873,2877,7_S
1789468325.305949,1981,2879,7_S
1789468325.308036,1897,2878,7_S
1789468325.3095691,1680,2876,7_S
1789468325.3116102,1698,2878,7_S
1789468325.3131719,2187,2878,7_S
1789468325.316674,2101,2878,7_S
1789468325.316802,3110,2883,7_S
1789468325.318764,2000,2879,7_S
1789468325.321324,1852,2877,7_S
1789468325.322505,1923,2877,7_S
1789468325.329411,1990,2878,7_S
1789468325.32988,1692,2879,7_S
1789468325.330261,2206,2880,7_S
1789468325.332905,1845,2877,7_S
1789468325.333604,1751,2878,7_S
1789468325.335207,1948,2880,7_S
1789468325.336606,1868,2877,7_S
1789468325.339774,2213,2879,7_S
1789468325.341502,2393,2879,7_S
1789468325.3427992,1941,2878,7_S
1789468325.345101,1803,2878,7_S
1789468325.34654,2437,2881,7_S
1789468325.348851,2542,2880,7_S
1789468325.351416,2233,2880,7_S
1789468325.352476,2094,2880,7_S
1789468325.354996,1934,2878,7_S
1789468325.357306,2255,2880,7_S
1789468325.3585951,2534,2881,7_S
1789468325.361124,2645,2882,7_S
1789468325.363677,2516,2879,7_S
1789468325.364973,2222,2880,7_S
1789468325.3675241,2011,2877,7_S
1789468325.3688169,1867,2878,7_S
1789468325.3713439,2465,2881,7_S
1789468325.372635,2816,2880,7_S
1789468325.375183,2484,2880,7_S
1789468325.3772428,2421,2880,7_S
1789468325.3785322,2086,2880,7_S
1789468325.381079,2534,2881,7_S
1789468325.3833332,2584,2881,7_S
1789468325.384626,2546,2882,7_S
1789468325.386699,2583,2882,7_S
1789468325.3889658,3123,2883,7_S
1789468325.391511,2563,2881,7_S
1789468325.392801,2596,2881,7_S
1789468325.3949819,2345,2880,7_S
1789468325.397561,2665,2881,7_S
1789468325.402494,2736,2882,7_S
1789468325.402622,2779,2882,7_S
1789468325.403434,2311,2880,7_S
1789468325.405451,2040,2880,7_S
1789468325.407259,2270,2879,7_S
1789468325.408489,2448,2881,7_S
1789468325.413794,2145,2881,7_S
1789468325.414002,1865,2879,7_S
1789468325.41596,2228,2881,7_S
1789468325.417016,2097,2878,7_S
1789468325.419575,3080,2883,7_S
1789468325.420625,2782,2882,7_S
1789468325.426164,2138,2881,7_S
1789468325.426935,1924,2878,7_S
1789468325.427726,1999,2878,7_S
1789468325.430166,2643,2881,7_S
1789468325.43185,2708,2882,7_S
1789468325.433871,2313,2879,7_S
1789468325.437257,2009,2880,7_S
1789468325.4374132,2012,2879,7_S
1789468325.4390888,2071,2879,7_S
1789468325.4414039,2284,2880,7_S
1789468325.4425228,2008,2878,7_S
1789468325.4450738,2451,2880,7_S
1789468325.4476318,2529,2880,7_S
1789468325.448711,1721,2877,7_S
1789468325.4512682,1874,2877,7_S
1789468325.452561,2002,2879,7_S
1789468325.4547908,2746,2881,7_S
1789468325.457338,1759,2876,7_S
1789468325.458442,1939,2878,7_S
1789468325.46075,2454,2881,7_S
1789468325.463052,2635,2881,7_S
1789468325.46536,2163,2880,7_S
1789468325.46651,2113,2880,7_S
1789468325.4690702,2110,2880,7_S
1789468325.470436,1953,2877,7_S
1789468325.472745,2027,2878,7_S
1789468325.475046,1888,2878,7_S
1789468325.477621,1930,2877,7_S
1789468325.478911,2077,2879,7_S
1789468325.4812071,1795,2877,7_S
1789468325.4825,1707,2877,7_S
1789468325.484823,2045,2879,7_S
1789468325.487373,1609,2876,7_S
1789468325.488459,2213,2880,7_S
1789468325.4906418,1563,2878,7_S
1789468325.4931881,2778,2882,7_S
1789468325.49551,2663,2880,7_S
1789468325.5004191,1824,2877,7_S
1789468325.500874,1867,2878,7_S
1789468325.5012832,2055,2878,7_S
1789468325.503156,1039,2877,7_S
1789468325.504704,2372,2880,7_S
1789468325.5081432,2793,2881,7_S
1789468325.5118499,2250,2880,7_S
1789468325.5119739,1910,2879,7_S
1789468325.5140312,2094,2879,7_S
1789468325.5150862,2125,2879,7_S
1789468325.516442,1886,2878,7_S
1789468325.518743,1839,2877,7_S
1789468325.524113,1457,2877,7_S
1789468325.524556,1179,2877,7_S
1789468325.5256,1946,2880,7_S
1789468325.528838,2228,2879,7_S
1789468325.5292668,1437,2876,7_S
1789468325.53166,1986,2880,7_S
1789468325.535219,3062,2883,7_S
1789468325.535357,2450,2881,7_S
1789468325.537396,1975,2877,7_S
1789468325.538456,2239,2878,7_S
1789468325.5410051,1768,2878,7_S
1789468325.5435572,1162,2876,7_S
1789468325.544862,2006,2879,7_S
1789468325.547338,2459,2879,7_S
1789468325.548636,1254,2876,7_S
1789468325.550713,1991,2877,7_S
1789468325.553026,2381,2881,7_S
1789468325.555331,2597,2881,7_S
1789468325.556621,1520,2878,7_S
1789468325.5591722,1904,2878,7_S
1789468325.5614731,1620,2878,7_S
1789468325.562763,1261,2877,7_S
1789468325.564832,1880,2876,7_S
1789468325.567137,2606,2881,7_S
1789468325.569503,2567,2881,7_S
1789468325.570553,1322,2876,7_S
1789468325.573007,1495,2878,7_S
1789468325.5753138,2909,2881,7_S
1789468325.57644,2481,2881,7_S
1789468325.578986,1981,2879,7_S
1789468325.581534,1787,2876,7_S
1789468325.582582,1861,2877,7_S
1789468325.584882,2300,2880,7_S
1789468325.587022,1851,2877,7_S
1789468325.589577,2238,2880,7_S
1789468325.590632,2276,2879,7_S
1789468325.59296,2305,2879,7_S
1789468325.598352,2518,2880,7_S
1789468325.598787,1788,2878,7_S
1789468325.5992599,2300,2880,7_S
1789468325.600733,2227,2881,7_S
1789468325.604426,2003,2877,7_S
1789468325.604554,2356,2880,7_S
1789468325.609358,2229,2879,7_S
1789468325.609638,2283,2880,7_S
1789468325.615916,1336,2877,7_S
1789468325.615956,1396,2877,7_S
1789468325.615988,2381,2881,7_S
1789468325.6180558,2598,2881,7_S
1789468325.647809,1895,2880,7_S
1789468325.648115,2851,2881,7_S
1789468325.64815,2047,2879,7_S
1789468325.648182,2190,2878,7_S
1789468325.648421,2233,2879,7_S
1789468325.64848,1992,2879,7_S
1789468325.6485171,2176,2878,7_S
1789468325.648549,2616,2881,7_S
1789468325.6485791,1680,2876,7_S
1789468325.648609,1827,2879,7_S
1789468325.64864,2068,2880,7_S
1789468325.648932,2336,2879,7_S
1789468325.648969,1982,2878,7_S
1789468325.649001,1919,2879,7_S
1789468325.6490319,2585,2881,7_S
1789468325.6490629,2205,2880,7_S
1789468325.65138,1827,2878,7_S
1789468325.659949,2117,2880,7_S
1789468325.65999,2348,2881,7_S
1789468325.6600242,2288,2881,7_S
1789468325.660058,2096,2877,7_S
1789468325.661154,2166,2879,7_S
1789468325.664057,2078,2878,7_S
1789468325.6654122,2326,2880,7_S
1789468325.666708,1959,2880,7_S
1789468325.6691651,1096,2874,7_S
1789468325.6704772,1650,2876,7_S
1789468325.672796,2526,2881,7_S
1789468325.675117,2917,2882,7_S
1789468325.6773272,1870,2878,7_S
1789468325.678575,1784,2877,7_S
1789468325.6811311,2245,2881,7_S
1789468325.682497,1619,2877,7_S
1789468325.684602,2293,2879,7_S
1789468325.6871622,2197,2880,7_S
1789468325.6884742,2044,2878,7_S
1789468325.69055,2293,2881,7_S
1789468325.693033,2014,2880,7_S
1789468325.699421,1875,2878,7_S
1789468325.699907,2037,2879,7_S
1789468325.700053,2589,2882,7_S
1789468325.702225,2221,2881,7_S
1789468325.7044039,2210,2880,7_S
1789468325.704868,1937,2879,7_S
1789468325.708035,1893,2878,7_S
1789468325.712212,1207,2877,7_S
1789468325.7123818,2791,2881,7_S
1789468325.7125518,2110,2882,7_S
1789468325.715277,2086,2878,7_S
1789468325.71649,1823,2878,7_S
1789468325.718571,2411,2880,7_S
1789468325.7211578,2544,2881,7_S
1789468325.725025,1924,2879,7_S
1789468325.725525,2068,2880,7_S
1789468325.728002,2364,2880,7_S
1789468325.729884,1703,2878,7_S
1789468325.731881,1801,2879,7_S
1789468325.7332852,1992,2877,7_S
1789468325.7374778,2718,2881,7_S
1789468325.737659,2556,2880,7_S
1789468325.7396538,1795,2879,7_S
1789468325.7409558,1456,2876,7_S
1789468325.7432451,2499,2881,7_S
1789468325.744542,2738,2882,7_S
1789468325.746856,2147,2878,7_S
1789468325.748929,1941,2879,7_S
1789468325.751484,1985,2878,7_S
1789468325.752778,2025,2879,7_S
1789468325.755008,1902,2876,7_S
1789468325.75708,1965,2877,7_S
1789468325.759388,1780,2876,7_S
1789468325.760515,2422,2881,7_S
1789468325.7625751,2040,2876,7_S
1789468325.765126,2338,2881,7_S
1789468325.767432,2382,2880,7_S
1789468325.768724,1937,2877,7_S
1789468325.771041,2016,2877,7_S
1789468325.773094,2142,2880,7_S
1789468325.774473,2094,2877,7_S
1789468325.777022,2087,2880,7_S
1789468325.7794611,1795,2877,7_S
1789468325.7807539,1965,2877,7_S
1789468325.783062,2075,2878,7_S
1789468325.784478,2131,2880,7_S
1789468325.787029,2068,2879,7_S
1789468325.78956,1945,2878,7_S
1789468325.790854,2020,2878,7_S
1789468325.7934022,2050,2878,7_S
1789468325.794695,2009,2878,7_S
1789468325.7967622,2442,2881,7_S
1789468325.8032901,2601,2880,7_S
1789468325.803453,1629,2877,7_S
1789468325.804733,2061,2879,7_S
1789468325.806276,2328,2880,7_S
1789468325.8087108,2265,2881,7_S
1789468325.808825,2165,2879,7_S
1789468325.811873,1983,2878,7_S
1789468325.8158689,1998,2878,7_S
1789468325.816153,2075,2879,7_S
1789468325.8180952,2066,2879,7_S
1789468325.819402,2028,2879,7_S
1789468325.820697,2252,2880,7_S
1789468325.8232489,2139,2880,7_S
1789468325.828258,2034,2878,7_S
1789468325.828989,1961,2878,7_S
1789468325.829458,2216,2880,7_S
1789468325.830872,2123,2880,7_S
1789468325.835745,2033,2879,7_S
1789468325.835936,2187,2880,7_S
1789468325.840058,2246,2880,7_S
1789468325.84032,1991,2878,7_S
1789468325.84189,2191,2881,7_S
1789468325.8429382,2094,2877,7_S
1789468325.845495,1994,2878,7_S
1789468325.8467898,2136,2880,7_S
1789468325.849344,2126,2879,7_S
1789468325.850656,2106,2879,7_S
1789468325.852965,2053,2879,7_S
1789468325.8555179,2057,2881,7_S
1789468325.856808,2164,2879,7_S
1789468325.859066,2209,2880,7_S
1789468325.8616278,2106,2880,7_S
1789468325.8629172,2033,2878,7_S
1789468325.8654149,2201,2880,7_S
1789468325.866705,2275,2880,7_S
1789468325.869264,2113,2878,7_S
1789468325.8705568,2064,2878,7_S
1789468325.8728619,2160,2880,7_S
1789468325.87517,2170,2880,7_S
1789468325.876488,2107,2878,7_S
1789468325.878788,2131,2878,7_S
1789468325.880862,2149,2880,7_S
1789468325.8834062,2159,2879,7_S
1789468325.884694,2150,2878,7_S
1789468325.887241,2129,2878,7_S
1789468325.8895411,1923,2876,7_S
1789468325.890831,2067,2878,7_S
1789468325.893258,2192,2880,7_S
1789468325.894547,2178,2881,7_S
1789468325.896852,2039,2877,7_S
1789468325.9031942,2094,2879,7_S
1789468325.9039419,2043,2879,7_S
1789468325.904021,2100,2880,7_S
1789468325.905594,2162,2879,7_S
1789468325.907085,1924,2878,7_S
1789468325.909031,2152,2881,7_S
1789468325.910769,2312,2880,7_S
1789468325.9149,2063,2877,7_S
1789468325.914999,2155,2881,7_S
1789468325.917005,2119,2879,7_S
1789468325.9193249,2005,2879,7_S
1789468325.920502,2079,2879,7_S
1789468325.927499,2212,2879,7_S
1789468325.927928,2150,2881,7_S
1789468325.928329,1952,2879,7_S
1789468325.9309282,2013,2878,7_S
1789468325.9313269,2227,2881,7_S
1789468325.93292,2278,2880,7_S
1789468325.9346418,2007,2879,7_S
1789468325.938679,2029,2879,7_S
1789468325.939011,2179,2880,7_S
1789468325.9408262,2000,2877,7_S
1789468325.9433842,1942,2878,7_S
1789468325.944677,2064,2877,7_S
1789468325.947228,2091,2880,7_S
1789468325.949562,2147,2879,7_S
1789468325.950621,2228,2880,7_S
1789468325.953172,2141,2877,7_S
1789468325.954468,2089,2879,7_S
1789468325.95699,2090,2877,7_S
1789468325.95933,2001,2879,7_S
1789468325.960622,1978,2879,7_S
1789468325.9631732,2251,2882,7_S
1789468325.964521,2098,2879,7_S
1789468325.966862,2012,2878,7_S
1789468325.969414,2043,2880,7_S
1789468325.970706,2193,2880,7_S
1789468325.9732559,2154,2880,7_S
1789468325.975573,2168,2881,7_S
1789468325.976863,1997,2879,7_S
1789468325.9791622,1976,2878,7_S
1789468325.980535,1992,2879,7_S
1789468325.982602,2123,2879,7_S
1789468325.985151,1978,2878,7_S
1789468325.987218,1850,2877,7_S
1789468325.98851,2009,2878,7_S
1789468325.990814,2237,2880,7_S
1789468325.993124,2066,2877,7_S
1789468325.995422,2092,2877,7_S
1789468325.996516,2114,2880,7_S
1789468326.002069,2094,2879,7_S
1789468326.0029771,1924,2875,7_S
1789468326.003463,1861,2877,7_S
1789468326.005143,2093,2880,7_S
1789468326.007382,2145,2879,7_S
1789468326.0101938,2156,2880,7_S
1789468326.014158,1875,2877,7_S
1789468326.0143092,1999,2877,7_S
1789468326.016303,2175,2881,7_S
1789468326.017602,2265,2880,7_S
1789468326.0188942,2224,2880,7_S
1789468326.021355,1894,2877,7_S
1789468326.022646,1839,2878,7_S
1789468326.026747,2208,2880,7_S
1789468326.0272021,2176,2881,7_S
1789468326.0296042,1894,2877,7_S
1789468326.031168,2160,2880,7_S
1789468326.033076,2086,2879,7_S
1789468326.034698,1930,2876,7_S
1789468326.03867,1882,2877,7_S
1789468326.038794,2137,2880,7_S
1789468326.041534,2077,2880,7_S
1789468326.042826,1970,2876,7_S
1789468326.0453918,1883,2878,7_S
1789468326.046457,1915,2878,7_S
1789468326.048779,1820,2878,7_S
1789468326.051085,2256,2880,7_S
1789468326.0524921,2795,2881,7_S
1789468326.054566,1943,2879,7_S
1789468326.057127,1794,2876,7_S
1789468326.0594401,2213,2880,7_S
1789468326.060744,2027,2878,7_S
1789468326.062861,2411,2880,7_S
1789468326.0651782,2131,2880,7_S
1789468326.0665019,1872,2877,7_S
1789468326.068654,1898,2877,7_S
1789468326.0707278,1878,2876,7_S
1789468326.073356,1973,2878,7_S
1789468326.074465,2181,2880,7_S
1789468326.0766962,1927,2877,7_S
1789468326.078876,2207,2879,7_S
1789468326.081074,2338,2880,7_S
1789468326.083553,2178,2880,7_S
1789468326.0846112,2095,2880,7_S
1789468326.086688,2137,2881,7_S
1789468326.089237,2081,2880,7_S
1789468326.090521,2019,2878,7_S
1789468326.0930371,2199,2880,7_S
1789468326.099966,2369,2881,7_S
1789468326.101362,2107,2880,7_S
1789468326.103001,1916,2877,7_S
1789468326.103143,2084,2881,7_S
1789468326.103314,1903,2877,7_S
1789468326.1055841,2151,2880,7_S
1789468326.107177,1977,2878,7_S
1789468326.112187,2077,2878,7_S
1789468326.112457,2058,2880,7_S
1789468326.11269,1789,2877,7_S
1789468326.115532,1996,2876,7_S
1789468326.116832,2033,2879,7_S
1789468326.119141,1912,2876,7_S
1789468326.1257641,2470,2880,7_S
1789468326.126283,2220,2879,7_S
1789468326.1271832,2059,2878,7_S
1789468326.128899,2083,2879,7_S
1789468326.129062,2020,2877,7_S
1789468326.130807,2248,2881,7_S
1789468326.138134,1999,2876,7_S
1789468326.138174,2034,2879,7_S
1789468326.138349,1960,2877,7_S
1789468326.1384609,2451,2880,7_S
1789468326.1411588,1941,2877,7_S
1789468326.1424818,2088,2880,7_S
1789468326.145045,2140,2879,7_S
1789468326.147618,2307,2880,7_S
1789468326.148928,2062,2877,7_S
1789468326.151336,1959,2877,7_S
1789468326.152461,2024,2877,7_S
1789468326.154562,2176,2880,7_S
1789468326.156966,2142,2879,7_S
1789468326.159275,1749,2876,7_S
1789468326.161612,1913,2877,7_S
1789468326.162674,2092,2878,7_S
1789468326.1649868,2223,2879,7_S
1789468326.167552,2187,2881,7_S
1789468326.168874,2028,2879,7_S
1789468326.1714492,2004,2879,7_S
1789468326.1727,1999,2877,7_S
1789468326.1748412,2071,2878,7_S
1789468326.177152,2207,2880,7_S
1789468326.179471,1852,2878,7_S
1789468326.180586,2099,2880,7_S
1789468326.182653,2305,2880,7_S
1789468326.185206,2129,2880,7_S
1789468326.1874702,2038,2879,7_S
1789468326.1887739,2108,2879,7_S
1789468326.1910899,2113,2880,7_S
1789468326.193623,1979,2877,7_S
1789468326.194921,1969,2877,7_S
1789468326.19754,2259,2881,7_S
1789468326.198847,2161,2880,7_S
1789468326.204575,1978,2879,7_S
1789468326.205133,2085,2879,7_S
1789468326.206132,2064,2879,7_S
1789468326.207863,2102,2880,7_S
1789468326.209919,2119,2879,7_S
1789468326.2113972,2066,2878,7_S
1789468326.213412,2261,2881,7_S
1789468326.217192,2280,2880,7_S
1789468326.217408,1754,2876,7_S
1789468326.219188,1899,2877,7_S
1789468326.221499,2040,2878,7_S
1789468326.222643,2201,2881,7_S
1789468326.2251961,2085,2879,7_S
1789468326.230745,1905,2878,7_S
1789468326.2316318,1940,2878,7_S
1789468326.232121,2123,2880,7_S
1789468326.235204,2091,2880,7_S
1789468326.235997,2324,2880,7_S
1789468326.2375429,2035,2879,7_S
1789468326.2392251,2073,2879,7_S
1789468326.242819,2177,2881,7_S
1789468326.243011,2187,2881,7_S
1789468326.245125,2028,2878,7_S
1789468326.247465,2069,2879,7_S
1789468326.248759,2127,2880,7_S
1789468326.251316,2093,2879,7_S
1789468326.252619,2187,2879,7_S
1789468326.25474,1882,2877,7_S
1789468326.257053,1949,2878,7_S
1789468326.2596061,2263,2880,7_S
1789468326.260654,2250,2880,7_S
1789468326.263205,1907,2879,7_S
1789468326.264531,2004,2877,7_S
1789468326.2670898,2156,2879,7_S
1789468326.269571,2090,2880,7_S
1789468326.270872,2055,2879,7_S
1789468326.2734349,1983,2877,7_S
1789468326.274534,2048,2878,7_S
1789468326.2768462,1867,2878,7_S
1789468326.279155,2228,2881,7_S
1789468326.28048,2105,2880,7_S
1789468326.282659,2069,2880,7_S
1789468326.284717,2242,2879,7_S
1789468326.286879,2052,2880,7_S
1789468326.288945,2088,2880,7_S
1789468326.291492,2113,2880,7_S
1789468326.292783,2103,2878,7_S
1789468326.2950861,1969,2878,7_S
1789468326.2976341,1933,2877,7_S
1789468326.298687,2179,2880,7_S
1789468326.301234,2014,2879,7_S
1789468326.302748,1905,2876,7_S
1789468326.307009,2287,2880,7_S
1789468326.307482,2043,2880,7_S
1789468326.3095691,2076,2878,7_S
1789468326.311169,2274,2881,7_S
1789468326.3127732,2042,2879,7_S
1789468326.314732,2001,2877,7_S
1789468326.317991,2129,2880,7_S
1789468326.319596,2119,2879,7_S
1789468326.320898,1992,2880,7_S
1789468326.3234508,2067,2880,7_S
1789468326.324509,2097,2880,7_S
1789468326.330271,2027,2877,7_S
1789468326.331181,1971,2879,7_S
1789468326.3326871,2073,2878,7_S
1789468326.332853,2194,2881,7_S
1789468326.336236,1994,2880,7_S
1789468326.3379781,1940,2876,7_S
1789468326.34115,1928,2876,7_S
1789468326.3413498,2351,2880,7_S
1789468326.3433359,2175,2880,7_S
1789468326.344639,1948,2878,7_S
1789468326.346964,1940,2877,7_S
1789468326.3492842,2260,2880,7_S
1789468326.3505862,2170,2879,7_S
1789468326.3531678,2016,2878,7_S
1789468326.3552651,2022,2879,7_S
1789468326.356561,1980,2876,7_S
1789468326.358878,2378,2881,7_S
1789468326.360947,2223,2880,7_S
1789468326.363261,2024,2878,7_S
1789468326.365567,2037,2878,7_S
1789468326.366623,2180,2880,7_S
1789468326.368703,2037,2877,7_S
1789468326.370767,2077,2879,7_S
1789468326.373319,2078,2879,7_S
1789468326.3745122,2015,2879,7_S
1789468326.377066,1987,2878,7_S
1789468326.3794339,1790,2878,7_S
1789468326.3804832,1904,2877,7_S
1789468326.382556,2499,2880,7_S
1789468326.3846269,2244,2880,7_S
1789468326.38694,2038,2879,7_S
1789468326.389248,2029,2880,7_S
1789468326.391565,2117,2880,7_S
1789468326.392621,2165,2881,7_S
1789468326.394936,2022,2877,7_S
1789468326.397484,2070,2879,7_S
1789468326.398776,2105,2880,7_S
1789468326.400851,2116,2880,7_S
1789468326.4030132,1900,2876,7_S
1789468326.4076412,2199,2879,7_S
1789468326.408107,2288,2880,7_S
1789468326.4104111,2003,2877,7_S
1789468326.4105961,1944,2878,7_S
1789468326.413501,2020,2878,7_S
1789468326.4191282,2114,2879,7_S
1789468326.419256,2132,2880,7_S
1789468326.4193559,2036,2879,7_S
1789468326.421537,2049,2879,7_S
1789468326.422836,2021,2879,7_S
1789468326.425388,2079,2879,7_S
1789468326.426477,2070,2877,7_S
1789468326.431911,2138,2878,7_S
1789468326.4323142,2189,2881,7_S
1789468326.432786,2132,2880,7_S
1789468326.43604,2021,2879,7_S
1789468326.437453,2045,2879,7_S
1789468326.439436,2126,2879,7_S
1789468326.4426408,2141,2879,7_S
1789468326.442803,2172,2880,7_S
1789468326.445591,2038,2879,7_S
1789468326.446883,2063,2880,7_S
1789468326.449215,2071,2877,7_S
1789468326.450509,2131,2879,7_S
1789468326.4529002,2002,2879,7_S
1789468326.45538,1851,2875,7_S
1789468326.456691,1939,2878,7_S
1789468326.459241,2235,2879,7_S
1789468326.460532,2168,2880,7_S
1789468326.46308,2127,2881,7_S
1789468326.465638,2117,2880,7_S
1789468326.4669282,2114,2879,7_S
1789468326.469482,2125,2880,7_S
1789468326.470774,2091,2879,7_S
1789468326.47332,2080,2878,7_S
1789468326.474443,2187,2879,7_S
1789468326.476942,1955,2877,7_S
1789468326.47949,1577,2878,7_S
1789468326.480543,2040,2878,7_S
1789468326.483097,2312,2880,7_S
1789468326.4853199,2309,2880,7_S
1789468326.486612,2256,2880,7_S
1789468326.4891598,1850,2877,7_S
1789468326.4914482,1680,2878,7_S
1789468326.492492,2262,2881,7_S
1789468326.495039,1966,2877,7_S
1789468326.497268,2324,2880,7_S
1789468326.498559,2404,2880,7_S
1789468326.5042188,2741,2882,7_S
1789468326.504597,2318,2880,7_S
1789468326.505037,949,2876,7_S
1789468326.5068002,1601,2878,7_S
1789468326.509569,2676,2882,7_S
1789468326.511762,2602,2881,7_S
1789468326.514814,1886,2878,7_S
1789468326.5149481,1757,2877,7_S
1789468326.517044,1986,2881,7_S
1789468326.519609,2182,2879,7_S
1789468326.52066,2068,2878,7_S
1789468326.5269032,2516,2881,7_S
1789468326.527283,2335,2881,7_S
1789468326.527381,2260,2881,7_S
1789468326.529365,1991,2878,7_S
1789468326.5308092,1893,2878,7_S
1789468326.5342872,1932,2878,7_S
1789468326.53735,1787,2878,7_S
1789468326.537471,2436,2879,7_S
1789468326.539392,2262,2880,7_S
1789468326.540591,1740,2876,7_S
1789468326.543139,2006,2878,7_S
1789468326.545452,2299,2880,7_S
1789468326.5467699,2197,2881,7_S
1789468326.549091,1943,2878,7_S
1789468326.550499,1919,2878,7_S
1789468326.553055,2350,2879,7_S
1789468326.555608,2076,2879,7_S
1789468326.5569,1809,2877,7_S
1789468326.559445,2098,2878,7_S
1789468326.560661,2135,2881,7_S
1789468326.56321,2079,2878,7_S
1789468326.565332,2086,2881,7_S
1789468326.566484,2101,2879,7_S
1789468326.5687869,2039,2879,7_S
1789468326.57126,2034,2880,7_S
1789468326.5725498,2109,2880,7_S
1789468326.574986,2238,2880,7_S
1789468326.5772889,2048,2878,7_S
1789468326.57858,1907,2877,7_S
1789468326.580894,2132,2879,7_S
1789468326.583195,2225,2879,7_S
1789468326.584492,2093,2880,7_S
1789468326.586564,2059,2879,7_S
1789468326.5886688,2118,2879,7_S
1789468326.590981,2135,2880,7_S
1789468326.593528,1994,2878,7_S
1789468326.594576,1918,2878,7_S
1789468326.599234,2010,2879,7_S
1789468326.6000152,2419,2881,7_S
1789468326.601899,2214,2879,7_S
1789468326.603424,1957,2879,7_S
1789468326.604684,2055,2879,7_S
1789468326.607,2326,2879,7_S
1789468326.609911,2182,2880,7_S
1789468326.611594,1908,2878,7_S
1789468326.612895,1682,2878,7_S
1789468326.615207,2602,2881,7_S
1789468326.617513,2341,2880,7_S
1789468326.6222742,1528,2875,7_S
1789468326.6227012,2279,2879,7_S
1789468326.623148,2433,2879,7_S
1789468326.6248682,1906,2877,7_S
1789468326.6281102,2099,2878,7_S
1789468326.629761,2302,2880,7_S
1789468326.632572,2319,2880,7_S
1789468326.632721,1784,2875,7_S
1789468326.635336,1878,2876,7_S
1789468326.636478,2023,2878,7_S
1789468326.638794,1814,2877,7_S
1789468326.641338,2396,2880,7_S
1789468326.6426508,2320,2880,7_S
1789468326.6452138,1569,2877,7_S
1789468326.647627,1766,2877,7_S
1789468326.6486862,2352,2880,7_S
1789468326.6512341,2597,2881,7_S
1789468326.653549,1910,2879,7_S
1789468326.654602,2033,2879,7_S
1789468326.657147,2294,2879,7_S
1789468326.6592078,2157,2879,7_S
1789468326.660497,1991,2878,7_S
1789468326.6630442,2065,2878,7_S
1789468326.665348,1991,2878,7_S
1789468326.666465,1859,2878,7_S
1789468326.668766,2293,2881,7_S
1789468326.671277,1993,2878,7_S
1789468326.672568,1968,2879,7_S
1789468326.67487,2032,2877,7_S
1789468326.677118,1837,2878,7_S
1789468326.679428,1807,2878,7_S
1789468326.6807182,1947,2879,7_S
1789468326.683264,2195,2881,7_S
1789468326.684553,2203,2880,7_S
1789468326.68661,2068,2879,7_S
1789468326.688683,2229,2879,7_S
1789468326.69413,1688,2878,7_S
1789468326.694572,2031,2878,7_S
1789468326.6950998,2596,2881,7_S
1789468326.697226,2290,2880,7_S
1789468326.699148,1976,2878,7_S
1789468326.700755,1618,2877,7_S
1789468326.705033,2440,2881,7_S
1789468326.705111,2193,2878,7_S
1789468326.707148,1392,2876,7_S
1789468326.7084858,1644,2877,7_S
1789468326.711037,2885,2881,7_S
1789468326.713352,2170,2881,7_S
1789468326.717652,1249,2876,7_S
1789468326.718088,2887,2881,7_S
1789468326.720187,2325,2880,7_S
1789468326.7220101,1831,2876,7_S
1789468326.72367,1844,2877,7_S
1789468326.725324,2535,2880,7_S
1789468326.72816,1690,2877,7_S
1789468326.73026,2053,2877,7_S
1789468326.7315562,1832,2877,7_S
1789468326.73261,1910,2877,7_S
1789468326.73492,2406,2881,7_S
1789468326.737483,1740,2876,7_S
1789468326.738783,948,2875,7_S
1789468326.741322,2313,2880,7_S
1789468326.742614,1747,2877,7_S
1789468326.7449238,1937,2877,7_S
1789468326.7474759,2324,2880,7_S
1789468326.748765,2588,2880,7_S
1789468326.751009,2027,2879,7_S
1789468326.7535539,1843,2876,7_S
1789468326.7546,2009,2876,7_S
1789468326.7571461,2168,2878,7_S
1789468326.758441,1473,2878,7_S
1789468326.76052,1736,2878,7_S
1789468326.762988,2497,2879,7_S
1789468326.765567,2047,2879,7_S
1789468326.766863,2057,2879,7_S
1789468326.769171,930,2877,7_S
1789468326.771494,1469,2878,7_S
1789468326.772539,2477,2882,7_S
1789468326.774858,2288,2880,7_S
1789468326.776948,2045,2878,7_S
1789468326.779017,1849,2878,7_S
1789468326.7813241,1487,2877,7_S
1789468326.7826161,1591,2877,7_S
1789468326.7851672,2251,2880,7_S
1789468326.79076,1966,2876,7_S
1789468326.792725,1762,2877,7_S
1789468326.792922,2303,2880,7_S
1789468326.793112,1744,2877,7_S
1789468326.794542,1540,2877,7_S
1789468326.798603,1569,2877,7_S
1789468326.801138,2237,2879,7_S
1789468326.801373,2009,2879,7_S
1789468326.803396,1681,2877,7_S
1789468326.804476,1746,2877,7_S
1789468326.806827,1858,2877,7_S
1789468326.809227,1933,2876,7_S
1789468326.813909,1819,2877,7_S
1789468326.8143868,1877,2877,7_S
1789468326.8148139,1605,2877,7_S
1789468326.81816,1987,2878,7_S
1789468326.820065,1838,2876,7_S
1789468326.824131,1695,2876,7_S
1789468326.824385,1742,2877,7_S
1789468326.824573,1906,2877,7_S
1789468326.827358,1444,2876,7_S
1789468326.828651,1703,2878,7_S
1789468326.831203,1991,2876,7_S
1789468326.8335109,1832,2876,7_S
1789468326.83456,1769,2877,7_S
1789468326.837118,1960,2880,7_S
1789468326.839442,1925,2876,7_S
1789468326.840737,1976,2877,7_S
1789468326.843286,1892,2877,7_S
1789468326.845609,1835,2878,7_S
1789468326.8469021,1764,2878,7_S
1789468326.8492029,1735,2877,7_S
1789468326.8505,1458,2876,7_S
1789468326.8528209,1459,2876,7_S
1789468326.855371,1709,2877,7_S
1789468326.8564851,1820,2878,7_S
1789468326.859034,1900,2878,7_S
1789468326.861093,1553,2877,7_S
