timestamp,ch1,ch2,label
1789467880.049458,2117,2879,ɔ
1789467880.0520582,2072,2877,ɔ
1789467880.052278,1934,2878,ɔ
1789467880.0547788,1975,2879,ɔ
1789467880.056779,2192,2879,ɔ
1789467880.059244,2110,2879,ɔ
1789467880.060292,2122,2879,ɔ
1789467880.062606,1831,2876,ɔ
1789467880.064727,1978,2879,ɔ
1789467880.0660312,2255,2881,ɔ
1789467880.0686111,2000,2878,ɔ
1789467880.070671,2050,2877,ɔ
1789467880.071976,2209,2881,ɔ
1789467880.0745249,2114,2879,ɔ
1789467880.07708,2066,2880,ɔ
1789467880.07812,2109,2880,ɔ
1789467880.0804238,2068,2880,ɔ
1789467880.083303,2066,2880,ɔ
1789467880.084661,2060,2878,ɔ
1789467880.088715,1958,2878,ɔ
1789467880.089139,2031,2878,ɔ
1789467880.091103,2028,2878,ɔ
1789467880.0927842,2183,2880,ɔ
1789467880.094579,2112,2879,ɔ
1789467880.0979562,2093,2878,ɔ
1789467880.098093,2121,2879,ɔ
1789467880.100396,1985,2877,ɔ
1789467880.102498,1931,2879,ɔ
1789467880.1050618,1994,2879,ɔ
1789467880.106115,2186,2880,ɔ
1789467880.108415,2228,2880,ɔ
1789467880.110958,1948,2878,ɔ
1789467880.112179,2115,2879,ɔ
1789467880.1147242,2231,2880,ɔ
1789467880.116009,2161,2881,ɔ
1789467880.118303,1985,2879,ɔ
1789467880.120852,2093,2879,ɔ
1789467880.122136,2115,2879,ɔ
1789467880.1262982,2054,2879,ɔ
1789467880.1266508,2004,2879,ɔ
1789467880.1281211,1981,2879,ɔ
1789467880.1311848,2056,2878,ɔ
1789467880.1328251,2141,2879,ɔ
1789467880.134194,2074,2878,ɔ
1789467880.136301,2019,2878,ɔ
1789467880.138609,2060,2879,ɔ
1789467880.1409721,2189,2880,ɔ
1789467880.142026,2115,2879,ɔ
1789467880.144332,2113,2878,ɔ
1789467880.146635,2149,2879,ɔ
1789467880.14792,2034,2879,ɔ
1789467880.150461,2062,2878,ɔ
1789467880.1529999,2024,2878,ɔ
1789467880.154043,2204,2879,ɔ
1789467880.15634,2167,2879,ɔ
1789467880.158814,2109,2879,ɔ
1789467880.1630678,1982,2878,ɔ
1789467880.163465,1898,2879,ɔ
1789467880.165343,2055,2879,ɔ
1789467880.1670809,2158,2879,ɔ
1789467880.169478,2093,2879,ɔ
1789467880.171434,2108,2879,ɔ
1789467880.172729,2075,2879,ɔ
1789467880.174017,2079,2877,ɔ
1789467880.176458,2154,2880,ɔ
1789467880.179011,1999,2878,ɔ
1789467880.180298,2036,2879,ɔ
1789467880.182614,2013,2880,ɔ
1789467880.184923,1845,2878,ɔ
1789467880.185981,2109,2879,ɔ
1789467880.188524,2154,2878,ɔ
1789467880.1907232,2166,2881,ɔ
1789467880.193077,2220,2880,ɔ
1789467880.194131,2052,2879,ɔ
1789467880.196672,2058,2879,ɔ
1789467880.197963,2114,2879,ɔ
1789467880.200396,2057,2878,ɔ
1789467880.2056031,1994,2879,ɔ
1789467880.2058308,2075,2879,ɔ
1789467880.2071302,2121,2879,ɔ
1789467880.208637,2093,2879,ɔ
1789467880.210708,1988,2879,ɔ
1789467880.212188,1936,2878,ɔ
1789467880.214741,2122,2879,ɔ
1789467880.21604,2183,2880,ɔ
1789467880.218322,2016,2878,ɔ
1789467880.220742,1983,2878,ɔ
1789467880.2220302,2123,2879,ɔ
1789467880.224572,2248,2880,ɔ
1789467880.227096,2057,2879,ɔ
1789467880.2281358,1949,2878,ɔ
1789467880.23019,2176,2879,ɔ
1789467880.2327318,2086,2880,ɔ
1789467880.23402,2001,2878,ɔ
1789467880.236444,2061,2878,ɔ
1789467880.241848,2120,2878,ɔ
1789467880.242582,2206,2880,ɔ
1789467880.244169,2105,2879,ɔ
1789467880.244363,2000,2878,ɔ
1789467880.246163,2004,2878,ɔ
1789467880.2487838,2134,2878,ɔ
1789467880.25177,2119,2879,ɔ
1789467880.251909,1998,2878,ɔ
1789467880.254425,1962,2880,ɔ
1789467880.256783,2051,2879,ɔ
1789467880.2580779,2084,2880,ɔ
1789467880.260538,2114,2879,ɔ
1789467880.263104,2123,2879,ɔ
1789467880.2641559,2148,2878,ɔ
1789467880.26671,2162,2880,ɔ
1789467880.268003,2064,2877,ɔ
1789467880.270064,2022,2878,ɔ
1789467880.27261,2015,2879,ɔ
1789467880.274698,1993,2878,ɔ
1789467880.275983,2133,2879,ɔ
1789467880.2784681,2086,2879,ɔ
1789467880.282516,2059,2879,ɔ
1789467880.283394,2067,2879,ɔ
1789467880.285196,2010,2878,ɔ
1789467880.286887,1993,2878,ɔ
1789467880.288494,2161,2879,ɔ
1789467880.2899258,2198,2880,ɔ
1789467880.2924092,2137,2881,ɔ
1789467880.294728,2114,2878,ɔ
1789467880.29706,2032,2878,ɔ
1789467880.298337,2080,2881,ɔ
1789467880.300873,2057,2877,ɔ
1789467880.3019269,2032,2878,ɔ
1789467880.3039901,2064,2878,ɔ
1789467880.30606,2136,2878,ɔ
1789467880.3086028,2137,2879,ɔ
1789467880.310913,2094,2879,ɔ
1789467880.3119638,2003,2878,ɔ
1789467880.314034,2010,2878,ɔ
1789467880.3164768,2139,2878,ɔ
1789467880.3191848,1995,2878,ɔ
1789467880.323167,1988,2879,ɔ
1789467880.323601,2148,2880,ɔ
1789467880.325727,2005,2877,ɔ
1789467880.327355,1939,2877,ɔ
1789467880.3288069,2134,2878,ɔ
1789467880.330312,2137,2879,ɔ
1789467880.333251,2158,2880,ɔ
1789467880.334471,2026,2877,ɔ
1789467880.336948,1802,2878,ɔ
1789467880.338242,2103,2880,ɔ
1789467880.3406038,2184,2880,ɔ
1789467880.342776,2305,2879,ɔ
1789467880.343904,2129,2879,ɔ
1789467880.346501,1992,2879,ɔ
1789467880.349068,2099,2879,ɔ
1789467880.350385,2120,2881,ɔ
1789467880.352703,2014,2878,ɔ
1789467880.3539991,2097,2879,ɔ
1789467880.356545,2164,2879,ɔ
1789467880.3579369,2103,2880,ɔ
1789467880.360321,1990,2879,ɔ
1789467880.366642,1968,2879,ɔ
1789467880.367129,2043,2878,ɔ
1789467880.368635,2121,2879,ɔ
1789467880.368771,2039,2877,ɔ
1789467880.370464,2018,2879,ɔ
1789467880.374294,2113,2879,ɔ
1789467880.3744,2152,2879,ɔ
1789467880.3763149,2098,2880,ɔ
1789467880.3786292,2057,2878,ɔ
1789467880.3799198,2045,2879,ɔ
1789467880.385556,2129,2879,ɔ
1789467880.386053,2044,2878,ɔ
1789467880.386446,1990,2880,ɔ
1789467880.3880901,2085,2879,ɔ
1789467880.391021,2167,2881,ɔ
1789467880.392616,2112,2880,ɔ
1789467880.395493,2053,2878,ɔ
1789467880.3967109,2039,2878,ɔ
1789467880.3979032,2092,2880,ɔ
1789467880.400449,2097,2879,ɔ
1789467880.4027011,1981,2878,ɔ
1789467880.403996,2011,2878,ɔ
1789467880.4062982,2129,2878,ɔ
1789467880.408861,2189,2879,ɔ
1789467880.409912,2055,2879,ɔ
1789467880.412214,2018,2878,ɔ
1789467880.414273,2043,2878,ɔ
1789467880.4166558,2122,2879,ɔ
1789467880.418983,2043,2878,ɔ
1789467880.42004,2047,2879,ɔ
1789467880.422487,2161,2879,ɔ
1789467880.428389,2139,2880,ɔ
1789467880.429871,2078,2880,ɔ
1789467880.4301739,2008,2879,ɔ
1789467880.430341,2036,2879,ɔ
1789467880.433151,2187,2880,ɔ
1789467880.434956,2115,2882,ɔ
1789467880.4373682,1955,2879,ɔ
1789467880.438981,1969,2880,ɔ
1789467880.4400342,2126,2879,ɔ
1789467880.4425302,2200,2881,ɔ
1789467880.4472141,2096,2879,ɔ
1789467880.447757,2040,2879,ɔ
1789467880.449617,2103,2879,ɔ
1789467880.451529,2073,2880,ɔ
1789467880.4541671,2036,2879,ɔ
1789467880.455327,2112,2878,ɔ
1789467880.456832,2182,2879,ɔ
1789467880.457917,2119,2881,ɔ
1789467880.460191,1922,2877,ɔ
1789467880.462552,2080,2880,ɔ
1789467880.464642,2154,2879,ɔ
1789467880.467059,2153,2879,ɔ
1789467880.4683678,2006,2878,ɔ
1789467880.470933,2029,2880,ɔ
1789467880.47199,2287,2882,ɔ
1789467880.4742908,2127,2881,ɔ
1789467880.476358,1933,2877,ɔ
1789467880.478632,1983,2880,ɔ
1789467880.480704,2145,2880,ɔ
1789467880.482989,2106,2880,ɔ
1789467880.484304,1977,2878,ɔ
1789467880.488773,2008,2878,ɔ
1789467880.4892821,2129,2879,ɔ
1789467880.491325,2251,2881,ɔ
1789467880.4931169,2098,2880,ɔ
1789467880.494942,2118,2878,ɔ
1789467880.496331,2041,2878,ɔ
1789467880.4990458,2137,2881,ɔ
1789467880.500417,2047,2880,ɔ
1789467880.503144,1929,2878,ɔ
1789467880.504447,2013,2879,ɔ
1789467880.50652,2094,2879,ɔ
1789467880.508828,2064,2877,ɔ
1789467880.51012,2138,2880,ɔ
1789467880.512672,2145,2879,ɔ
1789467880.514951,2030,2878,ɔ
1789467880.516068,2135,2879,ɔ
1789467880.518185,2048,2877,ɔ
1789467880.520449,2040,2878,ɔ
1789467880.522746,2127,2878,ɔ
1789467880.525065,2181,2880,ɔ
1789467880.526119,2126,2879,ɔ
1789467880.528238,2081,2878,ɔ
1789467880.533003,2080,2878,ɔ
1789467880.53311,2133,2879,ɔ
1789467880.534615,2039,2878,ɔ
1789467880.5374699,2007,2878,ɔ
1789467880.538978,2100,2878,ɔ
1789467880.540649,2161,2878,ɔ
1789467880.542057,2111,2878,ɔ
1789467880.544915,2056,2877,ɔ
1789467880.546228,2034,2878,ɔ
1789467880.549313,2102,2877,ɔ
1789467880.550635,2060,2878,ɔ
1789467880.5519319,2021,2878,ɔ
1789467880.554498,2060,2879,ɔ
1789467880.5565739,2160,2878,ɔ
1789467880.558655,2120,2880,ɔ
1789467880.559968,2045,2879,ɔ
1789467880.562146,2020,2878,ɔ
1789467880.564461,2031,2879,ɔ
1789467880.566533,2165,2880,ɔ
1789467880.568607,2021,2878,ɔ
1789467880.57092,1997,2879,ɔ
1789467880.5719948,2132,2879,ɔ
1789467880.578511,2219,2881,ɔ
1789467880.5794408,2157,2880,ɔ
1789467880.5795689,2083,2878,ɔ
1789467880.581144,2081,2878,ɔ
1789467880.5841532,2159,2880,ɔ
1789467880.584861,2077,2878,ɔ
1789467880.586278,2044,2878,ɔ
1789467880.58946,2092,2879,ɔ
1789467880.59078,2107,2877,ɔ
1789467880.592992,2037,2879,ɔ
1789467880.5941498,2052,2879,ɔ
1789467880.596386,1951,2878,ɔ
1789467880.59871,2183,2879,ɔ
1789467880.600013,2274,2879,ɔ
1789467880.6023302,2050,2878,ɔ
1789467880.604887,2154,2878,ɔ
1789467880.605939,2205,2881,ɔ
1789467880.6086369,2180,2879,ɔ
1789467880.610913,2093,2880,ɔ
1789467880.611956,2006,2879,ɔ
1789467880.6140292,2014,2878,ɔ
1789467880.616547,2149,2880,ɔ
1789467880.617929,1993,2877,ɔ
1789467880.623611,2065,2879,ɔ
1789467880.624167,2051,2879,ɔ
1789467880.624654,2177,2881,ɔ
1789467880.628056,2162,2879,ɔ
1789467880.629225,2075,2879,ɔ
1789467880.632033,2067,2879,ɔ
1789467880.633527,2208,2879,ɔ
1789467880.635505,2021,2878,ɔ
1789467880.63681,1916,2879,ɔ
1789467880.6379142,2165,2879,ɔ
1789467880.6402419,2110,2877,ɔ
1789467880.642808,2088,2879,ɔ
1789467880.6439118,2207,2879,ɔ
1789467880.645995,2166,2877,ɔ
1789467880.648396,2134,2880,ɔ
1789467880.650736,2124,2879,ɔ
1789467880.6520221,1866,2878,ɔ
1789467880.6543381,2105,2879,ɔ
1789467880.6568918,2132,2878,ɔ
1789467880.6579578,2089,2880,ɔ
1789467880.66006,2034,2879,ɔ
1789467880.662175,1940,2879,ɔ
1789467880.664507,2094,2878,ɔ
1789467880.665893,2248,2879,ɔ
1789467880.6710558,1985,2877,ɔ
1789467880.671964,1963,2879,ɔ
1789467880.672458,2197,2880,ɔ
1789467880.67415,2206,2880,ɔ
1789467880.677081,1979,2877,ɔ
1789467880.679314,2316,2879,ɔ
1789467880.680938,2074,2879,ɔ
1789467880.682841,2020,2879,ɔ
1789467880.6839612,1833,2878,ɔ
1789467880.686454,1937,2879,ɔ
1789467880.694926,2122,2879,ɔ
1789467880.695173,2205,2879,ɔ
1789467880.696894,2074,2880,ɔ
1789467880.697383,1998,2878,ɔ
1789467880.6979,2001,2878,ɔ
1789467880.6992261,2074,2880,ɔ
1789467880.7030709,2083,2879,ɔ
1789467880.703229,2044,2877,ɔ
1789467880.705461,2022,2880,ɔ
1789467880.70679,2140,2879,ɔ
1789467880.708089,2243,2881,ɔ
1789467880.710654,2097,2879,ɔ
1789467880.712727,1901,2878,ɔ
1789467880.714827,1971,2879,ɔ
1789467880.716146,2002,2878,ɔ
1789467880.718453,1994,2878,ɔ
1789467880.720534,2083,2879,ɔ
1789467880.7228,2136,2879,ɔ
1789467880.7238998,2111,2881,ɔ
1789467880.726219,2046,2880,ɔ
1789467880.728543,2045,2877,ɔ
1789467880.729929,2061,2879,ɔ
1789467880.732249,2171,2879,ɔ
1789467880.734658,2052,2879,ɔ
1789467880.7406578,2115,2878,ɔ
1789467880.7411342,2084,2878,ɔ
1789467880.7415528,2099,2878,ɔ
1789467880.743662,2176,2879,ɔ
1789467880.74684,2125,2878,ɔ
1789467880.747675,1999,2877,ɔ
1789467880.751989,2076,2880,ɔ
1789467880.752234,2166,2880,ɔ
1789467880.752386,1941,2877,ɔ
1789467880.754517,1956,2878,ɔ
1789467880.7559412,2082,2878,ɔ
1789467880.758083,2059,2880,ɔ
1789467880.7633631,1944,2879,ɔ
1789467880.7639868,2061,2879,ɔ
1789467880.764527,2129,2878,ɔ
1789467880.766198,2229,2879,ɔ
1789467880.7693708,2091,2877,ɔ
1789467880.771531,1838,2877,ɔ
1789467880.773228,1896,2879,ɔ
1789467880.77525,2086,2879,ɔ
1789467880.7763221,2192,2879,ɔ
1789467880.778879,2183,2879,ɔ
1789467880.779935,2105,2879,ɔ
1789467880.782022,2029,2879,ɔ
1789467880.784332,1849,2878,ɔ
1789467880.786654,2058,2879,ɔ
1789467880.787918,2277,2878,ɔ
1789467880.7903318,2085,2878,ɔ
1789467880.792887,2132,2879,ɔ
1789467880.7941818,2027,2878,ɔ
1789467880.796496,1992,2879,ɔ
1789467880.799194,2154,2878,ɔ
1789467880.800493,2280,2879,ɔ
1789467880.802815,1968,2878,ɔ
1789467880.804085,1743,2878,ɔ
1789467880.810252,2249,2878,ɔ
1789467880.8111172,2106,2879,ɔ
1789467880.811573,2025,2879,ɔ
1789467880.813198,1848,2877,ɔ
1789467880.8152661,1940,2879,ɔ
1789467880.816725,2212,2880,ɔ
1789467880.818916,2238,2881,ɔ
1789467880.8206642,2079,2878,ɔ
1789467880.822975,2427,2881,ɔ
1789467880.824276,2216,2880,ɔ
1789467880.830912,1638,2877,ɔ
1789467880.831021,2205,2879,ɔ
1789467880.831861,2142,2877,ɔ
1789467880.83233,1892,2876,ɔ
1789467880.835383,1732,2877,ɔ
1789467880.837367,1716,2876,ɔ
1789467880.838845,2245,2879,ɔ
1789467880.840698,2159,2879,ɔ
1789467880.842417,2214,2880,ɔ
1789467880.844875,2167,2878,ɔ
1789467880.8459342,2004,2879,ɔ
1789467880.8482602,2119,2879,ɔ
1789467880.850646,2048,2876,ɔ
1789467880.851949,2065,2878,ɔ
1789467880.854017,2038,2878,ɔ
1789467880.856396,2065,2877,ɔ
1789467880.8589609,2050,2878,ɔ
1789467880.8600152,2050,2877,ɔ
1789467880.862089,1990,2877,ɔ
1789467880.864643,2134,2879,ɔ
1789467880.866709,2216,2879,ɔ
1789467880.869025,1950,2876,ɔ
1789467880.8703191,1972,2878,ɔ
1789467880.872631,2162,2879,ɔ
1789467880.877345,2224,2880,ɔ
1789467880.877934,2011,2878,ɔ
1789467880.878782,2093,2878,ɔ
1789467880.8802612,1976,2878,ɔ
1789467880.884325,2055,2879,ɔ
1789467880.884854,2149,2880,ɔ
1789467880.886401,1893,2878,ɔ
1789467880.888314,2004,2878,ɔ
1789467880.890578,2016,2877,ɔ
1789467880.891928,2158,2879,ɔ
1789467880.897789,2055,2877,ɔ
1789467880.898252,1852,2875,ɔ
1789467880.8995001,2061,2879,ɔ
1789467880.900739,1853,2877,ɔ
1789467880.902591,2022,2877,ɔ
1789467880.904212,2204,2878,ɔ
1789467880.906014,2198,2880,ɔ
1789467880.909803,1772,2877,ɔ
1789467880.9099,2069,2878,ɔ
1789467880.912213,2121,2879,ɔ
1789467880.914772,2107,2880,ɔ
1789467880.915915,2069,2879,ɔ
1789467880.918493,1936,2877,ɔ
1789467880.920752,2002,2878,ɔ
1789467880.921929,2153,2878,ɔ
1789467880.924407,2049,2879,ɔ
1789467880.9267242,2062,2879,ɔ
1789467880.928016,1920,2877,ɔ
1789467880.930336,2003,2879,ɔ
1789467880.932927,2075,2878,ɔ
1789467880.93398,1924,2878,ɔ
1789467880.936053,1965,2878,ɔ
1789467880.938359,1754,2878,ɔ
1789467880.944625,2007,2877,ɔ
1789467880.944751,2424,2879,ɔ
1789467880.945287,2214,2877,ɔ
1789467880.947544,1780,2875,ɔ
1789467880.949244,1861,2876,ɔ
1789467880.950909,2090,2877,ɔ
1789467880.9531991,2077,2877,ɔ
1789467880.955297,2033,2878,ɔ
1789467880.957118,2027,2877,ɔ
1789467880.9584372,2147,2878,ɔ
1789467880.9607549,2063,2878,ɔ
1789467880.965339,1964,2879,ɔ
1789467880.966224,1975,2879,ɔ
1789467880.966676,2201,2879,ɔ
1789467880.968426,2079,2876,ɔ
1789467880.970389,2137,2879,ɔ
1789467880.973587,2009,2879,ɔ
1789467880.9756548,2000,2877,ɔ
1789467880.977875,1973,2879,ɔ
1789467880.977969,1976,2878,ɔ
1789467880.980043,1994,2877,ɔ
1789467880.982531,2173,2879,ɔ
1789467880.983928,2046,2877,ɔ
1789467880.986285,1971,2878,ɔ
1789467880.9886642,2009,2878,ɔ
1789467880.990968,2147,2881,ɔ
1789467880.992262,2167,2880,ɔ
1789467880.994727,2107,2877,ɔ
1789467880.997047,2082,2879,ɔ
1789467880.998348,2064,2879,ɔ
1789467881.000661,2093,2880,ɔ
1789467881.001958,1915,2878,ɔ
1789467881.0042791,2107,2878,ɔ
1789467881.006855,2228,2880,ɔ
1789467881.008202,2145,2879,ɔ
1789467881.0126011,2092,2878,ɔ
1789467881.01316,2135,2878,ɔ
1789467881.015687,2009,2880,ɔ
1789467881.0188532,2167,2879,ɔ
1789467881.018979,2036,2878,ɔ
1789467881.021771,2014,2879,ɔ
1789467881.023974,2170,2879,ɔ
1789467881.0241768,2266,2880,ɔ
1789467881.026422,2213,2880,ɔ
1789467881.0287402,2003,2878,ɔ
1789467881.030037,2035,2877,ɔ
1789467881.034296,2123,2879,ɔ
1789467881.0351412,2097,2878,ɔ
1789467881.037038,2034,2878,ɔ
1789467881.0390599,2220,2881,ɔ
1789467881.040996,2307,2880,ɔ
1789467881.042429,2170,2879,ɔ
1789467881.0445461,2235,2878,ɔ
1789467881.046688,2233,2880,ɔ
1789467881.048789,2416,2880,ɔ
1789467881.049984,2314,2881,ɔ
1789467881.052567,1966,2878,ɔ
1789467881.0548851,2023,2878,ɔ
1789467881.056179,2465,2881,ɔ
1789467881.058729,2354,2881,ɔ
1789467881.060023,2330,2879,ɔ
1789467881.0625799,2179,2879,ɔ
1789467881.063926,1830,2877,ɔ
1789467881.0660748,2159,2880,ɔ
1789467881.068511,2206,2879,ɔ
1789467881.070832,2228,2879,ɔ
1789467881.071925,2107,2877,ɔ
1789467881.074235,2193,2879,ɔ
1789467881.0765781,2082,2879,ɔ
1789467881.081185,1993,2878,ɔ
1789467881.082211,2035,2878,ɔ
1789467881.083051,2215,2880,ɔ
1789467881.0847402,1943,2878,ɔ
1789467881.0863419,2050,2880,ɔ
1789467881.09,1909,2878,ɔ
1789467881.090094,2192,2881,ɔ
1789467881.0923772,2176,2880,ɔ
1789467881.0946748,1928,2879,ɔ
1789467881.095923,1946,2879,ɔ
1789467881.098523,2620,2881,ɔ
1789467881.105393,2173,2880,ɔ
1789467881.1056051,1889,2879,ɔ
1789467881.1057248,2101,2879,ɔ
1789467881.106969,2043,2879,ɔ
1789467881.10868,1958,2878,ɔ
1789467881.113172,1996,2879,ɔ
1789467881.113357,2013,2878,ɔ
1789467881.115596,2114,2879,ɔ
1789467881.116648,2236,2880,ɔ
1789467881.118973,2014,2878,ɔ
1789467881.120029,2043,2879,ɔ
1789467881.122093,2284,2882,ɔ
1789467881.124404,2288,2880,ɔ
1789467881.1269052,2062,2880,ɔ
1789467881.1279628,2099,2879,ɔ
1789467881.130471,2012,2878,ɔ
1789467881.131922,1882,2877,ɔ
1789467881.1342359,2189,2880,ɔ
1789467881.136789,2021,2878,ɔ
1789467881.137909,1977,2878,ɔ
1789467881.1399648,2141,2879,ɔ
1789467881.1425128,2116,2879,ɔ
1789467881.144873,2126,2879,ɔ
1789467881.1461709,1986,2879,ɔ
1789467881.151131,2018,2880,ɔ
1789467881.151566,2094,2880,ɔ
1789467881.1537511,2127,2879,ɔ
1789467881.1555562,1992,2878,ɔ
1789467881.1571882,1902,2879,ɔ
1789467881.159335,2117,2881,ɔ
1789467881.1616268,2043,2878,ɔ
1789467881.163625,2226,2879,ɔ
1789467881.164692,2060,2879,ɔ
1789467881.165927,2106,2879,ɔ
1789467881.171008,1912,2878,ɔ
1789467881.172205,1870,2879,ɔ
1789467881.172693,2259,2879,ɔ
1789467881.1743,2174,2880,ɔ
1789467881.1770391,2030,2880,ɔ
1789467881.17933,2170,2879,ɔ
1789467881.181705,1882,2879,ɔ
1789467881.183468,1997,2878,ɔ
1789467881.1847732,2047,2878,ɔ
1789467881.185917,2166,2879,ɔ
1789467881.18799,1962,2879,ɔ
1789467881.190065,2087,2878,ɔ
1789467881.192618,2091,2880,ɔ
1789467881.193962,1811,2877,ɔ
1789467881.19644,1820,2876,ɔ
1789467881.198826,2035,2880,ɔ
1789467881.199904,1937,2879,ɔ
1789467881.2022321,2103,2877,ɔ
1789467881.204544,2020,2879,ɔ
1789467881.2059252,2062,2878,ɔ
1789467881.20825,2033,2879,ɔ
1789467881.210798,1894,2878,ɔ
1789467881.211921,1764,2876,ɔ
1789467881.214494,2105,2879,ɔ
1789467881.219341,2116,2879,ɔ
1789467881.220334,1847,2879,ɔ
1789467881.220427,2212,2881,ɔ
1789467881.222392,2141,2878,ɔ
1789467881.2253,2043,2877,ɔ
1789467881.227852,2170,2881,ɔ
1789467881.230141,2153,2879,ɔ
1789467881.23073,2259,2880,ɔ
1789467881.232738,1924,2877,ɔ
1789467881.23388,2069,2879,ɔ
1789467881.236387,1672,2877,ɔ
1789467881.2417128,1761,2878,ɔ
1789467881.241823,1988,2878,ɔ
1789467881.2435892,2283,2880,ɔ
1789467881.2454011,1796,2878,ɔ
1789467881.247175,2044,2879,ɔ
1789467881.251533,2378,2880,ɔ
1789467881.251681,1667,2877,ɔ
1789467881.253449,1771,2878,ɔ
1789467881.254518,1897,2879,ɔ
1789467881.256895,2179,2877,ɔ
1789467881.257958,1950,2877,ɔ
1789467881.2602859,1985,2880,ɔ
1789467881.262851,1880,2878,ɔ
1789467881.263915,2020,2877,ɔ
1789467881.26633,2035,2878,ɔ
1789467881.2684128,1730,2878,ɔ
1789467881.270723,2117,2880,ɔ
1789467881.271917,2354,2880,ɔ
1789467881.2744691,2169,2881,ɔ
1789467881.276979,1895,2877,ɔ
1789467881.2782762,1856,2879,ɔ
1789467881.280412,1755,2878,ɔ
1789467881.282662,1943,2878,ɔ
1789467881.284147,2205,2880,ɔ
1789467881.2892349,1916,2878,ɔ
1789467881.290636,1812,2878,ɔ
1789467881.292375,2106,2878,ɔ
1789467881.2926059,2209,2880,ɔ
1789467881.297764,2121,2880,ɔ
1789467881.3002398,1904,2879,ɔ
1789467881.3004742,2023,2880,ɔ
1789467881.30064,2083,2879,ɔ
1789467881.3027892,2097,2878,ɔ
1789467881.304102,2253,2880,ɔ
1789467881.306467,2182,2881,ɔ
1789467881.3119192,1825,2877,ɔ
1789467881.313653,1919,2877,ɔ
1789467881.315445,2019,2880,ɔ
1789467881.3167942,2147,2879,ɔ
1789467881.317261,1981,2877,ɔ
1789467881.31935,1904,2879,ɔ
1789467881.321928,1937,2878,ɔ
1789467881.3223412,2101,2877,ɔ
1789467881.32505,1915,2877,ɔ
1789467881.326102,2044,2879,ɔ
1789467881.328408,2173,2880,ɔ
1789467881.330855,1850,2877,ɔ
1789467881.332154,2041,2879,ɔ
1789467881.33423,2011,2878,ɔ
1789467881.3367932,1989,2878,ɔ
1789467881.33791,2025,2878,ɔ
1789467881.339993,2128,2880,ɔ
1789467881.342081,2035,2879,ɔ
1789467881.3446422,1943,2879,ɔ
1789467881.345942,2381,2879,ɔ
1789467881.3482602,1960,2879,ɔ
1789467881.350538,1962,2878,ɔ
1789467881.351972,2090,2879,ɔ
1789467881.354311,1643,2878,ɔ
1789467881.3590899,1972,2879,ɔ
1789467881.3596811,2162,2880,ɔ
1789467881.362155,2034,2879,ɔ
1789467881.362266,1938,2879,ɔ
1789467881.3641942,2195,2879,ɔ
1789467881.367569,1924,2877,ɔ
1789467881.369874,1854,2880,ɔ
1789467881.3700302,2221,2879,ɔ
1789467881.37296,2367,2881,ɔ
1789467881.374122,1787,2877,ɔ
1789467881.380023,1948,2878,ɔ
1789467881.380476,2095,2879,ɔ
1789467881.381336,2067,2880,ɔ
1789467881.383021,2080,2880,ɔ
1789467881.384587,2062,2879,ɔ
1789467881.386542,2089,2879,ɔ
1789467881.388294,1973,2880,ɔ
1789467881.390652,2055,2879,ɔ
1789467881.392854,2173,2879,ɔ
1789467881.3941529,2183,2879,ɔ
1789467881.3964632,2106,2879,ɔ
1789467881.398805,1962,2879,ɔ
1789467881.400106,1956,2879,ɔ
1789467881.402394,1870,2879,ɔ
1789467881.4046762,2378,2881,ɔ
1789467881.406989,2004,2878,ɔ
1789467881.4080372,1922,2877,ɔ
1789467881.4105878,1989,2880,ɔ
1789467881.411935,1918,2878,ɔ
1789467881.414496,2057,2878,ɔ
1789467881.417181,2012,2880,ɔ
1789467881.418241,1953,2879,ɔ
1789467881.420506,2104,2879,ɔ
1789467881.422826,1983,2879,ɔ
1789467881.428055,2078,2879,ɔ
1789467881.428163,2103,2880,ɔ
1789467881.429023,1839,2878,ɔ
1789467881.431104,2090,2880,ɔ
1789467881.432898,2245,2879,ɔ
1789467881.434836,2047,2879,ɔ
1789467881.4365141,1787,2878,ɔ
1789467881.4389749,2056,2879,ɔ
1789467881.441115,2348,2880,ɔ
1789467881.442414,2220,2880,ɔ
1789467881.449344,2152,2880,ɔ
1789467881.4498959,2130,2879,ɔ
1789467881.450337,1865,2877,ɔ
1789467881.451709,2124,2881,ɔ
1789467881.45371,1872,2878,ɔ
1789467881.4554722,1972,2880,ɔ
1789467881.4572532,2108,2878,ɔ
1789467881.459695,2074,2880,ɔ
1789467881.461789,1935,2879,ɔ
1789467881.462005,1897,2878,ɔ
1789467881.464322,2059,2880,ɔ
1789467881.466887,2131,2880,ɔ
1789467881.468194,2345,2881,ɔ
1789467881.470748,1692,2877,ɔ
1789467881.471925,2034,2879,ɔ
1789467881.474229,2311,2881,ɔ
1789467881.47678,2053,2880,ɔ
1789467881.4780722,1980,2878,ɔ
1789467881.480581,2061,2879,ɔ
1789467881.482888,1825,2877,ɔ
1789467881.484048,1989,2877,ɔ
1789467881.4865432,2088,2879,ɔ
1789467881.48887,2032,2879,ɔ
1789467881.489921,2168,2881,ɔ
1789467881.492239,2051,2879,ɔ
1789467881.4973261,2037,2879,ɔ
1789467881.498166,2096,2879,ɔ
1789467881.5000498,2079,2880,ɔ
1789467881.500196,2100,2881,ɔ
1789467881.5031612,1913,2878,ɔ
1789467881.5049658,2018,2880,ɔ
1789467881.507361,2108,2878,ɔ
1789467881.509449,2136,2879,ɔ
1789467881.510751,1892,2877,ɔ
1789467881.512049,1995,2879,ɔ
1789467881.514426,2132,2880,ɔ
1789467881.516586,1971,2878,ɔ
1789467881.518899,1905,2879,ɔ
1789467881.520193,1968,2878,ɔ
1789467881.522516,2162,2878,ɔ
1789467881.524831,2013,2877,ɔ
1789467881.525915,2342,2880,ɔ
1789467881.528231,1889,2879,ɔ
1789467881.530781,2154,2879,ɔ
1789467881.5319512,2109,2880,ɔ
1789467881.534035,2028,2878,ɔ
1789467881.5363462,2007,2879,ɔ
1789467881.538655,2162,2879,ɔ
1789467881.544352,2026,2879,ɔ
1789467881.5452778,2041,2880,ɔ
1789467881.5461829,2059,2879,ɔ
1789467881.547359,2015,2879,ɔ
1789467881.550744,2054,2879,ɔ
1789467881.551605,1951,2877,ɔ
1789467881.553813,2064,2879,ɔ
1789467881.556211,1948,2879,ɔ
1789467881.556443,2063,2879,ɔ
1789467881.55809,2237,2881,ɔ
1789467881.5604212,2047,2878,ɔ
1789467881.5653381,1956,2879,ɔ
1789467881.565852,1969,2879,ɔ
1789467881.5666392,2100,2879,ɔ
1789467881.568168,1903,2878,ɔ
1789467881.5712729,2147,2879,ɔ
1789467881.57294,2370,2881,ɔ
1789467881.575157,2035,2880,ɔ
1789467881.577336,2370,2880,ɔ
1789467881.578631,2018,2878,ɔ
1789467881.579923,1963,2879,ɔ
1789467881.582013,2115,2879,ɔ
1789467881.5843358,2142,2878,ɔ
1789467881.5868852,2113,2879,ɔ
1789467881.58818,2017,2878,ɔ
1789467881.590254,2041,2877,ɔ
1789467881.5924082,1987,2879,ɔ
1789467881.594948,1982,2878,ɔ
1789467881.5962398,1843,2876,ɔ
1789467881.598297,2206,2880,ɔ
1789467881.600611,2285,2879,ɔ
1789467881.602765,2054,2877,ɔ
1789467881.604068,1787,2880,ɔ
1789467881.606205,2039,2879,ɔ
1789467881.610401,2157,2879,ɔ
1789467881.6108701,2228,2879,ɔ
1789467881.6127,2199,2879,ɔ
1789467881.6145148,1938,2878,ɔ
1789467881.616022,2263,2880,ɔ
1789467881.6200268,1977,2878,ɔ
1789467881.6201239,2094,2879,ɔ
1789467881.622951,2121,2878,ɔ
1789467881.624008,2254,2880,ɔ
1789467881.626567,1837,2876,ɔ
1789467881.628889,2027,2879,ɔ
1789467881.630186,2169,2879,ɔ
1789467881.632735,2074,2879,ɔ
1789467881.6340249,2027,2877,ɔ
1789467881.636449,1939,2878,ɔ
1789467881.638995,2057,2879,ɔ
1789467881.6400378,2143,2879,ɔ
1789467881.6423419,2278,2881,ɔ
1789467881.644649,2040,2879,ɔ
1789467881.6459389,1950,2878,ɔ
1789467881.648163,2074,2878,ɔ
1789467881.650711,2230,2880,ɔ
1789467881.655445,1858,2878,ɔ
1789467881.65587,2040,2879,ɔ
1789467881.656309,2061,2879,ɔ
1789467881.659785,2120,2881,ɔ
1789467881.659919,1999,2880,ɔ
1789467881.6626308,2053,2879,ɔ
1789467881.6667678,2240,2879,ɔ
1789467881.6669939,2090,2880,ɔ
1789467881.668051,1955,2878,ɔ
1789467881.670379,2074,2878,ɔ
1789467881.672698,2028,2878,ɔ
1789467881.674004,2116,2879,ɔ
1789467881.676425,1952,2877,ɔ
1789467881.677811,1975,2878,ɔ
1789467881.680363,2004,2878,ɔ
1789467881.682844,2117,2879,ɔ
1789467881.684135,2074,2879,ɔ
1789467881.6864378,2056,2878,ɔ
1789467881.687823,2162,2879,ɔ
1789467881.6903732,2209,2882,ɔ
1789467881.6929548,2304,2880,ɔ
1789467881.694002,2026,2878,ɔ
1789467881.699857,1955,2879,ɔ
1789467881.700323,2108,2880,ɔ
1789467881.7006972,2059,2880,ɔ
1789467881.7028632,1860,2878,ɔ
1789467881.70471,1950,2879,ɔ
1789467881.706609,2153,2879,ɔ
1789467881.710311,2222,2881,ɔ
1789467881.710454,2100,2879,ɔ
1789467881.712497,2066,2879,ɔ
1789467881.713803,1880,2877,ɔ
1789467881.716127,2318,2880,ɔ
1789467881.718452,2180,2881,ɔ
1789467881.719774,1943,2879,ɔ
1789467881.722328,2143,2879,ɔ
1789467881.7248828,2299,2880,ɔ
1789467881.726178,2175,2879,ɔ
1789467881.728485,1991,2879,ɔ
1789467881.7297978,2051,2878,ɔ
1789467881.732207,2172,2880,ɔ
1789467881.734777,2052,2877,ɔ
1789467881.7361028,1957,2877,ɔ
1789467881.738443,2135,2878,ɔ
1789467881.740545,2134,2880,ɔ
1789467881.746818,2033,2879,ɔ
1789467881.7484841,2034,2879,ɔ
1789467881.7487721,2111,2878,ɔ
1789467881.751153,2169,2879,ɔ
1789467881.752316,2118,2879,ɔ
1789467881.7546,1991,2877,ɔ
1789467881.75765,1982,2878,ɔ
1789467881.759647,2144,2878,ɔ
1789467881.7597451,2182,2880,ɔ
1789467881.759837,2101,2879,ɔ
1789467881.762211,2053,2878,ɔ
1789467881.7676978,2061,2879,ɔ
1789467881.768917,2145,2879,ɔ
1789467881.770394,2005,2877,ɔ
1789467881.771946,2019,2878,ɔ
1789467881.7731142,2104,2879,ɔ
1789467881.7758532,2169,2880,ɔ
1789467881.778406,2126,2880,ɔ
1789467881.778785,2066,2878,ɔ
1789467881.780936,2081,2879,ɔ
1789467881.782262,2141,2880,ɔ
1789467881.784839,2068,2878,ɔ
1789467881.786171,2011,2878,ɔ
1789467881.788241,2084,2878,ɔ
1789467881.790346,2162,2880,ɔ
1789467881.7926679,2146,2879,ɔ
1789467881.793965,2090,2879,ɔ
1789467881.796302,2043,2879,ɔ
1789467881.798639,2121,2879,ɔ
1789467881.8000169,2068,2879,ɔ
1789467881.8023539,1977,2879,ɔ
1789467881.804666,2058,2879,ɔ
1789467881.805961,2185,2879,ɔ
1789467881.808511,2166,2880,ɔ
1789467881.8098052,2087,2880,ɔ
1789467881.816968,2065,2879,ɔ
1789467881.817131,2083,2878,ɔ
1789467881.817625,2163,2880,ɔ
1789467881.819304,2031,2879,ɔ
1789467881.821866,2027,2878,ɔ
1789467881.822704,2064,2880,ɔ
1789467881.825226,2183,2880,ɔ
1789467881.827756,2193,2879,ɔ
1789467881.827898,2065,2879,ɔ
1789467881.830828,2074,2878,ɔ
1789467881.8318799,2135,2880,ɔ
1789467881.83746,2090,2877,ɔ
1789467881.8382988,1987,2878,ɔ
1789467881.8399072,2016,2878,ɔ
1789467881.840087,2219,2880,ɔ
1789467881.843143,2227,2880,ɔ
1789467881.845311,2074,2879,ɔ
1789467881.847766,2058,2879,ɔ
1789467881.8480341,2119,2879,ɔ
1789467881.8501692,2106,2880,ɔ
1789467881.852258,2044,2878,ɔ
1789467881.8545668,2137,2879,ɔ
1789467881.855872,2197,2878,ɔ
1789467881.8582559,2134,2879,ɔ
1789467881.860568,2006,2878,ɔ
1789467881.8618612,2126,2879,ɔ
1789467881.8644118,2443,2879,ɔ
1789467881.8664992,2249,2879,ɔ
1789467881.8688278,1779,2878,ɔ
1789467881.869888,1827,2878,ɔ
1789467881.87201,2234,2879,ɔ
1789467881.874561,2278,2880,ɔ
1789467881.8758552,2026,2879,ɔ
1789467881.878405,1962,2879,ɔ
1789467881.879801,2075,2879,ɔ
1789467881.8853939,2207,2880,ɔ
1789467881.886358,1968,2878,ɔ
1789467881.8871639,2016,2878,ɔ
1789467881.888448,2304,2879,ɔ
1789467881.8908632,2352,2880,ɔ
1789467881.8937201,2132,2879,ɔ
1789467881.893964,1994,2879,ɔ
1789467881.8964,1903,2879,ɔ
1789467881.8985448,2092,2879,ɔ
1789467881.8998542,2121,2880,ɔ
1789467881.906562,2090,2879,ɔ
1789467881.9070039,1986,2879,ɔ
1789467881.9074671,2458,2881,ɔ
1789467881.909774,2478,2880,ɔ
1789467881.9098501,1628,2876,ɔ
1789467881.913611,1789,2875,ɔ
1789467881.91631,2176,2879,ɔ
1789467881.9165409,2209,2878,ɔ
1789467881.918664,2034,2877,ɔ
1789467881.919779,1908,2878,ɔ
1789467881.9222982,2054,2877,ɔ
1789467881.926722,2101,2881,ɔ
1789467881.926767,2081,2880,ɔ
1789467881.930872,2132,2879,ɔ
1789467881.9310179,2112,2880,ɔ
1789467881.932369,2173,2880,ɔ
1789467881.934686,2139,2880,ɔ
1789467881.93581,1814,2878,ɔ
1789467881.93837,2054,2880,ɔ
1789467881.94068,2232,2881,ɔ
1789467881.941809,2146,2878,ɔ
1789467881.943907,2130,2878,ɔ
1789467881.946369,2087,2879,ɔ
1789467881.9489331,2169,2880,ɔ
1789467881.951227,2177,2880,ɔ
1789467881.9531388,2038,2878,ɔ
1789467881.957501,2039,2879,ɔ
1789467881.9580731,2204,2880,ɔ
1789467881.958208,2188,2879,ɔ
1789467881.960937,2090,2879,ɔ
1789467881.962452,2048,2877,ɔ
1789467881.9645581,2127,2880,ɔ
1789467881.966368,2157,2878,ɔ
1789467881.968832,2000,2877,ɔ
1789467881.97102,2008,2879,ɔ
1789467881.97209,2116,2878,ɔ
1789467881.974396,2208,2879,ɔ
1789467881.9788082,2370,2880,ɔ
1789467881.9792361,2085,2878,ɔ
1789467881.981144,1914,2877,ɔ
1789467881.9837608,2146,2880,ɔ
1789467881.9850109,2139,2877,ɔ
1789467881.986859,2046,2877,ɔ
1789467881.989417,2131,2879,ɔ
1789467881.99162,2218,2880,ɔ
1789467881.992685,2109,2879,ɔ
1789467881.993823,2053,2879,ɔ
1789467881.996269,2099,2879,ɔ
1789467881.998849,2149,2879,ɔ
1789467881.9999151,2195,2880,ɔ
1789467882.002233,1894,2879,ɔ
1789467882.004545,2004,2878,ɔ
1789467882.006857,2341,2882,ɔ
1789467882.0081642,2302,2881,ɔ
1789467882.0107079,2056,2879,ɔ
1789467882.0120041,2045,2878,ɔ
1789467882.014557,2111,2880,ɔ
1789467882.015838,2227,2881,ɔ
1789467882.018464,2085,2879,ɔ
1789467882.0205948,2075,2878,ɔ
1789467882.02315,2153,2880,ɔ
1789467882.0288131,2180,2880,ɔ
1789467882.030293,2062,2878,ɔ
1789467882.030462,1917,2879,ɔ
1789467882.030637,2126,2879,ɔ
1789467882.0325801,2136,2879,ɔ
1789467882.0343611,2092,2878,ɔ
1789467882.036225,2004,2879,ɔ
1789467882.0387158,2089,2879,ɔ
1789467882.040962,2186,2880,ɔ
1789467882.0420291,2278,2880,ɔ
1789467882.044343,1988,2878,ɔ
1789467882.048909,1751,2876,ɔ
1789467882.049721,2250,2880,ɔ
1789467882.050185,2434,2881,ɔ
1789467882.052843,2254,2879,ɔ
1789467882.0544698,1719,2879,ɔ
1789467882.056534,2243,2880,ɔ
1789467882.059009,2311,2881,ɔ
1789467882.0610518,2140,2879,ɔ
1789467882.062351,2188,2879,ɔ
1789467882.064669,2076,2879,ɔ
1789467882.06597,2088,2881,ɔ
1789467882.068463,1987,2878,ɔ
1789467882.069781,1965,2879,ɔ
1789467882.072333,1872,2878,ɔ
1789467882.074593,2230,2879,ɔ
1789467882.0758882,2135,2879,ɔ
1789467882.078441,2188,2879,ɔ
1789467882.0805051,1920,2877,ɔ
1789467882.081803,2035,2879,ɔ
1789467882.084119,2020,2879,ɔ
1789467882.086269,2047,2879,ɔ
1789467882.0888178,2179,2879,ɔ
1789467882.089865,2184,2881,ɔ
1789467882.096413,2261,2880,ɔ
1789467882.097228,2129,2879,ɔ
1789467882.0973592,1933,2878,ɔ
1789467882.098859,2211,2881,ɔ
1789467882.100694,2282,2881,ɔ
1789467882.1026702,2089,2879,ɔ
1789467882.104193,1856,2879,ɔ
1789467882.106785,2019,2878,ɔ
1789467882.1085289,2297,2881,ɔ
1789467882.1109152,2134,2880,ɔ
1789467882.112195,1926,2878,ɔ
1789467882.1168928,2086,2879,ɔ
1789467882.117656,2252,2880,ɔ
1789467882.120679,2131,2878,ɔ
1789467882.12083,2061,2879,ɔ
1789467882.122706,2078,2878,ɔ
1789467882.124168,2068,2877,ɔ
1789467882.126613,2107,2880,ɔ
1789467882.1282911,2084,2879,ɔ
1789467882.130614,2005,2878,ɔ
1789467882.131924,2116,2880,ɔ
1789467882.134534,2130,2879,ɔ
1789467882.136847,2021,2878,ɔ
1789467882.138143,2099,2879,ɔ
1789467882.1406689,2232,2880,ɔ
1789467882.1419709,2151,2879,ɔ
1789467882.144341,2024,2879,ɔ
1789467882.146664,1929,2878,ɔ
1789467882.1479669,1965,2878,ɔ
1789467882.150323,1958,2878,ɔ
1789467882.152898,2066,2879,ɔ
1789467882.1542,2041,2879,ɔ
1789467882.1567528,2148,2878,ɔ
1789467882.1578739,2385,2880,ɔ
1789467882.1638029,2187,2879,ɔ
1789467882.1643012,1993,2879,ɔ
1789467882.165555,2014,2879,ɔ
1789467882.169122,2237,2879,ɔ
1789467882.16994,2071,2878,ɔ
1789467882.170387,2041,2879,ɔ
1789467882.172589,2122,2879,ɔ
1789467882.175068,2139,2881,ɔ
1789467882.177166,2096,2879,ɔ
1789467882.17847,2021,2878,ɔ
1789467882.179799,2064,2879,ɔ
1789467882.1847832,2183,2880,ɔ
1789467882.1852522,2106,2878,ɔ
1789467882.187242,2017,2880,ɔ
1789467882.189738,2089,2878,ɔ
1789467882.189829,2164,2880,ɔ
1789467882.1923032,2181,2879,ɔ
1789467882.194551,2040,2879,ɔ
1789467882.1961868,1955,2879,ɔ
1789467882.198742,2183,2880,ɔ
1789467882.199785,2133,2880,ɔ
1789467882.202097,1845,2879,ɔ
1789467882.2046468,2164,2878,ɔ
1789467882.205943,2270,2882,ɔ
1789467882.208265,2118,2880,ɔ
1789467882.210816,2009,2878,ɔ
1789467882.2121081,1925,2880,ɔ
1789467882.2143419,2166,2878,ɔ
1789467882.216657,2349,2879,ɔ
1789467882.217781,2081,2879,ɔ
1789467882.220329,1994,2878,ɔ
1789467882.22286,2106,2879,ɔ
1789467882.22415,2180,2879,ɔ
1789467882.228941,2162,2880,ɔ
1789467882.229745,2049,2879,ɔ
1789467882.230149,2072,2878,ɔ
1789467882.2333682,2240,2879,ɔ
1789467882.234973,2133,2880,ɔ
1789467882.236511,1945,2880,ɔ
1789467882.238743,2121,2879,ɔ
1789467882.240891,2283,2881,ɔ
1789467882.241948,2276,2879,ɔ
1789467882.244498,1801,2876,ɔ
1789467882.245791,2010,2880,ɔ
1789467882.2480042,2134,2880,ɔ
1789467882.2505548,2133,2879,ɔ
1789467882.2518451,2002,2878,ɔ
1789467882.2543669,1970,2878,ɔ
1789467882.256913,2052,2880,ɔ
1789467882.258202,2178,2881,ɔ
1789467882.260501,2147,2880,ɔ
1789467882.261792,2097,2878,ɔ
1789467882.264118,2071,2880,ɔ
1789467882.2663941,2118,2879,ɔ
1789467882.267686,2031,2878,ɔ
1789467882.270005,2032,2880,ɔ
1789467882.27382,2048,2879,ɔ
1789467882.274297,2278,2881,ɔ
1789467882.276387,2196,2880,ɔ
1789467882.2793212,2110,2878,ɔ
1789467882.281279,2038,2879,ɔ
1789467882.2836459,2127,2880,ɔ
1789467882.285569,2175,2881,ɔ
1789467882.2866209,2161,2877,ɔ
1789467882.287914,2029,2879,ɔ
1789467882.290472,2187,2880,ɔ
1789467882.291772,2190,2880,ɔ
1789467882.2943249,2021,2879,ɔ
1789467882.295709,2046,2879,ɔ
1789467882.298024,2102,2880,ɔ
1789467882.30033,2106,2881,ɔ
1789467882.301715,1974,2877,ɔ
1789467882.303791,2003,2879,ɔ
1789467882.3058639,2129,2878,ɔ
1789467882.308411,2182,2880,ɔ
1789467882.3097012,2081,2879,ɔ
1789467882.312128,2012,2880,ɔ
1789467882.314434,2029,2879,ɔ
1789467882.319411,2263,2879,ɔ
1789467882.319865,2033,2879,ɔ
1789467882.320313,1995,2879,ɔ
1789467882.323196,2096,2878,ɔ
1789467882.324992,2150,2880,ɔ
1789467882.328295,2144,2879,ɔ
1789467882.328562,2070,2878,ɔ
1789467882.330486,2050,2879,ɔ
1789467882.331787,2163,2880,ɔ
1789467882.33435,2064,2878,ɔ
1789467882.3359091,2015,2878,ɔ
1789467882.338347,2085,2880,ɔ
1789467882.339659,2142,2878,ɔ
1789467882.341738,2169,2879,ɔ
1789467882.343822,2087,2879,ɔ
1789467882.346129,2005,2878,ɔ
1789467882.348215,2086,2879,ɔ
1789467882.349778,2111,2879,ɔ
1789467882.352351,1982,2878,ɔ
1789467882.353699,2027,2879,ɔ
1789467882.355774,2143,2879,ɔ
1789467882.358325,2173,2881,ɔ
1789467882.3599072,2101,2879,ɔ
1789467882.36352,2086,2878,ɔ
1789467882.3664901,2047,2877,ɔ
1789467882.366718,2128,2879,ɔ
1789467882.367888,2032,2878,ɔ
1789467882.371705,2047,2879,ɔ
1789467882.374058,2150,2880,ɔ
1789467882.3743029,2141,2881,ɔ
1789467882.376307,2121,2879,ɔ
1789467882.3786309,2054,2878,ɔ
1789467882.3801222,2079,2879,ɔ
1789467882.3841002,2153,2879,ɔ
1789467882.384701,2058,2878,ɔ
1789467882.386899,1996,2879,ɔ
1789467882.388466,2083,2879,ɔ
1789467882.3905668,2190,2880,ɔ
1789467882.392448,2157,2879,ɔ
1789467882.3948429,2076,2877,ɔ
1789467882.397176,2063,2878,ɔ
1789467882.3983622,2066,2879,ɔ
1789467882.399662,2096,2880,ɔ
1789467882.40199,1965,2879,ɔ
1789467882.4043221,2045,2879,ɔ
1789467882.405717,2163,2878,ɔ
1789467882.408437,2124,2880,ɔ
1789467882.410532,2039,2879,ɔ
1789467882.41285,2014,2879,ɔ
1789467882.4139001,2065,2879,ɔ
1789467882.4164648,2202,2880,ɔ
1789467882.4185479,2074,2878,ɔ
1789467882.4198442,2018,2879,ɔ
1789467882.422147,2136,2879,ɔ
1789467882.424465,2188,2880,ɔ
1789467882.42674,2082,2880,ɔ
1789467882.4277928,2027,2878,ɔ
1789467882.433953,2056,2878,ɔ
1789467882.43534,2123,2879,ɔ
1789467882.436599,2211,2880,ɔ
1789467882.436803,1912,2878,ɔ
1789467882.439353,1839,2879,ɔ
1789467882.4424791,2206,2881,ɔ
1789467882.442623,2111,2879,ɔ
1789467882.4452312,2134,2880,ɔ
1789467882.4472709,2028,2878,ɔ
1789467882.44863,2103,2879,ɔ
1789467882.449939,2128,2880,ɔ
1789467882.456383,2102,2878,ɔ
1789467882.457238,2081,2878,ɔ
1789467882.458571,2126,2878,ɔ
1789467882.458768,1962,2878,ɔ
1789467882.460798,2128,2879,ɔ
1789467882.462979,2235,2879,ɔ
1789467882.46454,2074,2879,ɔ
1789467882.46682,2100,2879,ɔ
1789467882.469037,2009,2878,ɔ
1789467882.470345,2120,2879,ɔ
1789467882.471713,2214,2878,ɔ
1789467882.4740531,2075,2879,ɔ
1789467882.476117,2365,2880,ɔ
1789467882.478671,2082,2878,ɔ
1789467882.479968,1313,2875,ɔ
1789467882.48205,1919,2876,ɔ
1789467882.484503,2384,2880,ɔ
1789467882.485801,2086,2878,ɔ
1789467882.488362,2045,2878,ɔ
1789467882.490432,2165,2881,ɔ
1789467882.4917262,2169,2880,ɔ
1789467882.493856,2170,2878,ɔ
1789467882.4964092,2081,2880,ɔ
1789467882.498564,2114,2879,ɔ
1789467882.499735,2118,2881,ɔ
1789467882.50501,2000,2878,ɔ
1789467882.505491,2037,2879,ɔ
1789467882.506079,2153,2881,ɔ
1789467882.508395,2083,2879,ɔ
1789467882.510769,1975,2880,ɔ
1789467882.512392,2040,2879,ɔ
1789467882.51607,2045,2880,ɔ
1789467882.51635,2168,2880,ɔ
1789467882.518097,2013,2878,ɔ
1789467882.520658,1951,2878,ɔ
1789467882.521756,2052,2879,ɔ
1789467882.527196,2117,2881,ɔ
1789467882.528755,2128,2878,ɔ
1789467882.528924,2115,2879,ɔ
1789467882.5307982,2113,2879,ɔ
1789467882.5326562,2110,2880,ɔ
1789467882.5341382,2032,2878,ɔ
1789467882.5363882,1991,2879,ɔ
1789467882.5381708,2063,2878,ɔ
1789467882.5407271,2119,2877,ɔ
1789467882.542021,2177,2880,ɔ
1789467882.5444129,2077,2879,ɔ
1789467882.545707,2013,2878,ɔ
1789467882.548266,2169,2878,ɔ
1789467882.550391,2163,2881,ɔ
1789467882.551687,1963,2878,ɔ
1789467882.554237,1958,2878,ɔ
1789467882.556703,2141,2879,ɔ
1789467882.5579991,2093,2880,ɔ
1789467882.560564,2036,2878,ɔ
1789467882.562888,2062,2879,ɔ
1789467882.5639548,2113,2879,ɔ
1789467882.566085,2094,2879,ɔ
1789467882.568458,2003,2877,ɔ
1789467882.573964,2217,2880,ɔ
1789467882.574471,2076,2878,ɔ
1789467882.57621,2198,2881,ɔ
1789467882.57632,2116,2879,ɔ
1789467882.579085,1964,2878,ɔ
1789467882.581482,2029,2878,ɔ
1789467882.583849,2137,2880,ɔ
1789467882.583992,2004,2878,ɔ
1789467882.586689,1950,2879,ɔ
1789467882.587988,2050,2879,ɔ
1789467882.594026,2155,2880,ɔ
1789467882.5945559,2036,2880,ɔ
1789467882.5953972,2010,2879,ɔ
1789467882.5967429,2268,2879,ɔ
1789467882.5987031,2305,2880,ɔ
1789467882.601933,2063,2880,ɔ
1789467882.602109,1943,2879,ɔ
1789467882.604413,1910,2880,ɔ
1789467882.6065762,2193,2879,ɔ
1789467882.607878,2222,2880,ɔ
1789467882.610432,1891,2878,ɔ
1789467882.611704,2031,2879,ɔ
1789467882.614012,1945,2878,ɔ
1789467882.6165068,2009,2879,ɔ
1789467882.6178088,1997,2878,ɔ
1789467882.620356,1978,2878,ɔ
1789467882.6227682,2101,2878,ɔ
1789467882.6239371,2275,2881,ɔ
1789467882.626485,2123,2881,ɔ
1789467882.6287959,2223,2879,ɔ
1789467882.630063,2061,2879,ɔ
1789467882.63238,2085,2880,ɔ
1789467882.6348429,1860,2878,ɔ
1789467882.635904,2075,2879,ɔ
1789467882.64022,1933,2879,ɔ
1789467882.6407528,2003,2879,ɔ
1789467882.661962,2062,2879,ɔ
1789467882.66512,1859,2879,ɔ
1789467882.6651678,1871,2879,ɔ
1789467882.665204,1951,2879,ɔ
1789467882.665238,2029,2878,ɔ
1789467882.66527,1900,2879,ɔ
1789467882.665302,2014,2879,ɔ
1789467882.665334,2405,2880,ɔ
1789467882.665365,2289,2880,ɔ
1789467882.665396,2057,2878,ɔ
1789467882.665428,2118,2878,ɔ
1789467882.6654599,1878,2876,ɔ
1789467882.6682298,2315,2880,ɔ
1789467882.6684911,1955,2879,ɔ
1789467882.670986,1801,2878,ɔ
1789467882.6746619,2274,2881,ɔ
1789467882.674701,1923,2877,ɔ
1789467882.678443,1746,2877,ɔ
1789467882.6786938,1878,2880,ɔ
1789467882.680046,1958,2880,ɔ
1789467882.6822689,2075,2880,ɔ
1789467882.6931899,1799,2879,ɔ
1789467882.694506,2223,2881,ɔ
1789467882.6960251,1989,2877,ɔ
1789467882.696225,1835,2878,ɔ
1789467882.696374,2291,2881,ɔ
1789467882.698594,2147,2881,ɔ
1789467882.6989682,1999,2879,ɔ
1789467882.699119,1919,2877,ɔ
1789467882.7007182,1667,2878,ɔ
1789467882.7018182,1779,2879,ɔ
1789467882.7042801,1556,2877,ɔ
1789467882.708513,2390,2880,ɔ
1789467882.7096598,1901,2876,ɔ
1789467882.71239,1970,2879,ɔ
1789467882.713121,2078,2878,ɔ
1789467882.716007,1906,2877,ɔ
1789467882.716179,2090,2879,ɔ
1789467882.7184582,2388,2881,ɔ
1789467882.720572,1811,2878,ɔ
1789467882.722883,1938,2877,ɔ
1789467882.7241778,1713,2878,ɔ
1789467882.726752,1618,2877,ɔ
1789467882.727817,1852,2880,ɔ
1789467882.730369,2005,2879,ɔ
1789467882.732872,2339,2879,ɔ
1789467882.733929,1641,2877,ɔ
1789467882.7364428,1739,2879,ɔ
1789467882.737877,1973,2878,ɔ
1789467882.740329,2147,2879,ɔ
1789467882.742409,1647,2877,ɔ
1789467882.744477,2095,2880,ɔ
1789467882.746788,2216,2879,ɔ
1789467882.74806,1748,2876,ɔ
1789467882.7508411,1967,2877,ɔ
1789467882.755849,2333,2880,ɔ
1789467882.757151,1910,2879,ɔ
1789467882.757664,1968,2878,ɔ
1789467882.760382,2191,2880,ɔ
1789467882.760842,2164,2880,ɔ
1789467882.76274,1714,2878,ɔ
1789467882.764179,1801,2876,ɔ
1789467882.7666078,1916,2877,ɔ
1789467882.768822,1809,2877,ɔ
1789467882.770315,2021,2878,ɔ
1789467882.7761788,2016,2878,ɔ
1789467882.776688,2809,2881,ɔ
1789467882.777496,2323,2878,ɔ
1789467882.779086,1684,2876,ɔ
1789467882.781135,1575,2877,ɔ
1789467882.782769,2025,2877,ɔ
1789467882.784519,1852,2878,ɔ
1789467882.7870028,1627,2878,ɔ
1789467882.788703,2132,2877,ɔ
1789467882.790007,1744,2878,ɔ
1789467882.792564,1608,2877,ɔ
1789467882.794834,2420,2881,ɔ
1789467882.796132,2145,2879,ɔ
1789467882.7984571,2277,2881,ɔ
1789467882.8006022,2239,2881,ɔ
1789467882.802919,1962,2877,ɔ
1789467882.8039622,1518,2878,ɔ
1789467882.8062809,1430,2877,ɔ
1789467882.808602,2084,2877,ɔ
1789467882.8098948,1997,2880,ɔ
1789467882.812445,1703,2878,ɔ
1789467882.813798,1771,2879,ɔ
1789467882.81635,1923,2877,ɔ
1789467882.818901,2143,2878,ɔ
1789467882.823602,1750,2878,ɔ
1789467882.824414,2172,2879,ɔ
1789467882.824901,2178,2880,ɔ
1789467882.8268108,1602,2877,ɔ
1789467882.8283808,1730,2876,ɔ
1789467882.831866,1828,2880,ɔ
1789467882.831973,1934,2879,ɔ
1789467882.8343492,1942,2877,ɔ
1789467882.836388,1787,2877,ɔ
1789467882.838557,1903,2879,ɔ
1789467882.839865,2204,2878,ɔ
1789467882.842442,2142,2880,ɔ
1789467882.844523,1812,2876,ɔ
1789467882.846826,1782,2877,ɔ
1789467882.847884,1503,2876,ɔ
1789467882.850563,1877,2878,ɔ
1789467882.851899,1423,2877,ɔ
1789467882.854304,1796,2878,ɔ
1789467882.8563871,2016,2879,ɔ
1789467882.8585181,2212,2879,ɔ
1789467882.86087,1587,2876,ɔ
1789467882.862174,2050,2880,ɔ
1789467882.864254,1933,2880,ɔ
1789467882.866692,2227,2879,ɔ
1789467882.872601,1610,2878,ɔ
1789467882.873507,1770,2878,ɔ
1789467882.873651,2194,2879,ɔ
1789467882.8751628,2364,2881,ɔ
1789467882.876737,1985,2880,ɔ
1789467882.878345,1554,2875,ɔ
1789467882.880401,1957,2880,ɔ
1789467882.882977,2009,2877,ɔ
1789467882.885309,1890,2878,ɔ
1789467882.886629,2004,2878,ɔ
1789467882.887937,1871,2878,ɔ
1789467882.893357,1946,2878,ɔ
1789467882.893873,1860,2878,ɔ
1789467882.894749,2292,2879,ɔ
1789467882.897984,2200,2879,ɔ
1789467882.898453,1871,2878,ɔ
1789467882.90147,1745,2878,ɔ
1789467882.903927,1825,2879,ɔ
1789467882.904203,1831,2878,ɔ
1789467882.906267,2229,2880,ɔ
1789467882.9088268,1988,2879,ɔ
1789467882.909884,1756,2879,ɔ
1789467882.9124649,1839,2879,ɔ
1789467882.91394,2122,2880,ɔ
1789467882.916057,2236,2881,ɔ
1789467882.918138,2043,2879,ɔ
1789467882.920461,1809,2879,ɔ
1789467882.921797,2019,2879,ɔ
1789467882.924351,2074,2880,ɔ
1789467882.926667,1941,2879,ɔ
1789467882.927768,1941,2879,ɔ
1789467882.9303198,1928,2879,ɔ
1789467882.932425,2058,2880,ɔ
1789467882.934505,2049,2878,ɔ
1789467882.936764,2064,2879,ɔ
1789467882.940908,2067,2880,ɔ
1789467882.94182,2235,2880,ɔ
1789467882.942821,1911,2877,ɔ
1789467882.9442408,1975,2879,ɔ
1789467882.946107,1978,2878,ɔ
1789467882.9492748,1835,2877,ɔ
1789467882.952034,2226,2880,ɔ
1789467882.95223,2090,2878,ɔ
1789467882.954279,2049,2880,ɔ
1789467882.9568472,2273,2880,ɔ
1789467882.9616692,1940,2877,ɔ
1789467882.9626791,1886,2878,ɔ
1789467882.963142,1958,2880,ɔ
1789467882.964939,2082,2880,ɔ
1789467882.9668689,2102,2880,ɔ
1789467882.968988,1760,2878,ɔ
1789467882.9705238,1884,2879,ɔ
1789467882.973184,1979,2878,ɔ
1789467882.9753542,1982,2878,ɔ
1789467882.9764469,2318,2880,ɔ
1789467882.977778,2159,2879,ɔ
1789467882.980043,1559,2875,ɔ
1789467882.9824698,2031,2879,ɔ
1789467882.983839,2406,2880,ɔ
1789467882.986259,1646,2878,ɔ
1789467882.988638,2045,2879,ɔ
1789467882.991202,2237,2880,ɔ
1789467882.992502,1959,2878,ɔ
1789467882.993835,1914,2879,ɔ
1789467882.9963908,2274,2880,ɔ
1789467882.9987772,1895,2878,ɔ
1789467883.000075,2047,2878,ɔ
1789467883.002399,1973,2878,ɔ
1789467883.003757,1983,2879,ɔ
1789467883.005834,2628,2881,ɔ
1789467883.008379,2621,2880,ɔ
1789467883.0144708,1429,2877,ɔ
1789467883.014642,1478,2877,ɔ
1789467883.0161731,1804,2877,ɔ
1789467883.01635,1972,2878,ɔ
1789467883.018286,2361,2880,ɔ
1789467883.019833,1800,2877,ɔ
1789467883.024212,1705,2877,ɔ
1789467883.0244749,2063,2879,ɔ
1789467883.026691,2229,2880,ɔ
1789467883.027783,2185,2880,ɔ
1789467883.030344,2129,2880,ɔ
1789467883.034863,2159,2879,ɔ
1789467883.035331,2062,2878,ɔ
1789467883.037822,1862,2880,ɔ
1789467883.039401,2046,2879,ɔ
1789467883.0406022,2054,2880,ɔ
1789467883.043069,2186,2880,ɔ
1789467883.045561,2102,2879,ɔ
1789467883.047265,2089,2879,ɔ
1789467883.04847,2116,2878,ɔ
1789467883.049819,1929,2878,ɔ
1789467883.052382,2091,2878,ɔ
1789467883.054823,2234,2880,ɔ
1789467883.0558789,2335,2879,ɔ
1789467883.058253,1657,2876,ɔ
1789467883.060562,1669,2877,ɔ
1789467883.061855,1943,2877,ɔ
1789467883.064407,2215,2879,ɔ
1789467883.0664809,2081,2880,ɔ
1789467883.06879,2000,2878,ɔ
1789467883.070087,1871,2878,ɔ
1789467883.072404,2095,2877,ɔ
1789467883.0749629,2053,2877,ɔ
1789467883.076255,2132,2880,ɔ
1789467883.082342,2174,2879,ɔ
1789467883.082494,2215,2879,ɔ
1789467883.0825841,2234,2880,ɔ
1789467883.0852191,1987,2877,ɔ
1789467883.087101,1921,2878,ɔ
1789467883.088217,1871,2879,ɔ
1789467883.093035,2248,2881,ɔ
1789467883.093411,2053,2879,ɔ
1789467883.095337,1985,2879,ɔ
1789467883.096399,1979,2879,ɔ
1789467883.0986948,2221,2880,ɔ
1789467883.102665,1926,2878,ɔ
1789467883.103155,1936,2879,ɔ
1789467883.105293,1928,2878,ɔ
1789467883.107341,2157,2879,ɔ
1789467883.1093109,2222,2879,ɔ
1789467883.1131961,2064,2878,ɔ
1789467883.1133351,2283,2879,ɔ
1789467883.1150668,1811,2876,ɔ
1789467883.1161249,2238,2880,ɔ
1789467883.118679,2066,2877,ɔ
1789467883.119989,1947,2879,ɔ
1789467883.122297,2035,2879,ɔ
1789467883.1248488,2180,2880,ɔ
1789467883.125912,2086,2880,ɔ
1789467883.1282299,1871,2878,ɔ
1789467883.1304681,1897,2879,ɔ
1789467883.132771,2030,2879,ɔ
1789467883.1338172,1959,2877,ɔ
1789467883.136365,2106,2879,ɔ
1789467883.138442,2141,2879,ɔ
1789467883.140744,2243,2880,ɔ
1789467883.142035,2166,2880,ɔ
1789467883.144346,2002,2878,ɔ
1789467883.151913,2025,2879,ɔ
1789467883.1535501,2047,2880,ɔ
1789467883.15374,1988,2879,ɔ
1789467883.153897,2222,2882,ɔ
1789467883.154059,1903,2880,ɔ
1789467883.157411,1952,2878,ɔ
1789467883.159159,2304,2881,ɔ
1789467883.16189,1963,2880,ɔ
1789467883.162221,1841,2876,ɔ
1789467883.163844,2262,2879,ɔ
1789467883.1662369,2202,2879,ɔ
1789467883.171922,1861,2879,ɔ
1789467883.17205,1789,2879,ɔ
1789467883.1724732,1943,2877,ɔ
1789467883.174609,2180,2880,ɔ
1789467883.176209,2124,2879,ɔ
1789467883.179955,2332,2880,ɔ
1789467883.182873,1956,2878,ɔ
1789467883.1830568,1965,2876,ɔ
1789467883.185174,2036,2878,ɔ
1789467883.186483,1798,2878,ɔ
1789467883.187814,2453,2882,ɔ
1789467883.1901288,1974,2877,ɔ
1789467883.192683,1759,2877,ɔ
1789467883.193975,1901,2879,ɔ
1789467883.1965241,2052,2880,ɔ
1789467883.19782,2147,2879,ɔ
1789467883.200125,2183,2881,ɔ
1789467883.202434,2012,2878,ɔ
1789467883.204745,1896,2878,ɔ
1789467883.205801,2236,2878,ɔ
1789467883.208361,2274,2881,ɔ
1789467883.2109199,1909,2879,ɔ
1789467883.2122161,1794,2877,ɔ
1789467883.2147672,2026,2879,ɔ
1789467883.220035,2267,2880,ɔ
1789467883.220525,1907,2878,ɔ
1789467883.221359,1871,2879,ɔ
1789467883.222912,1927,2878,ɔ
1789467883.226133,2405,2880,ɔ
1789467883.228887,2335,2880,ɔ
1789467883.229119,2055,2879,ɔ
1789467883.2319171,1836,2876,ɔ
1789467883.232048,2092,2879,ɔ
1789467883.233825,1993,2877,ɔ
1789467883.236151,2011,2879,ɔ
1789467883.241579,1871,2879,ɔ
1789467883.242143,2065,2878,ɔ
1789467883.2426088,2239,2879,ɔ
1789467883.244451,2089,2879,ɔ
1789467883.246444,1989,2878,ɔ
1789467883.24822,2114,2879,ɔ
1789467883.249963,2111,2878,ɔ
1789467883.252502,2013,2879,ɔ
1789467883.254218,2137,2879,ɔ
1789467883.2565372,2053,2878,ɔ
1789467883.258844,2112,2879,ɔ
1789467883.260143,2059,2877,ɔ
1789467883.262698,1779,2876,ɔ
1789467883.263996,2035,2879,ɔ
1789467883.266547,2159,2879,ɔ
1789467883.267839,2083,2878,ɔ
1789467883.2700422,1881,2878,ɔ
1789467883.272575,1810,2878,ɔ
1789467883.274924,2173,2881,ɔ
1789467883.275967,1894,2878,ɔ
1789467883.278283,1936,2879,ɔ
1789467883.280601,2125,2880,ɔ
1789467883.281895,2172,2879,ɔ
1789467883.284446,2155,2881,ɔ
1789467883.290333,1932,2878,ɔ
1789467883.290837,1981,2879,ɔ
1789467883.2912588,2220,2877,ɔ
1789467883.294712,2502,2880,ɔ
1789467883.295156,1572,2876,ɔ
1789467883.297746,1777,2876,ɔ
1789467883.297976,2106,2879,ɔ
1789467883.300656,2320,2880,ɔ
1789467883.302794,1874,2878,ɔ
1789467883.303854,2210,2878,ɔ
1789467883.306175,2167,2878,ɔ
1789467883.310695,2031,2877,ɔ
1789467883.3114681,1993,2879,ɔ
1789467883.313008,2038,2880,ɔ
1789467883.31458,1801,2876,ɔ
1789467883.316253,2117,2880,ɔ
1789467883.318304,1877,2877,ɔ
1789467883.3210618,1770,2878,ɔ
1789467883.32317,2115,2878,ɔ
1789467883.324474,2235,2881,ɔ
1789467883.3258271,2028,2880,ɔ
1789467883.328397,2347,2879,ɔ
1789467883.330991,1939,2879,ɔ
1789467883.332056,2145,2880,ɔ
1789467883.334432,1988,2878,ɔ
1789467883.336555,1993,2878,ɔ
1789467883.3388731,2072,2878,ɔ
1789467883.339991,2117,2878,ɔ
1789467883.3422909,2261,2880,ɔ
1789467883.344597,2014,2880,ɔ
1789467883.34589,1892,2878,ɔ
1789467883.348442,2050,2879,ɔ
1789467883.350813,2005,2877,ɔ
1789467883.352105,1976,2879,ɔ
1789467883.3573241,2077,2878,ɔ
1789467883.358176,2057,2879,ɔ
1789467883.35861,2017,2877,ɔ
1789467883.360273,2062,2879,ɔ
1789467883.362249,1980,2879,ɔ
1789467883.365466,2173,2879,ɔ
1789467883.368334,2213,2880,ɔ
1789467883.368553,2040,2879,ɔ
1789467883.370216,2038,2879,ɔ
1789467883.372772,2137,2879,ɔ
1789467883.3740659,2167,2881,ɔ
1789467883.3781602,2144,2880,ɔ
1789467883.378676,2062,2879,ɔ
1789467883.38077,2035,2878,ɔ
1789467883.3825989,2126,2879,ɔ
1789467883.3842611,2028,2877,ɔ
1789467883.386013,1983,2878,ɔ
1789467883.388942,2012,2878,ɔ
1789467883.3906078,2126,2877,ɔ
1789467883.39192,2132,2879,ɔ
1789467883.393995,2039,2878,ɔ
1789467883.396308,2057,2879,ɔ
1789467883.398866,2106,2878,ɔ
1789467883.400162,2069,2879,ɔ
1789467883.402465,1931,2878,ɔ
1789467883.404778,2005,2879,ɔ
1789467883.406069,2152,2879,ɔ
1789467883.408383,2146,2880,ɔ
1789467883.410696,2060,2879,ɔ
1789467883.411962,1949,2878,ɔ
1789467883.4142091,2059,2879,ɔ
1789467883.416499,2112,2880,ɔ
1789467883.417794,1980,2879,ɔ
1789467883.4203851,1986,2879,ɔ
1789467883.425375,2099,2879,ɔ
1789467883.426239,2130,2881,ɔ
1789467883.4266639,2056,2879,ɔ
1789467883.42817,2022,2879,ɔ
1789467883.431798,2033,2878,ɔ
1789467883.433264,2108,2880,ɔ
1789467883.435819,2028,2878,ɔ
1789467883.435959,1969,2879,ɔ
1789467883.438824,2089,2879,ɔ
1789467883.44012,2143,2877,ɔ
1789467883.4425359,2133,2879,ɔ
1789467883.4438348,2000,2879,ɔ
1789467883.445892,1973,2877,ɔ
1789467883.4484448,2114,2879,ɔ
1789467883.45076,2114,2879,ɔ
1789467883.452053,1939,2878,ɔ
1789467883.454366,1959,2879,ɔ
1789467883.45667,2113,2879,ɔ
1789467883.457806,2152,2880,ɔ
1789467883.460124,2142,2880,ɔ
1789467883.462678,2052,2878,ɔ
1789467883.4638138,2095,2878,ɔ
1789467883.4659278,2213,2879,ɔ
1789467883.471213,1987,2878,ɔ
1789467883.471679,2000,2879,ɔ
1789467883.47209,2184,2879,ɔ
1789467883.474594,2152,2881,ɔ
1789467883.47606,2050,2879,ɔ
1789467883.4779189,1948,2880,ɔ
1789467883.48048,2108,2879,ɔ
1789467883.4824371,2121,2879,ɔ
1789467883.484767,1929,2878,ɔ
1789467883.486065,2035,2879,ɔ
1789467883.488634,2179,2879,ɔ
1789467883.489933,2185,2880,ɔ
1789467883.492485,2157,2880,ɔ
1789467883.493834,2052,2878,ɔ
1789467883.496386,2193,2879,ɔ
1789467883.4986959,2031,2879,ɔ
1789467883.49999,2005,2877,ɔ
1789467883.5025358,2076,2878,ɔ
1789467883.503826,2024,2879,ɔ
1789467883.5061278,2087,2878,ɔ
1789467883.50843,2169,2880,ɔ
1789467883.510632,2176,2879,ɔ
1789467883.515538,1931,2878,ɔ
1789467883.5159,1950,2879,ɔ
1789467883.5163782,2156,2880,ɔ
1789467883.5180721,2063,2878,ɔ
1789467883.5212631,2071,2879,ɔ
1789467883.522916,2171,2878,ɔ
1789467883.52544,2060,2878,ɔ
1789467883.527467,2185,2879,ɔ
1789467883.5287738,2031,2878,ɔ
1789467883.529831,2062,2879,ɔ
1789467883.532386,2205,2880,ɔ
1789467883.534976,2117,2876,ɔ
1789467883.536035,1951,2878,ɔ
1789467883.538591,2105,2879,ɔ
1789467883.539883,2211,2881,ɔ
1789467883.5421948,2207,2879,ɔ
1789467883.5447412,2100,2879,ɔ
1789467883.546031,2010,2879,ɔ
1789467883.548575,2098,2879,ɔ
1789467883.550883,2097,2880,ɔ
1789467883.552175,2017,2879,ɔ
1789467883.55478,2128,2879,ɔ
1789467883.555833,2105,2879,ɔ
1789467883.561538,2132,2879,ɔ
1789467883.562022,2164,2879,ɔ
1789467883.56345,2033,2878,ɔ
1789467883.565064,2144,2878,ɔ
1789467883.56688,2259,2880,ɔ
1789467883.568456,2019,2878,ɔ
1789467883.571284,2038,2879,ɔ
1789467883.5729332,2367,2882,ɔ
1789467883.5740108,2226,2880,ɔ
1789467883.576329,2084,2880,ɔ
1789467883.578874,2087,2879,ɔ
1789467883.579927,2166,2880,ɔ
1789467883.582495,2331,2879,ɔ
1789467883.584585,2202,2880,ɔ
1789467883.58577,1980,2879,ɔ
1789467883.588326,2212,2878,ɔ
1789467883.5906482,2355,2879,ɔ
1789467883.591945,2185,2880,ɔ
1789467883.594497,2110,2878,ɔ
1789467883.595815,2097,2879,ɔ
1789467883.598418,2207,2879,ɔ
1789467883.600984,2252,2880,ɔ
1789467883.602106,2069,2878,ɔ
1789467883.604649,2154,2879,ɔ
1789467883.608902,2488,2880,ɔ
1789467883.609814,2287,2879,ɔ
1789467883.610386,2315,2879,ɔ
1789467883.612395,1929,2879,ɔ
1789467883.614389,2363,2879,ɔ
1789467883.6180422,2365,2881,ɔ
1789467883.620966,2107,2877,ɔ
1789467883.62114,2256,2882,ɔ
1789467883.62296,2058,2878,ɔ
1789467883.624031,2237,2880,ɔ
1789467883.6263812,2364,2879,ɔ
1789467883.630954,2297,2879,ɔ
1789467883.632302,2242,2878,ɔ
1789467883.633625,2488,2881,ɔ
1789467883.635674,2150,2880,ɔ
1789467883.636153,2003,2878,ɔ
1789467883.639099,2404,2881,ɔ
1789467883.641786,2247,2881,ɔ
1789467883.641904,2244,2879,ɔ
1789467883.6448278,2287,2879,ɔ
1789467883.6458828,2087,2879,ɔ
1789467883.6481988,2371,2880,ɔ
1789467883.650762,2491,2881,ɔ
1789467883.6520588,2204,2880,ɔ
1789467883.654612,2380,2881,ɔ
1789467883.655909,2333,2880,ɔ
1789467883.658217,2444,2881,ɔ
1789467883.660534,1988,2879,ɔ
1789467883.661828,2065,2880,ɔ
1789467883.66389,2337,2880,ɔ
1789467883.666207,2367,2880,ɔ
1789467883.668532,2055,2877,ɔ
1789467883.669827,2079,2878,ɔ
1789467883.672155,2203,2878,ɔ
1789467883.678248,2131,2877,ɔ
1789467883.678719,2302,2880,ɔ
1789467883.678828,1963,2877,ɔ
1789467883.680935,2061,2878,ɔ
1789467883.683098,2127,2879,ɔ
1789467883.684735,2063,2879,ɔ
1789467883.686581,1840,2878,ɔ
1789467883.6894112,2052,2878,ɔ
1789467883.6911821,2313,2880,ɔ
1789467883.6924958,2320,2880,ɔ
1789467883.693818,2188,2880,ɔ
1789467883.699657,2064,2878,ɔ
1789467883.7000792,2215,2879,ɔ
1789467883.701472,2106,2878,ɔ
1789467883.703237,2011,2876,ɔ
1789467883.704732,2070,2879,ɔ
1789467883.706553,2274,2880,ɔ
1789467883.7090838,2217,2879,ɔ
1789467883.7106829,1999,2878,ɔ
1789467883.7119858,2094,2879,ɔ
1789467883.714536,2084,2879,ɔ
1789467883.715873,2019,2879,ɔ
1789467883.718184,2053,2877,ɔ
1789467883.7206779,2089,2878,ɔ
1789467883.7217941,2155,2879,ɔ
1789467883.724354,2163,2879,ɔ
1789467883.726665,2137,2878,ɔ
1789467883.727957,2076,2878,ɔ
1789467883.730487,2114,2878,ɔ
1789467883.732797,2242,2879,ɔ
1789467883.73384,1923,2876,ɔ
1789467883.7361522,1960,2880,ɔ
1789467883.738454,2044,2878,ɔ
1789467883.743604,2205,2879,ɔ
1789467883.744106,2123,2880,ɔ
1789467883.744561,2061,2879,ɔ
1789467883.746083,2052,2878,ɔ
1789467883.7486742,2139,2879,ɔ
1789467883.750776,2113,2880,ɔ
1789467883.753381,1999,2879,ɔ
1789467883.754966,2020,2878,ɔ
1789467883.756269,2213,2880,ɔ
1789467883.758822,2159,2879,ɔ
1789467883.760121,2053,2878,ɔ
1789467883.7624362,2039,2877,ɔ
1789467883.76475,2115,2879,ɔ
1789467883.765816,2156,2880,ɔ
1789467883.768189,2093,2877,ɔ
1789467883.770633,2081,2879,ɔ
1789467883.771936,2247,2880,ɔ
1789467883.774015,2325,2880,ɔ
1789467883.776566,2173,2878,ɔ
1789467883.777858,2087,2879,ɔ
1789467883.7803872,2118,2879,ɔ
1789467883.781795,2254,2879,ɔ
1789467883.787433,2162,2879,ɔ
1789467883.787945,2084,2878,ɔ
1789467883.788674,2147,2879,ɔ
1789467883.790369,2232,2880,ɔ
1789467883.793411,2241,2879,ɔ
1789467883.7953348,2110,2878,ɔ
1789467883.7978969,2142,2878,ɔ
1789467883.79809,2198,2880,ɔ
1789467883.80066,2140,2880,ɔ
1789467883.801953,2093,2877,ɔ
1789467883.8042839,2171,2878,ɔ
1789467883.8066702,2342,2881,ɔ
1789467883.807819,2297,2880,ɔ
1789467883.8103669,2159,2879,ɔ
1789467883.812922,2112,2877,ɔ
1789467883.814214,2195,2879,ɔ
1789467883.816514,2199,2880,ɔ
1789467883.818642,2115,2877,ɔ
1789467883.819935,2080,2879,ɔ
1789467883.822484,2135,2877,ɔ
1789467883.82378,2286,2880,ɔ
1789467883.82608,2164,2879,ɔ
1789467883.8286269,2170,2879,ɔ
1789467883.833334,2190,2878,ɔ
1789467883.834185,2105,2879,ɔ
1789467883.836066,2103,2878,ɔ
1789467883.83634,2155,2879,ɔ
1789467883.839239,2147,2880,ɔ
1789467883.8411279,2159,2880,ɔ
1789467883.84358,2070,2880,ɔ
1789467883.8454862,2085,2879,ɔ
1789467883.8465338,2228,2880,ɔ
1789467883.847826,2205,2880,ɔ
1789467883.850145,2033,2879,ɔ
1789467883.852705,2030,2880,ɔ
1789467883.854004,2132,2878,ɔ
1789467883.856309,2133,2879,ɔ
1789467883.858618,2138,2880,ɔ
1789467883.8599098,2138,2879,ɔ
1789467883.862456,2040,2879,ɔ
1789467883.864656,2012,2878,ɔ
1789467883.8659499,2131,2880,ɔ
1789467883.868259,2113,2878,ɔ
1789467883.870324,2064,2879,ɔ
1789467883.872631,2149,2879,ɔ
1789467883.87392,2188,2879,ɔ
1789467883.8786938,2066,2879,ɔ
1789467883.879146,2119,2878,ɔ
1789467883.881068,2108,2878,ɔ
1789467883.883164,2173,2879,ɔ
1789467883.884608,2086,2876,ɔ
1789467883.8858979,2002,2878,ɔ
1789467883.888128,2141,2878,ɔ
1789467883.890249,2220,2880,ɔ
1789467883.8928041,2219,2880,ɔ
1789467883.893863,2085,2878,ɔ
1789467883.896176,2073,2878,ɔ
1789467883.8984509,2149,2879,ɔ
1789467883.899814,2113,2879,ɔ
1789467883.902365,2003,2877,ɔ
1789467883.904439,2062,2878,ɔ
1789467883.9067478,2232,2880,ɔ
1789467883.908036,2217,2880,ɔ
1789467883.910517,2163,2879,ɔ
1789467883.911822,2169,2878,ɔ
1789467883.9140549,2237,2879,ɔ
1789467883.916289,2339,2881,ɔ
1789467883.918835,2215,2881,ɔ
1789467883.923392,2249,2879,ɔ
1789467883.924187,2352,2881,ɔ
1789467883.92496,2347,2880,ɔ
1789467883.926521,2270,2880,ɔ
1789467883.927915,2221,2880,ɔ
1789467883.931106,2179,2878,ɔ
1789467883.933335,2262,2879,ɔ
1789467883.9353228,2158,2881,ɔ
1789467883.936369,2112,2878,ɔ
1789467883.9389231,2212,2879,ɔ
1789467883.940001,2255,2880,ɔ
1789467883.9423108,2206,2879,ɔ
1789467883.944864,2156,2878,ɔ
1789467883.946155,2108,2879,ɔ
1789467883.948701,2171,2880,ɔ
1789467883.949992,2167,2880,ɔ
1789467883.9522932,2057,2879,ɔ
1789467883.954839,2142,2879,ɔ
1789467883.956129,2197,2878,ɔ
1789467883.958678,2160,2880,ɔ
1789467883.959967,2072,2879,ɔ
1789467883.962271,2012,2879,ɔ
1789467883.96783,2144,2878,ɔ
1789467883.9682639,2232,2879,ɔ
1789467883.969153,1958,2877,ɔ
1789467883.9707992,1965,2878,ɔ
1789467883.972665,2320,2882,ɔ
1789467883.974257,2300,2881,ɔ
1789467883.975878,2170,2879,ɔ
1789467883.978266,2032,2878,ɔ
1789467883.979885,1967,2880,ɔ
1789467883.9822311,2124,2880,ɔ
1789467883.984591,2159,2881,ɔ
1789467883.9859,2048,2878,ɔ
1789467883.988462,2039,2879,ɔ
1789467883.989874,2189,2879,ɔ
1789467883.992182,2256,2881,ɔ
1789467883.99473,2040,2878,ɔ
1789467883.9958148,1999,2878,ɔ
1789467883.997877,2206,2879,ɔ
1789467884.000203,2080,2878,ɔ
1789467884.002756,1962,2880,ɔ
1789467884.00405,2028,2878,ɔ
1789467884.006599,2211,2880,ɔ
1789467884.0078888,2263,2881,ɔ
1789467884.012793,2035,2880,ɔ
1789467884.013611,2130,2879,ɔ
1789467884.0158038,1964,2879,ɔ
1789467884.015914,1937,2879,ɔ
1789467884.019149,2192,2880,ɔ
1789467884.0208058,2080,2880,ɔ
1789467884.023194,2070,2879,ɔ
1789467884.025105,2072,2880,ɔ
1789467884.026156,2158,2879,ɔ
1789467884.028471,2106,2879,ɔ
1789467884.030549,2187,2879,ɔ
1789467884.031852,2219,2882,ɔ
1789467884.034407,1982,2878,ɔ
1789467884.035773,1989,2880,ɔ
1789467884.038004,2124,2879,ɔ
1789467884.040069,2083,2879,ɔ
1789467884.042379,2080,2880,ɔ
1789467884.044949,2009,2879,ɔ
1789467884.0460072,2038,2880,ɔ
1789467884.048311,2121,2881,ɔ
1789467884.0503721,2133,2882,ɔ
1789467884.05267,2019,2880,ɔ
1789467884.053792,2068,2880,ɔ
1789467884.0583758,2145,2879,ɔ
1789467884.0584772,2173,2880,ɔ
1789467884.060933,2050,2879,ɔ
1789467884.062646,2034,2879,ɔ
1789467884.064332,2108,2878,ɔ
1789467884.065998,2122,2880,ɔ
1789467884.068219,2031,2877,ɔ
1789467884.070175,2029,2879,ɔ
1789467884.072482,2194,2878,ɔ
1789467884.074944,2210,2881,ɔ
1789467884.075999,2095,2880,ɔ
1789467884.078253,1970,2879,ɔ
1789467884.0808032,2071,2878,ɔ
1789467884.0821,2152,2880,ɔ
1789467884.084351,2116,2877,ɔ
1789467884.0868962,2050,2879,ɔ
1789467884.088191,2134,2879,ɔ
1789467884.090493,2173,2880,ɔ
1789467884.091816,2198,2880,ɔ
1789467884.094131,2156,2879,ɔ
1789467884.096679,2077,2879,ɔ
1789467884.097968,2131,2878,ɔ
1789467884.102953,2125,2880,ɔ
1789467884.103074,2020,2879,ɔ
1789467884.105453,2050,2878,ɔ
1789467884.107297,2124,2879,ɔ
1789467884.108816,2160,2880,ɔ
1789467884.110503,2052,2878,ɔ
1789467884.112693,2090,2879,ɔ
1789467884.114611,2123,2878,ɔ
1789467884.116954,2107,2880,ɔ
1789467884.118032,2012,2878,ɔ
1789467884.120352,1955,2878,ɔ
1789467884.122659,2076,2878,ɔ
1789467884.123858,2090,2878,ɔ
1789467884.126167,2059,2878,ɔ
1789467884.1282828,2120,2878,ɔ
1789467884.1306958,2088,2879,ɔ
1789467884.131989,2166,2878,ɔ
1789467884.134052,2111,2877,ɔ
1789467884.136297,2054,2879,ɔ
1789467884.13884,2153,2878,ɔ
1789467884.14013,2286,2880,ɔ
1789467884.1424341,2133,2879,ɔ
1789467884.147638,2022,2880,ɔ
1789467884.147746,2007,2879,ɔ
1789467884.148484,2052,2878,ɔ
1789467884.150335,2097,2881,ɔ
1789467884.152234,2005,2879,ɔ
1789467884.155309,2109,2879,ɔ
1789467884.157503,2204,2882,ɔ
1789467884.1590872,2145,2880,ɔ
1789467884.160212,2041,2880,ɔ
1789467884.162518,1965,2878,ɔ
1789467884.164741,2078,2880,ɔ
1789467884.165822,2229,2880,ɔ
1789467884.168149,2038,2879,ɔ
1789467884.170409,2000,2879,ɔ
1789467884.172483,2169,2880,ɔ
1789467884.1747682,2207,2881,ɔ
1789467884.176032,2128,2879,ɔ
1789467884.178582,2061,2880,ɔ
1789467884.180647,2062,2878,ɔ
1789467884.182986,2214,2879,ɔ
1789467884.184287,2082,2879,ɔ
1789467884.186603,2016,2879,ɔ
1789467884.187901,2011,2880,ɔ
1789467884.192779,2125,2879,ɔ
1789467884.1929312,2263,2880,ɔ
1789467884.1949031,2106,2878,ɔ
1789467884.1965098,2039,2879,ɔ
1789467884.19859,2086,2880,ɔ
1789467884.200141,2037,2878,ɔ
1789467884.202282,1981,2879,ɔ
1789467884.203965,2142,2880,ɔ
1789467884.206272,2231,2881,ɔ
1789467884.208821,2180,2880,ɔ
1789467884.210015,2107,2878,ɔ
1789467884.2124002,2033,2879,ɔ
1789467884.214697,2085,2879,ɔ
1789467884.215801,2143,2881,ɔ
1789467884.218293,1987,2877,ɔ
1789467884.220963,2032,2879,ɔ
1789467884.222259,2182,2878,ɔ
1789467884.224643,2194,2880,ɔ
1789467884.22696,2077,2879,ɔ
1789467884.228,2085,2879,ɔ
1789467884.2305548,2057,2878,ɔ
1789467884.232855,2211,2880,ɔ
1789467884.237348,2102,2879,ɔ
1789467884.2378109,2011,2878,ɔ
1789467884.238187,2090,2879,ɔ
1789467884.241351,2162,2879,ɔ
1789467884.243087,2119,2878,ɔ
1789467884.244555,2046,2879,ɔ
1789467884.2466938,2016,2878,ɔ
1789467884.248323,2150,2879,ɔ
1789467884.25074,2100,2880,ɔ
1789467884.251817,1980,2878,ɔ
1789467884.254138,2031,2879,ɔ
1789467884.256402,2166,2878,ɔ
1789467884.258991,2129,2880,ɔ
1789467884.2600472,2042,2879,ɔ
1789467884.262357,2058,2879,ɔ
1789467884.264726,2112,2879,ɔ
1789467884.265793,2137,2879,ɔ
1789467884.2683399,2004,2879,ɔ
1789467884.270638,2059,2879,ɔ
1789467884.271785,2160,2879,ɔ
1789467884.274335,2145,2880,ɔ
1789467884.276636,2100,2879,ɔ
1789467884.282573,2056,2878,ɔ
1789467884.283336,2088,2878,ɔ
1789467884.2844858,2182,2879,ɔ
1789467884.2845812,1991,2878,ɔ
1789467884.286459,1963,2878,ɔ
1789467884.289396,2118,2878,ɔ
1789467884.291479,2209,2881,ɔ
1789467884.293497,2134,2879,ɔ
1789467884.2948182,2033,2878,ɔ
1789467884.295962,2095,2878,ɔ
1789467884.2980301,2167,2879,ɔ
1789467884.3003469,2048,2877,ɔ
1789467884.3026571,2010,2878,ɔ
1789467884.303819,2042,2879,ɔ
1789467884.3060732,2210,2880,ɔ
1789467884.308136,2197,2880,ɔ
1789467884.310296,2099,2879,ɔ
1789467884.3124568,2061,2879,ɔ
1789467884.313812,2070,2879,ɔ
1789467884.315891,2129,2880,ɔ
1789467884.318012,2024,2878,ɔ
1789467884.320375,2049,2878,ɔ
1789467884.326463,2140,2880,ɔ
1789467884.3269088,2159,2879,ɔ
1789467884.3274639,2039,2878,ɔ
1789467884.3290958,2074,2879,ɔ
1789467884.330534,2156,2877,ɔ
1789467884.332522,2104,2879,ɔ
1789467884.334146,1923,2879,ɔ
1789467884.336144,2073,2879,ɔ
1789467884.338212,2135,2879,ɔ
1789467884.3407722,2222,2880,ɔ
1789467884.342067,2185,2879,ɔ
1789467884.344152,2016,2878,ɔ
1789467884.346702,2032,2879,ɔ
1789467884.347836,2126,2879,ɔ
1789467884.350316,2083,2878,ɔ
1789467884.352871,2042,2880,ɔ
1789467884.354162,2056,2880,ɔ
1789467884.3566751,2138,2879,ɔ
1789467884.3579662,2164,2879,ɔ
1789467884.360512,2051,2878,ɔ
1789467884.361802,2010,2879,ɔ
1789467884.364365,2073,2880,ɔ
1789467884.366435,2157,2880,ɔ
1789467884.371383,2033,2879,ɔ
1789467884.371834,2027,2880,ɔ
1789467884.372318,2142,2878,ɔ
1789467884.375427,2134,2880,ɔ
1789467884.377253,2069,2880,ɔ
1789467884.378609,2014,2878,ɔ
1789467884.380585,2055,2879,ɔ
1789467884.382902,2160,2881,ɔ
1789467884.3842251,2055,2877,ɔ
1789467884.386702,1983,2879,ɔ
1789467884.38785,2091,2878,ɔ
1789467884.39017,2167,2880,ɔ
1789467884.392519,2138,2879,ɔ
1789467884.3938482,2053,2879,ɔ
1789467884.396405,2019,2879,ɔ
1789467884.397821,2040,2880,ɔ
1789467884.399957,2085,2878,ɔ
1789467884.4025059,2082,2878,ɔ
1789467884.404824,2033,2878,ɔ
1789467884.4058828,2157,2879,ɔ
1789467884.4084291,2112,2879,ɔ
1789467884.4107351,2081,2878,ɔ
1789467884.412076,2026,2879,ɔ
1789467884.4160268,2109,2879,ɔ
1789467884.416493,2141,2879,ɔ
1789467884.4187388,1920,2879,ɔ
1789467884.420547,2104,2880,ɔ
1789467884.4221509,2329,2882,ɔ
1789467884.42565,2345,2881,ɔ
1789467884.4272902,1885,2877,ɔ
1789467884.42859,1936,2879,ɔ
1789467884.4306712,2207,2880,ɔ
1789467884.4319649,2045,2880,ɔ
1789467884.4345422,1986,2878,ɔ
1789467884.435839,2095,2879,ɔ
1789467884.4381518,1870,2880,ɔ
1789467884.440681,1992,2878,ɔ
1789467884.441841,2227,2879,ɔ
1789467884.444392,2219,2879,ɔ
1789467884.446692,2483,2880,ɔ
1789467884.44781,2034,2879,ɔ
1789467884.450361,1828,2878,ɔ
1789467884.4527261,1988,2878,ɔ
1789467884.454016,2109,2879,ɔ
1789467884.456501,2212,2881,ɔ
1789467884.460259,2089,2880,ɔ
1789467884.460691,1797,2876,ɔ
1789467884.4627788,1992,2878,ɔ
1789467884.464671,2107,2879,ɔ
1789467884.46618,2081,2880,ɔ
1789467884.467902,1914,2877,ɔ
1789467884.469866,2077,2879,ɔ
1789467884.472691,2232,2879,ɔ
1789467884.473984,2266,2881,ɔ
1789467884.476533,2051,2879,ɔ
1789467884.47783,1897,2878,ɔ
1789467884.480387,1969,2879,ɔ
1789467884.482738,2203,2880,ɔ
1789467884.4840288,2153,2880,ɔ
1789467884.486395,2030,2878,ɔ
1789467884.4889548,2186,2880,ɔ
1789467884.489999,2285,2880,ɔ
1789467884.492238,1885,2877,ɔ
1789467884.4945412,1964,2880,ɔ
1789467884.4958332,2341,2879,ɔ
1789467884.4981859,1925,2876,ɔ
1789467884.5043159,1917,2879,ɔ
1789467884.504703,1958,2878,ɔ
1789467884.505149,1942,2878,ɔ
1789467884.5067341,2064,2878,ɔ
1789467884.508138,2069,2880,ɔ
1789467884.511437,2037,2879,ɔ
1789467884.5134542,1975,2879,ɔ
1789467884.515451,1958,2879,ɔ
1789467884.516512,2665,2881,ɔ
1789467884.517872,2239,2880,ɔ
1789467884.52043,2030,2879,ɔ
1789467884.5218382,1543,2880,ɔ
1789467884.524153,1750,2878,ɔ
1789467884.526452,2291,2879,ɔ
1789467884.5287528,2124,2880,ɔ
1789467884.529834,2185,2879,ɔ
1789467884.5323641,1909,2879,ɔ
1789467884.534674,1881,2877,ɔ
1789467884.535969,1798,2879,ɔ
1789467884.538208,2158,2879,ɔ
1789467884.540755,2321,2881,ɔ
1789467884.5420449,2100,2880,ɔ
1789467884.5445929,2372,2879,ɔ
1789467884.549079,2047,2879,ɔ
1789467884.549506,1662,2878,ɔ
1789467884.551633,1965,2877,ɔ
1789467884.553152,2335,2881,ɔ
1789467884.555404,1747,2879,ɔ
1789467884.556864,2280,2880,ɔ
1789467884.558851,2089,2880,ɔ
1789467884.560875,1616,2877,ɔ
1789467884.561926,1780,2877,ɔ
1789467884.564246,2460,2880,ɔ
1789467884.566727,2197,2879,ɔ
1789467884.5678248,1866,2878,ɔ
1789467884.570108,1951,2878,ɔ
1789467884.572441,1475,2878,ɔ
1789467884.574755,2156,2877,ɔ
1789467884.575818,2325,2880,ɔ
1789467884.5781262,1916,2879,ɔ
1789467884.580191,1770,2879,ɔ
1789467884.5825431,1500,2877,ɔ
1789467884.58387,1829,2878,ɔ
1789467884.586184,1963,2880,ɔ
1789467884.5887492,2039,2879,ɔ
1789467884.5900512,2026,2879,ɔ
1789467884.593924,1996,2877,ɔ
1789467884.594362,1912,2879,ɔ
1789467884.596452,1683,2876,ɔ
1789467884.599164,2139,2880,ɔ
1789467884.601541,2032,2879,ɔ
1789467884.603605,1396,2879,ɔ
1789467884.605824,1977,2878,ɔ
1789467884.6058629,2367,2880,ɔ
1789467884.6084201,2583,2881,ɔ
1789467884.610881,1409,2877,ɔ
1789467884.611941,2062,2879,ɔ
1789467884.614246,2593,2881,ɔ
1789467884.6163142,2214,2880,ɔ
1789467884.618491,1279,2878,ɔ
1789467884.619782,1344,2877,ɔ
1789467884.622334,2014,2878,ɔ
1789467884.624651,2028,2878,ɔ
1789467884.625946,1565,2877,ɔ
1789467884.628206,1390,2878,ɔ
1789467884.630762,1461,2877,ɔ
1789467884.632027,1767,2877,ɔ
1789467884.634327,1615,2878,ɔ
1789467884.638727,1810,2876,ɔ
1789467884.638837,1679,2878,ɔ
1789467884.6409862,1854,2878,ɔ
1789467884.643132,1804,2877,ɔ
1789467884.644672,1620,2877,ɔ
1789467884.646015,1874,2879,ɔ
1789467884.6481888,1832,2877,ɔ
1789467884.6498291,1673,2877,ɔ
1789467884.65235,1812,2878,ɔ
1789467884.65467,2259,2878,ɔ
1789467884.655971,1349,2878,ɔ
1789467884.6585221,1612,2878,ɔ
1789467884.6608279,1682,2878,ɔ
1789467884.661885,1346,2877,ɔ
1789467884.664431,1695,2878,ɔ
1789467884.6667461,1873,2876,ɔ
1789467884.6680372,1871,2878,ɔ
1789467884.670582,1473,2877,ɔ
1789467884.6728861,1947,2877,ɔ
1789467884.673939,2105,2878,ɔ
1789467884.676484,1964,2877,ɔ
1789467884.6778328,1973,2879,ɔ
1789467884.682614,1804,2877,ɔ
1789467884.683042,2205,2880,ɔ
1789467884.685079,1781,2877,ɔ
1789467884.686846,1702,2878,ɔ
1789467884.6885078,1925,2877,ɔ
1789467884.690219,2105,2878,ɔ
1789467884.692331,2146,2880,ɔ
1789467884.693999,1858,2879,ɔ
1789467884.696304,1553,2877,ɔ
1789467884.698868,1674,2876,ɔ
1789467884.7001688,2215,2879,ɔ
1789467884.70272,1692,2877,ɔ
1789467884.70401,1977,2879,ɔ
1789467884.7065558,2146,2879,ɔ
1789467884.7078478,1922,2876,ɔ
1789467884.710409,2014,2879,ɔ
1789467884.7127302,1791,2877,ɔ
1789467884.714026,1922,2877,ɔ
1789467884.716341,2147,2880,ɔ
1789467884.718891,1720,2878,ɔ
1789467884.7199411,1850,2879,ɔ
1789467884.722326,1994,2879,ɔ
1789467884.7268212,2060,2878,ɔ
1789467884.727256,1927,2877,ɔ
1789467884.729394,1866,2877,ɔ
1789467884.731224,1976,2880,ɔ
1789467884.73245,1903,2877,ɔ
1789467884.734359,2144,2879,ɔ
1789467884.7365901,1795,2878,ɔ
1789467884.7385652,1812,2877,ɔ
1789467884.740623,1932,2878,ɔ
1789467884.741924,2132,2881,ɔ
1789467884.7442439,2118,2879,ɔ
1789467884.746326,1681,2877,ɔ
1789467884.7488809,2035,2880,ɔ
1789467884.7501729,1964,2877,ɔ
1789467884.752231,1793,2878,ɔ
1789467884.7547789,2083,2878,ɔ
1789467884.7560692,2012,2878,ɔ
1789467884.758304,1899,2878,ɔ
1789467884.76085,1825,2876,ɔ
1789467884.7621388,2115,2879,ɔ
1789467884.764438,2193,2880,ɔ
1789467884.765783,2124,2880,ɔ
1789467884.774153,1851,2877,ɔ
1789467884.774285,1814,2878,ɔ
1789467884.774372,2194,2880,ɔ
1789467884.7761862,2376,2881,ɔ
1789467884.77633,2008,2880,ɔ
1789467884.7794602,2175,2880,ɔ
1789467884.7817311,1721,2877,ɔ
1789467884.7818801,2116,2879,ɔ
1789467884.7848692,1773,2879,ɔ
1789467884.786168,1897,2878,ɔ
1789467884.788485,2103,2879,ɔ
1789467884.790792,1920,2879,ɔ
1789467884.791848,1999,2879,ɔ
1789467884.7940118,1974,2879,ɔ
1789467884.796433,1969,2880,ɔ
1789467884.797786,2123,2880,ɔ
1789467884.800339,2162,2880,ɔ
1789467884.802879,1966,2878,ɔ
1789467884.80417,1949,2879,ɔ
1789467884.806724,2229,2879,ɔ
1789467884.8080142,2069,2880,ɔ
1789467884.810559,1984,2879,ɔ
1789467884.811852,2009,2879,ɔ
1789467884.818066,2240,2880,ɔ
1789467884.8181398,1981,2877,ɔ
1789467884.8182678,1981,2878,ɔ
1789467884.8201659,1993,2879,ɔ
1789467884.823194,2210,2878,ɔ
1789467884.8251169,2054,2877,ɔ
1789467884.827449,2065,2879,ɔ
1789467884.829608,1939,2878,ɔ
1789467884.8309052,1949,2879,ɔ
1789467884.8321989,2055,2879,ɔ
1789467884.834516,2114,2880,ɔ
1789467884.836573,1941,2878,ɔ
1789467884.837868,2087,2879,ɔ
1789467884.8399308,2202,2881,ɔ
1789467884.842478,2118,2880,ɔ
1789467884.84479,2075,2878,ɔ
1789467884.845833,1959,2879,ɔ
1789467884.848383,2040,2880,ɔ
1789467884.85082,2156,2880,ɔ
1789467884.851866,2016,2878,ɔ
1789467884.854412,1887,2879,ɔ
1789467884.856721,2132,2879,ɔ
1789467884.85801,2354,2880,ɔ
1789467884.862241,1959,2881,ɔ
1789467884.8630989,1858,2876,ɔ
1789467884.864963,1996,2879,ɔ
1789467884.866755,2109,2879,ɔ
1789467884.8683038,1994,2877,ɔ
1789467884.870004,1988,2880,ɔ
1789467884.8723269,2144,2879,ɔ
1789467884.874272,1913,2878,ɔ
1789467884.876833,2094,2880,ɔ
1789467884.878137,1979,2879,ɔ
1789467884.880703,2140,2878,ɔ
1789467884.881999,2171,2880,ɔ
1789467884.8843,2034,2879,ɔ
1789467884.8867579,1840,2879,ɔ
1789467884.888055,2129,2879,ɔ
1789467884.890599,2248,2880,ɔ
1789467884.8928242,2006,2879,ɔ
1789467884.894114,1889,2877,ɔ
1789467884.8966599,2632,2881,ɔ
1789467884.897842,2127,2879,ɔ
1789467884.90015,2064,2879,ɔ
1789467884.902457,2030,2878,ɔ
1789467884.907462,2047,2879,ɔ
1789467884.908622,2156,2879,ɔ
1789467884.909748,2124,2880,ɔ
1789467884.910058,2009,2881,ɔ
1789467884.9126148,1845,2879,ɔ
1789467884.914718,1965,2879,ɔ
1789467884.9170702,2007,2880,ɔ
1789467884.919083,1866,2878,ɔ
1789467884.9203808,1974,2879,ɔ
1789467884.922698,2086,2879,ɔ
1789467884.923792,2308,2880,ɔ
1789467884.9261272,2076,2879,ɔ
1789467884.92844,2217,2879,ɔ
1789467884.9298172,2403,2880,ɔ
1789467884.9319308,2227,2880,ɔ
1789467884.934478,2033,2877,ɔ
1789467884.936778,1637,2879,ɔ
1789467884.937939,2143,2878,ɔ
1789467884.940484,2253,2881,ɔ
1789467884.941817,2252,2880,ɔ
1789467884.9443688,2122,2879,ɔ
1789467884.9466739,2372,2881,ɔ
1789467884.94798,1772,2876,ɔ
1789467884.952065,1836,2878,ɔ
1789467884.952848,2136,2878,ɔ
1789467884.9542542,2077,2878,ɔ
1789467884.956138,2220,2881,ɔ
1789467884.959071,1993,2879,ɔ
1789467884.961328,1978,2878,ɔ
1789467884.9633641,1921,2879,ɔ
1789467884.964663,1921,2879,ɔ
1789467884.9659572,2208,2881,ɔ
1789467884.9685051,2164,2880,ɔ
1789467884.969804,2033,2880,ɔ
1789467884.97187,2183,2879,ɔ
1789467884.974418,2206,2881,ɔ
1789467884.9757912,2147,2879,ɔ
1789467884.9783418,1893,2878,ɔ
1789467884.980851,1995,2878,ɔ
1789467884.982142,2132,2880,ɔ
1789467884.9847429,2297,2881,ɔ
1789467884.9860349,2164,2878,ɔ
1789467884.988584,2155,2879,ɔ
1789467884.9898748,1952,2878,ɔ
1789467884.992065,2192,2880,ɔ
1789467884.997807,1875,2877,ɔ
1789467884.9990988,2050,2879,ɔ
1789467884.9993,2057,2878,ɔ
1789467885.0011299,2084,2878,ɔ
1789467885.003019,2081,2878,ɔ
1789467885.00446,1989,2879,ɔ
1789467885.00695,2129,2880,ɔ
1789467885.008826,2095,2880,ɔ
1789467885.010123,2028,2879,ɔ
1789467885.012671,2020,2879,ɔ
1789467885.013825,1931,2879,ɔ
1789467885.0163121,2215,2879,ɔ
1789467885.018751,1830,2878,ɔ
1789467885.020048,1934,2879,ɔ
1789467885.02218,2214,2879,ɔ
1789467885.024499,1997,2879,ɔ
1789467885.025889,2183,2880,ɔ
1789467885.0279539,2214,2878,ɔ
1789467885.030508,1996,2879,ɔ
1789467885.032584,1994,2878,ɔ
1789467885.0348868,1796,2877,ɔ
1789467885.036187,1899,2878,ɔ
1789467885.038451,2080,2880,ɔ
1789467885.042776,2244,2880,ɔ
1789467885.043529,2118,2880,ɔ
1789467885.0451121,1960,2878,ɔ
1789467885.0470731,2049,2878,ɔ
1789467885.04888,2198,2880,ɔ
1789467885.050494,2146,2880,ɔ
1789467885.05305,1917,2880,ɔ
1789467885.0547042,2057,2880,ɔ
1789467885.056001,2135,2878,ɔ
1789467885.058188,2300,2880,ɔ
1789467885.06075,2275,2879,ɔ
1789467885.062049,2249,2879,ɔ
1789467885.064617,1839,2877,ɔ
1789467885.065912,2027,2878,ɔ
1789467885.068461,1862,2878,ɔ
1789467885.069797,2093,2879,ɔ
1789467885.071863,2198,2877,ɔ
1789467885.07392,1932,2878,ɔ
1789467885.0762198,1959,2880,ɔ
1789467885.07877,1953,2879,ɔ
1789467885.0798311,1992,2878,ɔ
1789467885.081939,2305,2880,ɔ
1789467885.087944,2210,2882,ɔ
1789467885.0883682,2096,2878,ɔ
1789467885.089143,2010,2879,ɔ
1789467885.0905778,2055,2878,ɔ
1789467885.092454,2068,2881,ɔ
1789467885.095521,2145,2879,ɔ
1789467885.09804,1964,2879,ɔ
1789467885.0982552,2257,2878,ɔ
1789467885.1001978,2124,2880,ɔ
1789467885.102474,1842,2878,ɔ
1789467885.103848,2232,2880,ɔ
1789467885.106448,2088,2879,ɔ
1789467885.108638,1873,2877,ɔ
1789467885.10993,2195,2880,ɔ
1789467885.1119978,2096,2879,ɔ
1789467885.114311,2062,2879,ɔ
1789467885.116867,2168,2880,ɔ
1789467885.1179159,1836,2878,ɔ
1789467885.120467,1854,2879,ɔ
1789467885.1218581,2337,2882,ɔ
1789467885.123935,2466,2881,ɔ
1789467885.126482,2118,2879,ɔ
1789467885.1285498,1710,2877,ɔ
1789467885.13323,1895,2879,ɔ
1789467885.134024,2191,2879,ɔ
1789467885.134521,1986,2878,ɔ
1789467885.136414,1905,2879,ɔ
1789467885.1390321,2196,2878,ɔ
1789467885.141271,2173,2880,ɔ
1789467885.143882,2109,2880,ɔ
1789467885.1441321,2144,2880,ɔ
1789467885.1467168,2132,2881,ɔ
1789467885.147872,2093,2880,ɔ
1789467885.1502578,2185,2880,ɔ
1789467885.1527302,2093,2878,ɔ
1789467885.1540291,2129,2879,ɔ
1789467885.1563299,2233,2880,ɔ
1789467885.1583848,2058,2879,ɔ
1789467885.160934,1959,2879,ɔ
1789467885.162224,1894,2878,ɔ
1789467885.164486,1856,2878,ɔ
1789467885.1658251,2251,2879,ɔ
1789467885.1678872,1954,2878,ɔ
1789467885.170323,1872,2879,ɔ
1789467885.172513,2125,2878,ɔ
1789467885.173804,2105,2880,ɔ
1789467885.178124,2040,2879,ɔ
1789467885.1789372,2069,2879,ɔ
1789467885.181046,2140,2879,ɔ
1789467885.184076,2189,2880,ɔ
1789467885.1848829,2173,2881,ɔ
1789467885.188918,1989,2878,ɔ
1789467885.189076,2071,2879,ɔ
1789467885.191075,2217,2880,ɔ
1789467885.1923761,2180,2880,ɔ
1789467885.1947038,2061,2879,ɔ
1789467885.195998,2113,2878,ɔ
1789467885.19808,2166,2878,ɔ
1789467885.200638,1880,2878,ɔ
1789467885.202985,1920,2879,ɔ
1789467885.204282,1985,2878,ɔ
1789467885.206833,2046,2877,ɔ
1789467885.208124,2162,2880,ɔ
1789467885.2104251,2085,2879,ɔ
1789467885.21276,2000,2879,ɔ
1789467885.2140532,2055,2879,ɔ
1789467885.216625,2133,2879,ɔ
1789467885.217889,2014,2879,ɔ
1789467885.2201731,2159,2879,ɔ
1789467885.2252002,2266,2882,ɔ
1789467885.225667,1964,2877,ɔ
1789467885.227246,2052,2880,ɔ
1789467885.2289898,1954,2878,ɔ
1789467885.230796,2065,2879,ɔ
1789467885.232241,2215,2879,ɔ
1789467885.234637,2107,2880,ɔ
1789467885.236613,1990,2878,ɔ
1789467885.2379048,2070,2879,ɔ
1789467885.2402198,2175,2877,ɔ
1789467885.242541,2166,2880,ɔ
1789467885.243834,2104,2879,ɔ
1789467885.2463849,2060,2879,ɔ
1789467885.248689,2117,2878,ɔ
1789467885.2499788,2058,2880,ɔ
1789467885.2525032,1956,2879,ɔ
1789467885.254881,2057,2879,ɔ
1789467885.256171,2198,2879,ɔ
1789467885.258719,2185,2880,ɔ
1789467885.2600079,2088,2880,ɔ
1789467885.262312,2063,2878,ɔ
1789467885.264863,2082,2879,ɔ
1789467885.266061,2114,2879,ɔ
1789467885.26999,1980,2879,ɔ
1789467885.270394,2032,2879,ɔ
1789467885.2726378,2152,2879,ɔ
1789467885.274432,2213,2881,ɔ
1789467885.277447,2148,2878,ɔ
1789467885.279937,2067,2879,ɔ
1789467885.2800488,2041,2878,ɔ
1789467885.282966,2172,2880,ɔ
1789467885.28426,2063,2878,ɔ
1789467885.2868102,1881,2879,ɔ
1789467885.287871,2070,2878,ɔ
1789467885.2904232,2235,2881,ɔ
1789467885.292722,2193,2879,ɔ
1789467885.294013,2004,2878,ɔ
1789467885.296315,2017,2879,ɔ
1789467885.298624,2118,2880,ɔ
1789467885.3009229,2093,2880,ɔ
1789467885.302214,1978,2877,ɔ
1789467885.3047638,2065,2880,ɔ
1789467885.3060532,2188,2878,ɔ
1789467885.308351,2205,2881,ɔ
1789467885.310476,2113,2879,ɔ
1789467885.315562,2094,2878,ɔ
1789467885.316077,1990,2879,ɔ
1789467885.316857,2091,2879,ɔ
1789467885.3183439,2004,2877,ɔ
1789467885.3198762,2050,2879,ɔ
1789467885.323182,2158,2878,ɔ
1789467885.325671,2123,2880,ɔ
1789467885.3272982,2065,2880,ɔ
1789467885.328594,2106,2879,ɔ
1789467885.3298318,2101,2878,ɔ
1789467885.332142,2225,2880,ɔ
1789467885.334451,2165,2879,ɔ
1789467885.335832,2049,2879,ɔ
1789467885.337906,2123,2878,ɔ
1789467885.340338,2200,2880,ɔ
1789467885.342884,2162,2879,ɔ
1789467885.3441741,2049,2879,ɔ
1789467885.3467278,2033,2878,ɔ
1789467885.3478029,2109,2879,ɔ
1789467885.350354,2247,2881,ɔ
1789467885.352421,2057,2878,ɔ
1789467885.3538072,2004,2878,ɔ
1789467885.35611,2195,2880,ɔ
1789467885.3609998,2333,2880,ɔ
1789467885.362112,2147,2878,ɔ
1789467885.362198,2098,2879,ɔ
1789467885.36512,2103,2878,ɔ
1789467885.3669078,2135,2878,ɔ
1789467885.368206,1975,2877,ɔ
1789467885.37068,2089,2879,ɔ
1789467885.372334,2211,2879,ɔ
1789467885.374887,2309,2881,ɔ
1789467885.376181,2106,2878,ɔ
1789467885.378737,2017,2877,ɔ
1789467885.380029,2150,2879,ɔ
1789467885.382575,2220,2879,ɔ
1789467885.383863,2084,2878,ɔ
1789467885.3864179,1967,2878,ɔ
1789467885.387817,2151,2878,ɔ
1789467885.390118,2238,2880,ɔ
1789467885.392417,2126,2879,ɔ
1789467885.394484,1984,2878,ɔ
1789467885.396784,2116,2879,ɔ
1789467885.397904,2146,2880,ɔ
1789467885.400304,2087,2878,ɔ
1789467885.404736,1961,2878,ɔ
1789467885.4048572,2036,2880,ɔ
1789467885.40719,2279,2882,ɔ
1789467885.408674,2142,2879,ɔ
1789467885.4105349,2034,2879,ɔ
1789467885.412062,2082,2879,ɔ
1789467885.414547,2170,2880,ɔ
1789467885.4171531,2219,2880,ɔ
1789467885.4184709,2026,2880,ɔ
1789467885.420793,2067,2879,ɔ
1789467885.42209,2181,2878,ɔ
1789467885.424453,2225,2882,ɔ
1789467885.4258292,2129,2878,ɔ
1789467885.42838,2065,2878,ɔ
1789467885.4306931,2076,2879,ɔ
1789467885.431822,2223,2879,ɔ
1789467885.4338849,2027,2877,ɔ
1789467885.4359941,2009,2879,ɔ
1789467885.4380631,2191,2879,ɔ
1789467885.440375,2229,2880,ɔ
1789467885.442923,2300,2880,ɔ
1789467885.444214,2002,2879,ɔ
1789467885.449845,2008,2879,ɔ
1789467885.4502988,2185,2879,ɔ
1789467885.451115,2166,2880,ɔ
1789467885.452588,2028,2880,ɔ
1789467885.454178,2094,2879,ɔ
1789467885.4575381,2219,2880,ɔ
1789467885.4599848,2163,2880,ɔ
1789467885.46014,2073,2878,ɔ
1789467885.462081,2051,2878,ɔ
1789467885.464637,2096,2879,ɔ
1789467885.4658718,2190,2880,ɔ
1789467885.468239,2030,2877,ɔ
1789467885.4705431,2030,2880,ɔ
1789467885.4718359,2110,2878,ɔ
1789467885.4743218,2224,2879,ɔ
1789467885.476392,2140,2880,ɔ
1789467885.4787042,2145,2879,ɔ
1789467885.480003,2225,2879,ɔ
1789467885.482692,2360,2879,ɔ
1789467885.4839911,2321,2880,ɔ
1789467885.486295,2230,2878,ɔ
1789467885.488363,2347,2881,ɔ
1789467885.4908748,2461,2880,ɔ
1789467885.495625,2272,2880,ɔ
1789467885.4968529,2102,2879,ɔ
1789467885.498173,2117,2878,ɔ
1789467885.4983969,2614,2881,ɔ
1789467885.500844,2424,2881,ɔ
1789467885.50325,2078,2878,ɔ
1789467885.5057752,2059,2878,ɔ
1789467885.5059578,2351,2880,ɔ
1789467885.508778,2540,2879,ɔ
1789467885.5098398,2102,2878,ɔ
1789467885.512169,2240,2879,ɔ
1789467885.514509,2264,2879,ɔ
1789467885.516611,2317,2880,ɔ
1789467885.518689,2116,2878,ɔ
1789467885.5199811,1997,2879,ɔ
1789467885.522291,2316,2881,ɔ
1789467885.524569,2626,2881,ɔ
1789467885.5258691,2358,2880,ɔ
1789467885.528043,2104,2879,ɔ
1789467885.5303512,2227,2878,ɔ
1789467885.5326579,2107,2880,ɔ
1789467885.533995,2016,2878,ɔ
1789467885.536085,2268,2879,ɔ
1789467885.5415838,2106,2879,ɔ
1789467885.542509,2211,2879,ɔ
1789467885.543371,2234,2880,ɔ
1789467885.5445728,2089,2878,ɔ
1789467885.546386,2510,2880,ɔ
1789467885.552088,2366,2880,ɔ
1789467885.552456,1940,2877,ɔ
1789467885.552683,2087,2878,ɔ
1789467885.554515,2253,2879,ɔ
1789467885.5558379,2178,2878,ɔ
1789467885.5582001,2132,2878,ɔ
1789467885.562943,2044,2879,ɔ
1789467885.563071,2143,2878,ɔ
1789467885.56499,2127,2878,ɔ
1789467885.566865,2121,2879,ɔ
1789467885.5684202,2022,2879,ɔ
1789467885.572521,2188,2879,ɔ
1789467885.572716,2245,2878,ɔ
1789467885.574723,2388,2881,ɔ
1789467885.575894,2399,2880,ɔ
1789467885.578451,2193,2879,ɔ
1789467885.580815,1819,2876,ɔ
1789467885.581862,2012,2877,ɔ
1789467885.5841799,2324,2881,ɔ
1789467885.5864918,2010,2879,ɔ
1789467885.588554,2179,2878,ɔ
1789467885.5898602,2371,2881,ɔ
1789467885.591948,2095,2879,ɔ
1789467885.594249,1958,2880,ɔ
1789467885.596432,2322,2878,ɔ
1789467885.598517,2246,2881,ɔ
1789467885.599822,2151,2880,ɔ
1789467885.6023932,2134,2878,ɔ
1789467885.605129,2261,2879,ɔ
1789467885.609208,2471,2881,ɔ
1789467885.610473,1981,2879,ɔ
1789467885.610961,1887,2877,ɔ
1789467885.612469,1995,2879,ɔ
1789467885.614309,2125,2878,ɔ
1789467885.619929,2121,2881,ɔ
1789467885.620189,1891,2879,ɔ
1789467885.62036,2350,2881,ɔ
1789467885.622493,2198,2881,ɔ
1789467885.625057,1831,2876,ɔ
1789467885.629875,1950,2877,ɔ
1789467885.630414,2246,2879,ɔ
1789467885.6308339,2199,2880,ɔ
1789467885.6327949,2112,2880,ɔ
1789467885.6344802,2113,2880,ɔ
1789467885.6360672,1879,2878,ɔ
1789467885.637996,2133,2878,ɔ
1789467885.640599,2163,2880,ɔ
1789467885.6426828,2153,2881,ɔ
1789467885.643981,2138,2879,ɔ
1789467885.646296,2038,2879,ɔ
1789467885.6490638,2172,2880,ɔ
1789467885.650366,2056,2876,ɔ
1789467885.6532202,1919,2877,ɔ
1789467885.6545348,2123,2879,ɔ
1789467885.657096,2209,2880,ɔ
1789467885.65815,2230,2879,ɔ
1789467885.660861,2077,2880,ɔ
1789467885.662199,2004,2879,ɔ
1789467885.6645172,1925,2876,ɔ
1789467885.66685,2268,2880,ɔ
1789467885.6679099,2071,2879,ɔ
1789467885.6702259,1985,2877,ɔ
1789467885.672767,2163,2878,ɔ
1789467885.673899,2203,2880,ɔ
1789467885.67795,2184,2879,ɔ
1789467885.6788962,2094,2878,ɔ
1789467885.680827,2076,2879,ɔ
1789467885.684729,2170,2880,ɔ
1789467885.685218,2033,2878,ɔ
1789467885.686677,1937,2878,ɔ
1789467885.6892622,2039,2878,ɔ
1789467885.691345,2149,2881,ɔ
1789467885.692653,2220,2880,ɔ
1789467885.6938188,2167,2879,ɔ
1789467885.698821,1898,2878,ɔ
1789467885.699289,2106,2879,ɔ
1789467885.7017548,2072,2878,ɔ
1789467885.703702,2091,2879,ɔ
1789467885.707087,1984,2878,ɔ
1789467885.7072299,2240,2880,ɔ
1789467885.709831,2273,2880,ɔ
1789467885.712575,2068,2880,ɔ
1789467885.7126179,1939,2878,ɔ
1789467885.7149289,2245,2879,ɔ
1789467885.716275,2174,2880,ɔ
1789467885.718852,2028,2878,ɔ
1789467885.7199502,1977,2879,ɔ
1789467885.722513,2143,2879,ɔ
1789467885.72482,2277,2879,ɔ
1789467885.7261162,2177,2879,ɔ
1789467885.728204,2075,2879,ɔ
1789467885.7307642,2113,2879,ɔ
1789467885.732206,2281,2881,ɔ
1789467885.734287,2000,2879,ɔ
1789467885.736602,1998,2878,ɔ
1789467885.738921,2069,2879,ɔ
1789467885.7399738,2223,2880,ɔ
1789467885.742531,2190,2879,ɔ
1789467885.746621,2041,2879,ɔ
1789467885.7475169,2035,2879,ɔ
1789467885.748642,2138,2879,ɔ
1789467885.7499468,2224,2880,ɔ
1789467885.753032,2052,2879,ɔ
1789467885.755049,2116,2879,ɔ
1789467885.75958,2184,2880,ɔ
1789467885.7603352,2132,2879,ɔ
1789467885.76044,2028,2878,ɔ
1789467885.762901,2088,2878,ɔ
1789467885.764246,2201,2879,ɔ
1789467885.76913,2072,2880,ɔ
1789467885.772026,1922,2878,ɔ
1789467885.7827258,2092,2879,ɔ
1789467885.7828748,2155,2878,ɔ
1789467885.782919,2137,2880,ɔ
1789467885.782974,2061,2879,ɔ
1789467885.7830138,2174,2879,ɔ
1789467885.7830489,2125,2879,ɔ
1789467885.783084,2282,2880,ɔ
1789467885.788251,2181,2880,ɔ
1789467885.788298,2049,2878,ɔ
1789467885.788335,2233,2879,ɔ
1789467885.7909582,2295,2880,ɔ
1789467885.7926002,2191,2878,ɔ
1789467885.796747,2077,2879,ɔ
1789467885.7971761,2056,2878,ɔ
1789467885.7985,2144,2879,ɔ
1789467885.803029,2139,2880,ɔ
1789467885.803073,2059,2877,ɔ
1789467885.81442,2139,2878,ɔ
1789467885.8144681,2201,2881,ɔ
1789467885.814504,2180,2880,ɔ
1789467885.8145401,2072,2879,ɔ
1789467885.814574,2062,2878,ɔ
1789467885.8146079,2069,2878,ɔ
1789467885.816114,2238,2879,ɔ
1789467885.838892,2060,2879,ɔ
1789467885.838942,2070,2879,ɔ
1789467885.8389802,2210,2878,ɔ
1789467885.839448,2263,2880,ɔ
1789467885.840585,2137,2880,ɔ
1789467885.840628,2045,2878,ɔ
1789467885.8411279,2125,2878,ɔ
1789467885.863379,2286,2879,ɔ
1789467885.863441,2019,2877,ɔ
1789467885.86348,1789,2878,ɔ
1789467885.8635159,2096,2879,ɔ
1789467885.863551,2245,2881,ɔ
1789467885.863586,2242,2880,ɔ
1789467885.86362,1984,2878,ɔ
1789467885.863654,2134,2879,ɔ
1789467885.863688,2232,2880,ɔ
1789467885.863722,2205,2880,ɔ
1789467885.863755,2156,2879,ɔ
1789467885.863795,2169,2879,ɔ
1789467885.863829,2250,2880,ɔ
1789467885.863863,2252,2878,ɔ
1789467885.865845,2204,2879,ɔ
1789467885.865976,2174,2878,ɔ
1789467885.8660128,1970,2880,ɔ
1789467885.866047,2072,2879,ɔ
1789467885.868341,2077,2877,ɔ
1789467885.870025,2145,2879,ɔ
1789467885.875045,2214,2879,ɔ
1789467885.87509,2184,2879,ɔ
1789467885.882977,2103,2879,ɔ
1789467885.883022,2060,2878,ɔ
1789467885.8830621,2101,2879,ɔ
1789467885.8830988,2150,2879,ɔ
1789467885.884599,2095,2878,ɔ
1789467885.892055,2059,2878,ɔ
1789467885.892104,2197,2879,ɔ
1789467885.892143,2251,2881,ɔ
1789467885.892181,2173,2879,ɔ
1789467885.89753,2052,2878,ɔ
1789467885.924917,2168,2878,ɔ
1789467885.9380422,2170,2880,ɔ
1789467885.9391448,2097,2878,ɔ
1789467885.9397042,2073,2879,ɔ
1789467885.940356,2106,2880,ɔ
1789467885.9409542,2207,2880,ɔ
1789467885.941477,2026,2879,ɔ
1789467885.943219,2206,2878,ɔ
1789467885.94861,2100,2878,ɔ
1789467885.9486568,2133,2880,ɔ
1789467885.9486961,2120,2880,ɔ
1789467885.948734,2016,2878,ɔ
1789467885.9487722,2158,2880,ɔ
1789467885.948809,2227,2881,ɔ
1789467885.948846,2164,2879,ɔ
1789467885.9488819,2010,2880,ɔ
1789467885.948919,2038,2879,ɔ
1789467885.948956,2111,2880,ɔ
1789467885.948992,2138,2880,ɔ
1789467885.9490292,1976,2878,ɔ
1789467885.949065,1958,2879,ɔ
1789467885.9491022,2141,2879,ɔ
1789467885.949342,2246,2881,ɔ
1789467885.949468,2180,2880,ɔ
1789467885.949641,2116,2879,ɔ
1789467885.9496791,2088,2879,ɔ
1789467885.9497159,2165,2880,ɔ
1789467885.951425,2110,2877,ɔ
1789467885.953025,2012,2879,ɔ
1789467885.955433,2084,2879,ɔ
1789467885.95677,2180,2880,ɔ
1789467885.958147,2162,2879,ɔ
1789467885.9608672,2090,2879,ɔ
1789467885.9651752,2055,2879,ɔ
1789467885.965219,2079,2879,ɔ
1789467885.9666119,2162,2880,ɔ
1789467885.967942,1992,2880,ɔ
1789467885.970334,2123,2879,ɔ
1789467885.972726,2237,2880,ɔ
1789467885.9740832,2189,2880,ɔ
1789467885.976563,2141,2880,ɔ
1789467885.978647,2085,2878,ɔ
1789467885.9810529,2093,2880,ɔ
1789467885.9821498,2150,2881,ɔ
1789467885.9846988,1991,2878,ɔ
1789467885.9897459,2146,2880,ɔ
1789467885.990347,2169,2879,ɔ
1789467885.990963,2177,2881,ɔ
1789467885.993379,2100,2880,ɔ
1789467885.995284,2064,2878,ɔ
1789467885.996889,2055,2879,ɔ
1789467885.9998112,2132,2880,ɔ
1789467886.002468,2073,2877,ɔ
1789467886.002603,2099,2879,ɔ
1789467886.00513,2162,2880,ɔ
1789467886.006437,2192,2880,ɔ
1789467886.0087638,2151,2880,ɔ
1789467886.0152829,2142,2879,ɔ
1789467886.0173671,2120,2879,ɔ
1789467886.0176141,2201,2880,ɔ
1789467886.017728,2283,2881,ɔ
1789467886.020172,2135,2879,ɔ
1789467886.020726,2179,2879,ɔ
1789467886.022638,2304,2881,ɔ
1789467886.0242822,2321,2880,ɔ
1789467886.026954,2258,2880,ɔ
1789467886.029394,2190,2879,ɔ
1789467886.0307012,2205,2879,ɔ
1789467886.033016,2333,2880,ɔ
1789467886.034087,2150,2878,ɔ
1789467886.036171,2111,2878,ɔ
1789467886.038506,2226,2878,ɔ
1789467886.0410721,2234,2879,ɔ
1789467886.0421288,2228,2878,ɔ
1789467886.044207,2159,2878,ɔ
1789467886.0467699,2097,2879,ɔ
1789467886.049066,2214,2879,ɔ
1789467886.050427,2177,2880,ɔ
1789467886.0530078,2058,2879,ɔ
1789467886.0540679,2170,2879,ɔ
1789467886.0564969,2234,2881,ɔ
1789467886.058846,2216,2880,ɔ
1789467886.060151,2128,2879,ɔ
1789467886.062718,2099,2878,ɔ
1789467886.064058,2164,2880,ɔ
1789467886.069539,2161,2880,ɔ
1789467886.070691,2011,2879,ɔ
1789467886.070831,2081,2880,ɔ
1789467886.073174,2235,2879,ɔ
1789467886.075754,2206,2881,ɔ
1789467886.077537,2130,2879,ɔ
1789467886.082402,2081,2878,ɔ
1789467886.083168,2114,2879,ɔ
1789467886.0857038,2223,2880,ɔ
1789467886.085922,2115,2879,ɔ
1789467886.085974,2080,2878,ɔ
1789467886.088394,2137,2879,ɔ
1789467886.0953732,2201,2880,ɔ
1789467886.0960908,2130,2879,ɔ
1789467886.098651,2152,2879,ɔ
1789467886.098942,2041,2878,ɔ
1789467886.099238,2065,2879,ɔ
1789467886.102058,2152,2881,ɔ
1789467886.1025841,2037,2879,ɔ
1789467886.104246,2107,2878,ɔ
1789467886.1085482,2188,2881,ɔ
1789467886.108725,2121,2879,ɔ
1789467886.110686,2065,2879,ɔ
1789467886.113021,2063,2879,ɔ
1789467886.114329,2138,2879,ɔ
1789467886.116587,2158,2880,ɔ
1789467886.117919,2006,2878,ɔ
1789467886.120264,2050,2878,ɔ
1789467886.122829,2149,2879,ɔ
1789467886.124129,2140,2879,ɔ
1789467886.1264498,2107,2878,ɔ
1789467886.12901,2080,2878,ɔ
1789467886.130068,2069,2878,ɔ
1789467886.1325078,2139,2880,ɔ
1789467886.134582,2042,2878,ɔ
1789467886.1359391,1967,2879,ɔ
1789467886.1383429,2127,2879,ɔ
1789467886.1408992,2202,2880,ɔ
1789467886.142195,2144,2881,ɔ
1789467886.1484082,1982,2879,ɔ
1789467886.149376,1995,2878,ɔ
1789467886.151572,2126,2879,ɔ
1789467886.151753,2029,2878,ɔ
1789467886.153822,1908,2878,ɔ
1789467886.154243,2077,2878,ɔ
1789467886.157438,2202,2880,ɔ
1789467886.159776,2077,2880,ɔ
1789467886.162166,1944,2878,ɔ
1789467886.162393,2154,2879,ɔ
1789467886.16449,2267,2881,ɔ
1789467886.1774862,2255,2880,ɔ
1789467886.177678,2190,2881,ɔ
1789467886.178242,1962,2879,ɔ
1789467886.180029,2063,2879,ɔ
1789467886.183048,2333,2881,ɔ
1789467886.185281,1934,2877,ɔ
1789467886.1854038,2128,2879,ɔ
1789467886.1854432,2172,2879,ɔ
1789467886.1854799,2186,2880,ɔ
1789467886.185516,1744,2879,ɔ
1789467886.186605,1966,2879,ɔ
1789467886.18868,2429,2881,ɔ
1789467886.19078,2392,2880,ɔ
1789467886.192082,2248,2880,ɔ
1789467886.194156,1952,2878,ɔ
1789467886.1967092,2017,2879,ɔ
1789467886.198004,2438,2879,ɔ
1789467886.200096,2152,2880,ɔ
1789467886.202406,1757,2877,ɔ
1789467886.204979,1854,2878,ɔ
1789467886.2062862,2055,2879,ɔ
1789467886.2088408,2227,2880,ɔ
1789467886.210141,1971,2878,ɔ
1789467886.212652,1976,2879,ɔ
1789467886.2139819,1984,2878,ɔ
1789467886.216604,2144,2880,ɔ
1789467886.2224991,1977,2878,ɔ
1789467886.2231119,1997,2879,ɔ
1789467886.22397,2112,2878,ɔ
1789467886.2240949,2015,2877,ɔ
1789467886.227535,2238,2880,ɔ
1789467886.229048,2259,2879,ɔ
1789467886.234237,2095,2879,ɔ
1789467886.234399,2128,2880,ɔ
1789467886.234776,2125,2877,ɔ
1789467886.2369301,1890,2879,ɔ
1789467886.238241,2266,2878,ɔ
1789467886.2407339,2299,2881,ɔ
1789467886.245072,1765,2877,ɔ
1789467886.245951,1701,2877,ɔ
1789467886.2464068,1914,2879,ɔ
1789467886.24818,2178,2879,ɔ
1789467886.25144,2043,2879,ɔ
1789467886.254005,1974,2878,ɔ
1789467886.254186,2192,2879,ɔ
1789467886.258541,2257,2882,ɔ
1789467886.259246,2128,2880,ɔ
1789467886.2604349,1987,2879,ɔ
1789467886.2629938,1930,2878,ɔ
1789467886.2642949,2083,2880,ɔ
1789467886.26662,2281,2880,ɔ
1789467886.268708,1924,2878,ɔ
1789467886.27001,1800,2879,ɔ
1789467886.2723389,2131,2880,ɔ
1789467886.274896,2108,2878,ɔ
1789467886.276172,2154,2880,ɔ
1789467886.278599,2154,2879,ɔ
1789467886.280915,2205,2878,ɔ
1789467886.28223,1830,2878,ɔ
1789467886.284553,1861,2878,ɔ
1789467886.2859552,2008,2879,ɔ
1789467886.288266,2125,2878,ɔ
1789467886.290345,2042,2879,ɔ
1789467886.2962549,1914,2878,ɔ
1789467886.296386,1680,2877,ɔ
1789467886.296961,1876,2879,ɔ
1789467886.299574,2148,2880,ɔ
1789467886.301308,1895,2878,ɔ
1789467886.303376,1870,2878,ɔ
1789467886.305374,2137,2878,ɔ
1789467886.309859,2284,2882,ɔ
1789467886.310097,1831,2879,ɔ
1789467886.3101509,2335,2881,ɔ
1789467886.3122282,2225,2879,ɔ
1789467886.317964,1723,2876,ɔ
1789467886.318857,1560,2879,ɔ
1789467886.319356,1697,2879,ɔ
1789467886.321017,2048,2879,ɔ
1789467886.3229709,1737,2878,ɔ
1789467886.324715,1913,2878,ɔ
1789467886.326923,1955,2880,ɔ
1789467886.3316422,2085,2879,ɔ
1789467886.331687,2103,2878,ɔ
1789467886.332994,2084,2880,ɔ
1789467886.334047,1981,2879,ɔ
1789467886.336123,1823,2879,ɔ
1789467886.338193,2063,2878,ɔ
1789467886.3402681,2213,2879,ɔ
1789467886.342602,1927,2879,ɔ
1789467886.3449118,1726,2876,ɔ
1789467886.34621,1743,2876,ɔ
1789467886.3488178,2394,2880,ɔ
1789467886.350322,3067,2883,ɔ
1789467886.3524978,1845,2878,ɔ
1789467886.354701,1008,2877,ɔ
1789467886.3567739,1895,2878,ɔ
1789467886.3590999,1929,2879,ɔ
1789467886.3601532,1636,2877,ɔ
1789467886.3624818,1541,2877,ɔ
1789467886.368798,1499,2876,ɔ
1789467886.3693702,1644,2877,ɔ
1789467886.369934,1492,2876,ɔ
1789467886.37042,1452,2877,ɔ
1789467886.372162,2297,2878,ɔ
1789467886.374723,2315,2882,ɔ
1789467886.376651,1738,2878,ɔ
1789467886.378113,1516,2877,ɔ
1789467886.380609,1763,2876,ɔ
1789467886.38291,1923,2878,ɔ
1789467886.384216,1589,2878,ɔ
1789467886.3862882,1597,2877,ɔ
1789467886.391517,2049,2878,ɔ
1789467886.392084,1824,2877,ɔ
1789467886.394136,1836,2877,ɔ
1789467886.394222,1859,2877,ɔ
1789467886.397522,1660,2878,ɔ
1789467886.3998258,1919,2877,ɔ
1789467886.4025412,2034,2878,ɔ
1789467886.402806,1702,2877,ɔ
1789467886.405098,1894,2878,ɔ
1789467886.4061708,2307,2879,ɔ
1789467886.408492,1753,2877,ɔ
1789467886.411073,1785,2876,ɔ
1789467886.412141,1601,2878,ɔ
1789467886.4142878,1707,2878,ɔ
1789467886.41677,1739,2879,ɔ
1789467886.4181209,1675,2878,ɔ
1789467886.4203389,1734,2879,ɔ
1789467886.4224188,1881,2878,ɔ
1789467886.424973,1863,2877,ɔ
1789467886.426031,2141,2879,ɔ
1789467886.428343,1681,2876,ɔ
1789467886.4306781,1932,2877,ɔ
1789467886.43199,2190,2881,ɔ
1789467886.4346611,2154,2879,ɔ
1789467886.436011,1748,2876,ɔ
1789467886.438519,1911,2878,ɔ
1789467886.43998,2237,2880,ɔ
1789467886.4452,2231,2881,ɔ
1789467886.454893,1995,2880,ɔ
1789467886.4618409,1995,2880,ɔ
1789467886.46277,1787,2878,ɔ
1789467886.465374,1845,2877,ɔ
1789467886.465515,1779,2878,ɔ
1789467886.465642,1869,2878,ɔ
1789467886.465792,2041,2878,ɔ
1789467886.465934,1872,2877,ɔ
1789467886.466012,2202,2880,ɔ
1789467886.46608,1923,2879,ɔ
1789467886.4662778,2034,2879,ɔ
1789467886.466391,2256,2880,ɔ
1789467886.468791,1821,2879,ɔ
1789467886.470164,2085,2878,ɔ
1789467886.4790132,1613,2878,ɔ
1789467886.481417,1970,2879,ɔ
1789467886.487345,2031,2879,ɔ
1789467886.4886599,1837,2878,ɔ
1789467886.4936051,2047,2879,ɔ
1789467886.494472,2163,2880,ɔ
1789467886.4973319,1975,2879,ɔ
1789467886.4975271,1591,2878,ɔ
1789467886.497618,2243,2880,ɔ
1789467886.497657,2115,2879,ɔ
1789467886.4976928,1817,2877,ɔ
1789467886.497728,1764,2877,ɔ
1789467886.4977632,1873,2880,ɔ
1789467886.499192,2025,2880,ɔ
1789467886.5006678,2016,2878,ɔ
1789467886.502074,1941,2878,ɔ
1789467886.504338,2057,2879,ɔ
1789467886.5069811,2165,2879,ɔ
1789467886.5082781,2062,2880,ɔ
1789467886.510991,1938,2880,ɔ
1789467886.512308,2151,2879,ɔ
1789467886.5147781,2129,2879,ɔ
1789467886.51601,2042,2880,ɔ
1789467886.518955,1775,2877,ɔ
1789467886.5203462,1978,2879,ɔ
1789467886.5228841,2059,2880,ɔ
1789467886.5242748,2192,2880,ɔ
1789467886.526945,2056,2879,ɔ
1789467886.528485,1975,2879,ɔ
1789467886.53121,2020,2879,ɔ
1789467886.532601,2226,2880,ɔ
1789467886.533959,1774,2878,ɔ
1789467886.5373492,1894,2880,ɔ
1789467886.5476348,2183,2879,ɔ
1789467886.547947,2238,2881,ɔ
1789467886.551604,2126,2880,ɔ
1789467886.55268,1942,2879,ɔ
1789467886.558502,2030,2879,ɔ
1789467886.558772,2110,2880,ɔ
1789467886.561166,2185,2881,ɔ
1789467886.561224,1891,2879,ɔ
1789467886.561265,1924,2879,ɔ
1789467886.5613341,1967,2879,ɔ
1789467886.561376,2199,2880,ɔ
1789467886.561416,2002,2879,ɔ
1789467886.562815,1770,2876,ɔ
1789467886.563935,2158,2880,ɔ
1789467886.56888,1967,2877,ɔ
1789467886.5689821,1819,2878,ɔ
1789467886.571709,2184,2879,ɔ
1789467886.573879,2011,2879,ɔ
1789467886.574386,1847,2878,ɔ
1789467886.581564,1855,2877,ɔ
1789467886.5847628,2213,2881,ɔ
1789467886.5850399,2059,2879,ɔ
1789467886.585184,2075,2880,ɔ
1789467886.58526,1857,2879,ɔ
1789467886.586609,2115,2878,ɔ
1789467886.5879838,2362,2882,ɔ
1789467886.590177,1974,2879,ɔ
1789467886.592414,2076,2879,ɔ
1789467886.5947762,2025,2881,ɔ
1789467886.596006,2198,2879,ɔ
1789467886.5984352,1836,2878,ɔ
1789467886.6008608,1732,2879,ɔ
1789467886.602165,1916,2879,ɔ
1789467886.604506,2078,2879,ɔ
1789467886.607074,2284,2880,ɔ
1789467886.608358,2033,2879,ɔ
1789467886.6109178,2008,2879,ɔ
1789467886.61199,2205,2880,ɔ
1789467886.6145122,1659,2877,ɔ
1789467886.6169999,2037,2879,ɔ
1789467886.618061,1897,2879,ɔ
1789467886.624726,1925,2880,ɔ
1789467886.625314,2034,2878,ɔ
1789467886.625846,2172,2879,ɔ
1789467886.626448,1928,2879,ɔ
1789467886.628067,1991,2879,ɔ
1789467886.630503,2235,2880,ɔ
1789467886.6327732,2180,2880,ɔ
1789467886.6344588,2009,2878,ɔ
1789467886.637136,2135,2879,ɔ
1789467886.639518,2132,2879,ɔ
1789467886.640851,2130,2881,ɔ
1789467886.642121,2326,2880,ɔ
1789467886.6490612,1824,2879,ɔ
1789467886.652961,1968,2878,ɔ
1789467886.653439,2169,2880,ɔ
1789467886.654111,2222,2881,ɔ
1789467886.654621,2040,2878,ɔ
1789467886.6560361,1967,2879,ɔ
1789467886.656699,2083,2878,ɔ
1789467886.6583622,2149,2880,ɔ
1789467886.661262,2049,2878,ɔ
1789467886.663818,1990,2879,ɔ
1789467886.66412,2067,2878,ɔ
1789467886.66666,2213,2879,ɔ
1789467886.668006,1924,2878,ɔ
1789467886.670335,1898,2878,ɔ
1789467886.672666,2237,2879,ɔ
1789467886.674737,2321,2880,ɔ
1789467886.676042,2047,2879,ɔ
1789467886.6787012,1908,2878,ɔ
1789467886.680783,2043,2879,ɔ
1789467886.683051,2150,2880,ɔ
1789467886.6844,2101,2878,ɔ
1789467886.68698,1967,2879,ɔ
1789467886.688271,2155,2879,ɔ
1789467886.690464,2531,2881,ɔ
1789467886.692783,2182,2880,ɔ
1789467886.695271,1924,2878,ɔ
1789467886.6965399,1599,2876,ɔ
1789467886.703836,2205,2880,ɔ
1789467886.705019,2254,2881,ɔ
1789467886.705739,1919,2878,ɔ
1789467886.705896,1773,2879,ɔ
1789467886.707936,2071,2879,ɔ
1789467886.711472,2170,2880,ɔ
1789467886.712107,1861,2877,ɔ
1789467886.713134,2203,2879,ɔ
1789467886.7184708,2065,2878,ɔ
1789467886.7186408,2014,2878,ɔ
1789467886.718792,1933,2878,ɔ
1789467886.7215471,2068,2878,ɔ
1789467886.722903,2101,2877,ɔ
1789467886.723982,2023,2880,ɔ
1789467886.7263072,1947,2879,ɔ
1789467886.732956,2111,2878,ɔ
1789467886.735111,2062,2880,ɔ
1789467886.735424,2314,2881,ɔ
1789467886.7369752,2069,2878,ɔ
1789467886.738806,1938,2878,ɔ
1789467886.739449,2055,2880,ɔ
1789467886.740737,2171,2881,ɔ
1789467886.74536,1921,2878,ɔ
1789467886.745548,2001,2879,ɔ
1789467886.7482429,1947,2879,ɔ
1789467886.748457,2365,2881,ɔ
1789467886.7508469,1912,2878,ɔ
1789467886.752192,1920,2880,ɔ
1789467886.75457,2029,2880,ɔ
1789467886.757087,2202,2877,ɔ
1789467886.758168,2287,2880,ɔ
1789467886.760427,2137,2880,ɔ
1789467886.762663,1962,2880,ɔ
1789467886.764829,1762,2876,ɔ
1789467886.7669508,1960,2877,ɔ
1789467886.768288,2261,2882,ɔ
1789467886.770999,2048,2878,ɔ
1789467886.772127,2046,2877,ɔ
1789467886.7744792,2085,2881,ɔ
1789467886.776822,1995,2879,ɔ
1789467886.779052,1935,2878,ɔ
1789467886.780122,2093,2880,ɔ
1789467886.782681,1999,2877,ɔ
1789467886.796938,2084,2879,ɔ
1789467886.797471,2083,2879,ɔ
1789467886.799928,1967,2879,ɔ
1789467886.8000152,2035,2878,ɔ
1789467886.8032231,2225,2881,ɔ
1789467886.8036401,2247,2879,ɔ
1789467886.803861,1855,2877,ɔ
1789467886.804234,1971,2877,ɔ
1789467886.806564,2213,2880,ɔ
1789467886.806727,1880,2878,ɔ
1789467886.806939,1881,2879,ɔ
1789467886.8069818,1884,2879,ɔ
1789467886.808094,2330,2880,ɔ
1789467886.8105972,2215,2879,ɔ
1789467886.81571,1672,2876,ɔ
1789467886.8169549,2044,2880,ɔ
1789467886.817616,2063,2879,ɔ
1789467886.819356,2038,2877,ɔ
1789467886.8211951,2016,2879,ɔ
1789467886.823349,1980,2878,ɔ
1789467886.825783,2076,2880,ɔ
1789467886.828659,1918,2876,ɔ
1789467886.828973,2075,2880,ɔ
1789467886.830979,2022,2880,ɔ
1789467886.8323982,2206,2880,ɔ
1789467886.8349981,2087,2878,ɔ
1789467886.836066,2067,2879,ɔ
1789467886.8383832,2153,2879,ɔ
1789467886.8405042,2117,2878,ɔ
1789467886.8428218,2178,2880,ɔ
1789467886.84515,2182,2879,ɔ
1789467886.8463519,1987,2878,ɔ
1789467886.848707,2017,2880,ɔ
1789467886.8500311,2062,2878,ɔ
1789467886.8523872,2061,2878,ɔ
1789467886.8544798,1886,2878,ɔ
1789467886.857019,2122,2878,ɔ
1789467886.8582232,2232,2879,ɔ
1789467886.860784,2061,2878,ɔ
1789467886.862089,1918,2879,ɔ
1789467886.864361,2036,2878,ɔ
1789467886.8667068,2147,2880,ɔ
1789467886.871453,1969,2879,ɔ
1789467886.872006,1977,2880,ɔ
1789467886.8725069,2173,2880,ɔ
1789467886.874711,2158,2881,ɔ
1789467886.8764439,1929,2880,ɔ
1789467886.878117,2237,2879,ɔ
1789467886.880455,2140,2880,ɔ
1789467886.883042,2046,2880,ɔ
1789467886.884943,2044,2879,ɔ
1789467886.886223,2176,2879,ɔ
1789467886.888362,2318,2881,ɔ
1789467886.893609,2011,2877,ɔ
1789467886.8944771,1936,2878,ɔ
1789467886.8949828,2085,2881,ɔ
1789467886.896689,2028,2879,ɔ
1789467886.898946,2164,2878,ɔ
1789467886.9003332,1934,2877,ɔ
1789467886.902563,1736,2879,ɔ
1789467886.905523,2018,2879,ɔ
1789467886.9073439,2059,2879,ɔ
1789467886.90865,2219,2881,ɔ
1789467886.911215,2063,2879,ɔ
1789467886.91253,1982,2879,ɔ
1789467886.915091,2076,2879,ɔ
1789467886.916388,2182,2879,ɔ
1789467886.918944,2082,2879,ɔ
1789467886.9202418,1987,2879,ɔ
1789467886.9227898,2172,2879,ɔ
1789467886.924094,2225,2881,ɔ
1789467886.926152,2056,2879,ɔ
1789467886.928705,2019,2878,ɔ
1789467886.931028,2086,2879,ɔ
1789467886.932323,2164,2880,ɔ
1789467886.93488,2013,2878,ɔ
1789467886.936946,1979,2878,ɔ
1789467886.938074,2135,2879,ɔ
1789467886.945017,2191,2880,ɔ
1789467886.9454982,2129,2880,ɔ
1789467886.94608,2063,2878,ɔ
1789467886.946526,2096,2879,ɔ
1789467886.949537,2185,2879,ɔ
1789467886.951404,2106,2878,ɔ
1789467886.953553,1982,2878,ɔ
1789467886.956276,2103,2879,ɔ
1789467886.956501,2188,2880,ɔ
1789467886.9583201,2142,2880,ɔ
1789467886.960638,2033,2878,ɔ
1789467886.966323,2028,2879,ɔ
1789467886.966794,2095,2881,ɔ
1789467886.9673212,2135,2880,ɔ
1789467886.969314,1974,2880,ɔ
1789467886.9713228,2025,2879,ɔ
1789467886.9961338,2166,2878,ɔ
1789467886.996193,2165,2881,ɔ
1789467886.996232,2079,2879,ɔ
1789467886.996268,2037,2879,ɔ
1789467886.996303,2049,2880,ɔ
1789467886.996338,2162,2880,ɔ
1789467886.996372,2008,2878,ɔ
1789467886.996406,1995,2879,ɔ
1789467886.9964402,2142,2879,ɔ
1789467886.996474,2158,2881,ɔ
1789467886.996508,2169,2880,ɔ
1789467886.996541,2074,2880,ɔ
1789467886.9965749,2052,2879,ɔ
1789467886.9981382,2155,2880,ɔ
1789467887.011692,2114,2880,ɔ
1789467887.01175,1976,2879,ɔ
1789467887.01179,2111,2878,ɔ
1789467887.011826,2190,2882,ɔ
1789467887.011862,2149,2880,ɔ
1789467887.011897,2055,2879,ɔ
1789467887.014453,2032,2879,ɔ
1789467887.015084,2070,2879,ɔ
1789467887.039693,2138,2881,ɔ
1789467887.039743,1964,2878,ɔ
1789467887.039783,2038,2879,ɔ
1789467887.039822,2175,2879,ɔ
1789467887.071925,2168,2881,ɔ
1789467887.078222,2083,2879,ɔ
1789467887.078398,2047,2879,ɔ
1789467887.080569,2075,2878,ɔ
1789467887.081472,2164,2880,ɔ
1789467887.081548,2017,2878,ɔ
1789467887.0816371,1997,2880,ɔ
1789467887.0817,2159,2879,ɔ
1789467887.0817611,2193,2881,ɔ
1789467887.081821,2112,2879,ɔ
1789467887.081888,2031,2880,ɔ
1789467887.0819619,1992,2879,ɔ
1789467887.082033,2196,2879,ɔ
1789467887.0821,2254,2880,ɔ
1789467887.082189,2071,2879,ɔ
1789467887.08226,2178,2878,ɔ
1789467887.082426,2267,2880,ɔ
1789467887.0824971,2171,2880,ɔ
1789467887.082561,2146,2878,ɔ
1789467887.082627,2094,2879,ɔ
1789467887.082716,2106,2879,ɔ
1789467887.082768,2145,2880,ɔ
1789467887.082808,1976,2879,ɔ
1789467887.082874,2007,2879,ɔ
1789467887.082925,2277,2881,ɔ
1789467887.083034,2281,2880,ɔ
1789467887.083106,2142,2879,ɔ
1789467887.083172,2119,2879,ɔ
1789467887.083235,2169,2879,ɔ
1789467887.0832992,2207,2881,ɔ
1789467887.0847812,2019,2878,ɔ
1789467887.08616,2052,2879,ɔ
1789467887.088771,2168,2879,ɔ
1789467887.090126,2241,2880,ɔ
1789467887.0928488,2200,2879,ɔ
1789467887.0942311,2140,2879,ɔ
1789467887.0968409,2105,2878,ɔ
1789467887.098179,2201,2880,ɔ
1789467887.100828,2180,2880,ɔ
1789467887.1022358,2065,2877,ɔ
1789467887.104884,2057,2878,ɔ
1789467887.10623,2056,2879,ɔ
1789467887.10911,2125,2879,ɔ
1789467887.110883,2167,2879,ɔ
1789467887.112268,2137,2879,ɔ
1789467887.1150432,2021,2878,ɔ
1789467887.116429,2158,2879,ɔ
1789467887.119056,2147,2879,ɔ
1789467887.127601,2086,2878,ɔ
1789467887.132318,2249,2880,ɔ
1789467887.1343858,2189,2879,ɔ
1789467887.136327,2087,2877,ɔ
1789467887.1427531,2070,2878,ɔ
1789467887.145684,2105,2878,ɔ
1789467887.145778,2222,2879,ɔ
1789467887.145866,2032,2877,ɔ
1789467887.145935,2042,2879,ɔ
1789467887.1460109,2209,2878,ɔ
1789467887.1460748,2253,2881,ɔ
1789467887.1461382,2258,2880,ɔ
1789467887.146204,2159,2877,ɔ
1789467887.146268,2169,2878,ɔ
1789467887.14909,2329,2879,ɔ
1789467887.156567,2258,2880,ɔ
1789467887.161452,2217,2879,ɔ
1789467887.1660821,2351,2882,ɔ
1789467887.168302,2453,2881,ɔ
1789467887.172082,2382,2879,ɔ
1789467887.1750872,2283,2880,ɔ
1789467887.175172,2238,2880,ɔ
1789467887.1752388,2285,2879,ɔ
1789467887.175303,2281,2881,ɔ
1789467887.1753652,2186,2879,ɔ
1789467887.175427,2245,2878,ɔ
1789467887.1754901,2345,2881,ɔ
1789467887.175552,2367,2879,ɔ
1789467887.177005,2262,2880,ɔ
1789467887.178369,2205,2880,ɔ
1789467887.181061,2261,2881,ɔ
1789467887.182446,2351,2879,ɔ
1789467887.1851149,2209,2880,ɔ
1789467887.1865091,2159,2879,ɔ
1789467887.189153,2312,2880,ɔ
1789467887.190557,2328,2881,ɔ
1789467887.193316,2289,2879,ɔ
1789467887.1947122,2196,2879,ɔ
1789467887.1961029,2171,2880,ɔ
1789467887.199141,2274,2879,ɔ
1789467887.200543,2327,2881,ɔ
1789467887.2031648,2195,2878,ɔ
1789467887.204512,2290,2880,ɔ
1789467887.2075799,2366,2880,ɔ
1789467887.208981,2328,2880,ɔ
1789467887.210633,2224,2879,ɔ
1789467887.212079,2246,2880,ɔ
1789467887.214787,2276,2879,ɔ
1789467887.2284522,2242,2880,ɔ
1789467887.230322,2056,2878,ɔ
1789467887.231127,2158,2878,ɔ
1789467887.233711,2364,2881,ɔ
1789467887.237582,2304,2879,ɔ
1789467887.24068,2240,2880,ɔ
1789467887.24097,2150,2880,ɔ
1789467887.2410471,2129,2878,ɔ
1789467887.241162,2281,2880,ɔ
1789467887.241271,2160,2877,ɔ
1789467887.241374,2127,2879,ɔ
1789467887.241459,2320,2881,ɔ
1789467887.241525,2338,2880,ɔ
1789467887.243022,2239,2879,ɔ
1789467887.2443898,2165,2879,ɔ
1789467887.251458,2189,2879,ɔ
1789467887.251721,2243,2881,ɔ
1789467887.251953,2097,2878,ɔ
1789467887.2527921,1972,2878,ɔ
1789467887.2556438,2209,2878,ɔ
1789467887.258973,2371,2880,ɔ
1789467887.261218,2165,2878,ɔ
1789467887.262086,2222,2879,ɔ
1789467887.2641962,2184,2879,ɔ
1789467887.268225,2083,2880,ɔ
1789467887.268676,2372,2881,ɔ
1789467887.2693849,2363,2883,ɔ
1789467887.272506,2075,2879,ɔ
1789467887.2725859,2231,2880,ɔ
1789467887.274102,2357,2880,ɔ
1789467887.276997,2133,2879,ɔ
1789467887.278492,2078,2879,ɔ
1789467887.2811751,2104,2880,ɔ
1789467887.282536,2416,2879,ɔ
1789467887.285342,2284,2880,ɔ
1789467887.2867799,2076,2878,ɔ
1789467887.288196,2252,2880,ɔ
1789467887.290845,2295,2881,ɔ
1789467887.292222,2206,2879,ɔ
1789467887.294956,2212,2880,ɔ
1789467887.296353,2335,2880,ɔ
1789467887.299016,2219,2879,ɔ
1789467887.300315,2291,2880,ɔ
1789467887.302984,2110,2878,ɔ
1789467887.30434,2151,2879,ɔ
1789467887.306966,2077,2877,ɔ
1789467887.308364,2090,2879,ɔ
1789467887.311035,2187,2880,ɔ
1789467887.3123891,2253,2879,ɔ
1789467887.315284,2099,2879,ɔ
1789467887.316798,2057,2879,ɔ
1789467887.318194,2016,2878,ɔ
1789467887.325432,2266,2879,ɔ
1789467887.328165,2394,2881,ɔ
1789467887.330533,2691,2880,ɔ
1789467887.330871,2207,2879,ɔ
1789467887.333132,2215,2880,ɔ
1789467887.3344698,2409,2879,ɔ
1789467887.335499,2318,2879,ɔ
1789467887.336782,2166,2877,ɔ
1789467887.3376708,2043,2878,ɔ
1789467887.340926,2179,2879,ɔ
1789467887.3449469,2149,2880,ɔ
1789467887.348505,2046,2879,ɔ
1789467887.3486972,2075,2879,ɔ
1789467887.3487842,2136,2879,ɔ
1789467887.348851,2246,2880,ɔ
1789467887.350218,2329,2880,ɔ
1789467887.352868,2352,2881,ɔ
1789467887.362123,2001,2878,ɔ
1789467887.3646789,2284,2880,ɔ
1789467887.367649,2292,2880,ɔ
1789467887.3683672,2034,2878,ɔ
1789467887.370593,2239,2880,ɔ
1789467887.374035,2275,2879,ɔ
1789467887.377871,2016,2880,ɔ
1789467887.378324,1694,2878,ɔ
1789467887.378674,2169,2878,ɔ
1789467887.379107,2210,2879,ɔ
1789467887.379617,2380,2880,ɔ
1789467887.379972,2008,2880,ɔ
1789467887.3802161,2172,2879,ɔ
1789467887.380578,1972,2879,ɔ
1789467887.38354,2168,2880,ɔ
1789467887.384953,2139,2878,ɔ
1789467887.386324,2012,2878,ɔ
1789467887.388951,2064,2880,ɔ
1789467887.390176,2272,2880,ɔ
1789467887.3927948,1886,2876,ɔ
1789467887.3942258,2251,2879,ɔ
1789467887.3968651,2152,2879,ɔ
1789467887.3982148,1937,2878,ɔ
1789467887.400791,2253,2880,ɔ
1789467887.402148,1999,2878,ɔ
1789467887.4047549,1946,2879,ɔ
1789467887.406118,2391,2882,ɔ
1789467887.40891,2031,2880,ɔ
1789467887.4102871,1959,2879,ɔ
1789467887.412933,2126,2879,ɔ
1789467887.414355,2103,2878,ɔ
1789467887.4170308,2124,2879,ɔ
1789467887.4185112,1756,2878,ɔ
1789467887.42118,2280,2879,ɔ
1789467887.4225469,2260,2880,ɔ
1789467887.4247072,2146,2880,ɔ
1789467887.426128,2124,2880,ɔ
1789467887.428789,2327,2879,ɔ
1789467887.4301481,1925,2878,ɔ
1789467887.440158,2056,2880,ɔ
1789467887.442973,2261,2880,ɔ
1789467887.445578,2355,2880,ɔ
1789467887.446302,1644,2878,ɔ
1789467887.447722,1665,2878,ɔ
1789467887.4480379,2539,2880,ɔ
1789467887.448729,2189,2880,ɔ
1789467887.449517,1833,2879,ɔ
1789467887.449885,1992,2880,ɔ
1789467887.453328,2278,2881,ɔ
1789467887.460447,1883,2879,ɔ
1789467887.460861,2225,2879,ɔ
1789467887.460938,2180,2878,ɔ
1789467887.4610062,2147,2881,ɔ
1789467887.461069,2143,2881,ɔ
1789467887.4624221,1969,2878,ɔ
1789467887.465034,1953,2879,ɔ
1789467887.472268,1954,2878,ɔ
1789467887.476602,1915,2878,ɔ
1789467887.480745,2281,2878,ɔ
1789467887.482659,2094,2879,ɔ
1789467887.4858282,2269,2879,ɔ
1789467887.4900138,2152,2878,ɔ
1789467887.490695,1851,2878,ɔ
1789467887.493234,2074,2878,ɔ
1789467887.494211,2197,2879,ɔ
1789467887.4943528,1917,2878,ɔ
1789467887.494495,1896,2879,ɔ
1789467887.494569,2058,2879,ɔ
1789467887.4947069,2072,2878,ɔ
1789467887.494813,2005,2879,ɔ
1789467887.4948769,2277,2880,ɔ
1789467887.4962618,2122,2879,ɔ
1789467887.498912,2177,2880,ɔ
1789467887.500837,2170,2880,ɔ
1789467887.502213,2114,2879,ɔ
1789467887.504868,2202,2878,ɔ
1789467887.507154,2190,2878,ɔ
1789467887.508398,2166,2880,ɔ
1789467887.510637,2094,2879,ɔ
1789467887.51281,1894,2879,ɔ
1789467887.5141919,1962,2879,ɔ
1789467887.516694,2101,2879,ɔ
1789467887.519058,2011,2878,ɔ
1789467887.520382,2090,2878,ɔ
1789467887.522961,2195,2880,ɔ
1789467887.524082,2183,2881,ɔ
1789467887.526175,2109,2879,ɔ
1789467887.5285141,2030,2878,ɔ
1789467887.53085,2054,2879,ɔ
1789467887.5321631,2168,2879,ɔ
1789467887.534422,2036,2878,ɔ
1789467887.5369961,2015,2878,ɔ
1789467887.5383658,2140,2880,ɔ
1789467887.5456939,2199,2880,ɔ
1789467887.547091,2093,2879,ɔ
1789467887.547814,1964,2877,ɔ
1789467887.548495,1999,2878,ɔ
1789467887.550323,2103,2879,ɔ
1789467887.5506911,2126,2880,ɔ
1789467887.553526,2035,2878,ɔ
1789467887.5551062,2095,2879,ɔ
1789467887.55858,2182,2880,ɔ
1789467887.55881,2178,2880,ɔ
1789467887.562666,2068,2879,ɔ
1789467887.563097,2028,2878,ɔ
1789467887.566029,2143,2880,ɔ
1789467887.566294,2128,2881,ɔ
1789467887.568489,1961,2878,ɔ
1789467887.5708249,1998,2879,ɔ
1789467887.577235,2158,2880,ɔ
1789467887.5779,2138,2882,ɔ
1789467887.579454,2069,2881,ɔ
1789467887.5801358,2169,2879,ɔ
1789467887.582319,2128,2879,ɔ
1789467887.585233,2155,2880,ɔ
1789467887.58605,2021,2878,ɔ
1789467887.5878751,2022,2879,ɔ
1789467887.5948281,2007,2879,ɔ
1789467887.595401,2155,2879,ɔ
1789467887.595816,2359,2880,ɔ
1789467887.599817,2143,2879,ɔ
1789467887.599939,1967,2879,ɔ
1789467887.600058,2028,2880,ɔ
1789467887.600271,2142,2878,ɔ
1789467887.602886,2069,2879,ɔ
1789467887.6050181,2106,2878,ɔ
1789467887.606103,2181,2881,ɔ
1789467887.608552,2078,2881,ɔ
1789467887.6106591,1992,2878,ɔ
1789467887.6129951,2111,2878,ɔ
1789467887.6151931,2150,2879,ɔ
1789467887.6162748,2092,2880,ɔ
1789467887.618504,1926,2879,ɔ
1789467887.620897,2058,2880,ɔ
1789467887.6232479,2123,2877,ɔ
1789467887.624321,2014,2878,ɔ
1789467887.626656,2218,2881,ɔ
1789467887.628739,2110,2879,ɔ
1789467887.630864,2035,2878,ɔ
1789467887.633284,2103,2879,ɔ
1789467887.6343648,2105,2878,ɔ
1789467887.636838,2076,2879,ɔ
1789467887.639018,2199,2879,ɔ
1789467887.640198,2177,2880,ɔ
1789467887.6425579,2074,2880,ɔ
1789467887.64464,2008,2879,ɔ
1789467887.6555068,2003,2878,ɔ
1789467887.6557949,2136,2879,ɔ
1789467887.656107,2085,2879,ɔ
1789467887.6563148,1861,2879,ɔ
1789467887.658973,2239,2879,ɔ
1789467887.66047,2459,2882,ɔ
1789467887.662307,1985,2879,ɔ
1789467887.663001,1967,2879,ɔ
1789467887.6657548,2115,2879,ɔ
1789467887.665925,2156,2880,ɔ
1789467887.669394,2105,2879,ɔ
1789467887.669927,1905,2879,ɔ
1789467887.673067,2063,2878,ɔ
1789467887.673321,2058,2879,ɔ
1789467887.67443,2102,2880,ɔ
1789467887.676703,2141,2878,ɔ
1789467887.6852129,1986,2878,ɔ
1789467887.686495,1973,2879,ɔ
1789467887.6882062,2157,2880,ɔ
1789467887.6885881,2048,2878,ɔ
1789467887.691287,1983,2879,ɔ
1789467887.691434,2174,2878,ɔ
1789467887.691604,2167,2881,ɔ
1789467887.693336,2211,2880,ɔ
1789467887.6960158,2070,2879,ɔ
1789467887.699035,2069,2878,ɔ
1789467887.6993148,2197,2880,ɔ
1789467887.7020092,2142,2879,ɔ
1789467887.703346,1981,2878,ɔ
1789467887.704421,2100,2879,ɔ
1789467887.7069728,2134,2878,ɔ
1789467887.708287,2084,2880,ɔ
1789467887.7108538,1992,2878,ɔ
1789467887.712214,1954,2878,ɔ
1789467887.714539,2085,2879,ɔ
1789467887.717143,2156,2881,ɔ
1789467887.718461,2022,2878,ɔ
1789467887.721034,2124,2878,ɔ
1789467887.7221792,1999,2879,ɔ
1789467887.724737,2000,2878,ɔ
1789467887.727071,2124,2879,ɔ
1789467887.7283862,2345,2880,ɔ
1789467887.730957,2118,2879,ɔ
1789467887.7322938,2115,2879,ɔ
1789467887.73473,2028,2878,ɔ
1789467887.737391,2058,2880,ɔ
1789467887.738732,2174,2880,ɔ
