timestamp,ch1,ch2,label
1788787436.510325,1893,1709,æ_S
1788787436.51472,2048,2378,æ_S
1788787436.516397,2123,2308,æ_S
1788787436.516816,2140,2153,æ_S
1788787436.520902,2073,1943,æ_S
1788787436.522122,2086,2163,æ_S
1788787436.522437,2162,2179,æ_S
1788787436.525484,2083,1915,æ_S
1788787436.525704,1954,1744,æ_S
1788787436.527072,1973,2318,æ_S
1788787436.529682,2071,2175,æ_S
1788787436.531074,2137,2242,æ_S
1788787436.541352,2090,2019,æ_S
1788787436.545006,2079,2140,æ_S
1788787436.546019,2171,2354,æ_S
1788787436.546428,2080,1974,æ_S
1788787436.546748,1993,1818,æ_S
1788787436.546924,1923,1966,æ_S
1788787436.5470972,2060,2246,æ_S
1788787436.54735,2132,2269,æ_S
1788787436.549993,2102,2100,æ_S
1788787436.551305,2060,1951,æ_S
1788787436.553876,2135,2431,æ_S
1788787436.555328,2132,1966,æ_S
1788787436.560769,2030,1830,æ_S
1788787436.561763,1904,1728,æ_S
1788787436.562294,2023,2384,æ_S
1788787436.563942,2102,2305,æ_S
1788787436.565484,2125,2149,æ_S
1788787436.567261,2064,1943,æ_S
1788787436.5705721,2074,2179,æ_S
1788787436.572148,2173,2169,æ_S
1788787436.573468,2084,1933,æ_S
1788787436.576134,1969,1769,æ_S
1788787436.5811148,1977,2273,æ_S
1788787436.581682,2079,2172,æ_S
1788787436.5821729,2148,2226,æ_S
1788787436.584039,2110,2043,æ_S
1788787436.587182,2076,2133,æ_S
1788787436.587391,2157,2341,æ_S
1788787436.591088,2077,1938,æ_S
1788787436.591137,2003,1789,æ_S
1788787436.593836,1909,1994,æ_S
1788787436.5951529,2069,2221,æ_S
1788787436.601067,2129,2268,æ_S
1788787436.601959,2123,2085,æ_S
1788787436.602444,2058,1986,æ_S
1788787436.604125,2121,2385,æ_S
1788787436.6061592,2135,1989,æ_S
1788787436.608885,2019,1830,æ_S
1788787436.609298,1902,1721,æ_S
1788787436.61183,2040,2414,æ_S
1788787436.613145,2101,2284,æ_S
1788787436.615712,2122,2131,æ_S
1788787436.617022,2080,1947,æ_S
1788787436.621494,2110,2169,æ_S
1788787436.622093,2186,2169,æ_S
1788787436.624128,2088,1949,æ_S
1788787436.626267,1935,1727,æ_S
1788787436.628872,1966,2295,æ_S
1788787436.6310651,2072,2187,æ_S
1788787436.6313238,2159,2224,æ_S
1788787436.633875,2092,1999,æ_S
1788787436.635179,2066,2092,æ_S
1788787436.637739,2172,2379,æ_S
1788787436.6415172,2094,1999,æ_S
1788787436.643512,1990,1789,æ_S
1788787436.645001,1946,1988,æ_S
1788787436.6452239,2109,2230,æ_S
1788787436.648384,2145,2286,æ_S
1788787436.65201,2138,2067,æ_S
1788787436.652056,2050,1991,æ_S
1788787436.653357,2136,2415,æ_S
1788787436.6559339,2131,1972,æ_S
1788787436.6572428,2038,1869,æ_S
1788787436.662484,1885,1715,æ_S
1788787436.6633542,2035,2405,æ_S
1788787436.663826,2113,2286,æ_S
1788787436.66547,2139,2147,æ_S
1788787436.669485,2073,1973,æ_S
1788787436.6696231,2064,2174,æ_S
1788787436.671964,2152,2174,æ_S
1788787436.673393,2086,1914,æ_S
1788787436.675967,1941,1726,æ_S
1788787436.677353,1993,2308,æ_S
1788787436.682357,2081,2177,æ_S
1788787436.6829069,2126,2249,æ_S
1788787436.683821,2098,2028,æ_S
1788787436.6857312,2080,2107,æ_S
1788787436.690133,2185,2371,æ_S
1788787436.690332,2117,1942,æ_S
1788787436.693151,1991,1814,æ_S
1788787436.693407,1908,1983,æ_S
1788787436.695988,2055,2217,æ_S
1788787436.697275,2125,2301,æ_S
1788787436.703392,2117,2078,æ_S
1788787436.7042649,2057,1960,æ_S
1788787436.7058501,2127,2408,æ_S
1788787436.7060459,2117,2000,æ_S
1788787436.707504,2017,1845,æ_S
1788787436.709288,1894,1731,æ_S
1788787436.713058,2023,2369,æ_S
1788787436.7132878,2091,2274,æ_S
1788787436.715863,2116,2135,æ_S
1788787436.7171671,2066,1945,æ_S
1788787436.7197719,2095,2153,æ_S
1788787436.7233741,2163,2175,æ_S
1788787436.723974,2102,1945,æ_S
1788787436.727926,1954,1708,æ_S
1788787436.728482,1970,2288,æ_S
1788787436.730976,2061,2186,æ_S
1788787436.731222,2160,2218,æ_S
1788787436.7343738,2119,2021,æ_S
1788787436.735703,2048,2138,æ_S
1788787436.737018,2146,2363,æ_S
1788787436.7395918,2108,1974,æ_S
1788787436.746069,1992,1814,æ_S
1788787436.746651,1912,1969,æ_S
1788787436.748327,2063,2236,æ_S
1788787436.751604,2133,2303,æ_S
1788787436.753029,2090,2070,æ_S
1788787436.7556522,2051,1966,æ_S
1788787436.755747,2149,2403,æ_S
1788787436.755858,2140,1974,æ_S
1788787436.757217,2039,1843,æ_S
1788787436.759684,1906,1707,æ_S
1788787436.7611032,2052,2383,æ_S
1788787436.766808,2132,2294,æ_S
1788787436.767103,2147,2147,æ_S
1788787436.771199,2065,1963,æ_S
1788787436.771519,2074,2159,æ_S
1788787436.771799,2151,2172,æ_S
1788787436.773587,2055,1920,æ_S
1788787436.7753239,1936,1715,æ_S
1788787436.779358,1942,2374,æ_S
1788787436.779447,2082,2191,æ_S
1788787436.782253,2143,2223,æ_S
1788787436.786721,2104,2022,æ_S
1788787436.787827,2074,2131,æ_S
1788787436.79092,2185,2365,æ_S
1788787436.792781,2107,1961,æ_S
1788787436.794867,1974,1812,æ_S
1788787436.796627,1897,1974,æ_S
1788787436.797085,2066,2212,æ_S
1788787436.797343,2153,2287,æ_S
1788787436.799986,2139,2095,æ_S
1788787436.8014889,2046,1974,æ_S
1788787436.8028421,2116,2397,æ_S
1788787436.805496,2138,2001,æ_S
1788787436.8118951,2045,1818,æ_S
1788787436.812167,1900,1737,æ_S
1788787436.814154,2043,2425,æ_S
1788787436.814642,2102,2284,æ_S
1788787436.816798,2138,2099,æ_S
1788787436.8224168,2079,1967,æ_S
1788787436.822838,2062,2173,æ_S
1788787436.822919,2148,2181,æ_S
1788787436.822987,2060,1931,æ_S
1788787436.825692,1962,1723,æ_S
1788787436.82721,1986,2287,æ_S
1788787436.8319821,2069,2168,æ_S
1788787436.8334742,2130,2231,æ_S
1788787436.835583,2106,2031,æ_S
1788787436.83605,2066,2125,æ_S
1788787436.8406668,2152,2366,æ_S
1788787436.842571,2118,1980,æ_S
1788787436.843102,2005,1804,æ_S
1788787436.845839,1935,1981,æ_S
1788787436.845929,2057,2247,æ_S
1788787436.847272,2125,2274,æ_S
1788787436.852891,2123,2075,æ_S
1788787436.855814,2056,1976,æ_S
1788787436.856425,2113,2389,æ_S
1788787436.8582,2116,1978,æ_S
1788787436.861823,2018,1814,æ_S
1788787436.862287,1898,1747,æ_S
1788787436.864584,2028,2397,æ_S
1788787436.8653178,2079,2257,æ_S
1788787436.8653948,2117,2135,æ_S
1788787436.866752,2079,1977,æ_S
1788787436.869376,2094,2179,æ_S
1788787436.8707662,2181,2155,æ_S
1788787436.879607,2088,1915,æ_S
1788787436.8799691,1964,1731,æ_S
1788787436.881491,1987,2281,æ_S
1788787436.882706,2079,2183,æ_S
1788787436.8829582,2152,2232,æ_S
1788787436.883122,2116,2022,æ_S
1788787436.886389,2071,2108,æ_S
1788787436.889471,2172,2363,æ_S
1788787436.8895612,2112,1964,æ_S
1788787436.8909068,1982,1866,æ_S
1788787436.900067,1914,1972,æ_S
1788787436.9005702,2063,2222,æ_S
1788787436.9024699,2141,2286,æ_S
1788787436.902561,2144,2082,æ_S
1788787436.90702,2055,1973,æ_S
1788787436.907291,2119,2392,æ_S
1788787436.907674,2125,1982,æ_S
1788787436.908225,2008,1838,æ_S
1788787436.911732,1845,1723,æ_S
1788787436.9118562,2025,2399,æ_S
1788787436.913206,2108,2271,æ_S
1788787436.915848,2157,2158,æ_S
1788787436.917089,2087,1945,æ_S
1788787436.922902,2110,2166,æ_S
1788787436.925709,2176,2158,æ_S
1788787436.9262059,2092,1925,æ_S
1788787436.927608,1976,1748,æ_S
1788787436.928375,2002,2281,æ_S
1788787436.930361,2085,2187,æ_S
1788787436.932659,2136,2216,æ_S
1788787436.936254,2097,2028,æ_S
1788787436.936706,2052,2131,æ_S
1788787436.936811,2149,2361,æ_S
1788787436.947556,2091,1959,æ_S
1788787436.949816,1990,1803,æ_S
1788787436.95052,1921,1975,æ_S
1788787436.954091,2071,2225,æ_S
1788787436.954745,2136,2282,æ_S
1788787436.955025,2116,2083,æ_S
1788787436.955186,2046,1973,æ_S
1788787436.955644,2094,2398,æ_S
1788787436.957935,2138,1999,æ_S
1788787436.9581969,2040,1827,æ_S
1788787436.959562,1918,1730,æ_S
1788787436.96093,2042,2400,æ_S
1788787436.963577,2103,2286,æ_S
1788787436.964927,2143,2141,æ_S
1788787436.971714,2076,1971,æ_S
1788787436.973852,2069,2197,æ_S
1788787436.975189,2152,2182,æ_S
1788787436.980055,2078,1926,æ_S
1788787436.980318,1963,1734,æ_S
1788787436.980673,1967,2302,æ_S
1788787436.980984,2058,2188,æ_S
1788787436.98161,2127,2238,æ_S
1788787436.9843059,2098,2007,æ_S
1788787436.985675,2082,2129,æ_S
1788787436.987168,2178,2379,æ_S
1788787436.992806,2106,1968,æ_S
1788787436.9956028,2004,1829,æ_S
1788787436.995939,1914,1974,æ_S
1788787436.996224,2067,2246,æ_S
1788787436.9998348,2120,2284,æ_S
1788787437.000285,2125,2101,æ_S
1788787437.0027971,2065,1982,æ_S
1788787437.003238,2154,2389,æ_S
1788787437.0062568,2133,1969,æ_S
1788787437.007618,2005,1852,æ_S
1788787437.0090501,1885,1712,æ_S
1788787437.0116951,2046,2373,æ_S
1788787437.0130408,2110,2293,æ_S
1788787437.0185301,2125,2155,æ_S
1788787437.021743,2053,1962,æ_S
1788787437.022038,2055,2164,æ_S
1788787437.022378,2144,2180,æ_S
1788787437.026453,2068,1936,æ_S
1788787437.0289679,1945,1736,æ_S
1788787437.029365,1975,2294,æ_S
1788787437.029784,2079,2197,æ_S
1788787437.03281,2138,2242,æ_S
1788787437.032914,2103,2013,æ_S
1788787437.03573,2058,2144,æ_S
1788787437.042766,2153,2369,æ_S
1788787437.0446,2113,1984,æ_S
1788787437.045291,2004,1806,æ_S
1788787437.049184,1906,1972,æ_S
1788787437.0494342,2083,2215,æ_S
1788787437.051957,2156,2302,æ_S
1788787437.052345,2145,2084,æ_S
1788787437.052614,2062,1959,æ_S
1788787437.0531101,2135,2394,æ_S
1788787437.056139,2140,1979,æ_S
1788787437.0575209,2029,1831,æ_S
1788787437.0589619,1887,1729,æ_S
1788787437.061596,2021,2394,æ_S
1788787437.0629408,2089,2295,æ_S
1788787437.071687,2119,2147,æ_S
1788787437.0720901,2052,1966,æ_S
1788787437.078677,2077,2169,æ_S
1788787437.079239,2160,2184,æ_S
1788787437.079534,2077,1940,æ_S
1788787437.080106,1948,1745,æ_S
1788787437.082825,1957,2286,æ_S
1788787437.083495,2080,2185,æ_S
1788787437.083839,2149,2239,æ_S
1788787437.0839071,2109,2021,æ_S
1788787437.085283,2062,2121,æ_S
1788787437.0866501,2163,2373,æ_S
1788787437.093906,2113,1979,æ_S
1788787437.0965161,2011,1819,æ_S
1788787437.096886,1895,1990,æ_S
1788787437.097038,2041,2212,æ_S
1788787437.0992289,2108,2292,æ_S
1788787437.100142,2128,2084,æ_S
1788787437.102147,2077,1969,æ_S
1788787437.105355,2169,2394,æ_S
1788787437.105581,2118,1979,æ_S
1788787437.109189,2012,1862,æ_S
1788787437.109291,1908,1728,æ_S
1788787437.110698,2049,2403,æ_S
1788787437.1133618,2157,2264,æ_S
1788787437.114739,2169,2146,æ_S
1788787437.1222022,2060,1982,æ_S
1788787437.1236749,2031,2177,æ_S
1788787437.125994,2127,2162,æ_S
1788787437.128445,2051,1978,æ_S
1788787437.132322,1916,1802,æ_S
1788787437.132489,1962,2275,æ_S
1788787437.132871,2061,2063,æ_S
1788787437.133188,2109,2209,æ_S
1788787437.1336691,2055,1995,æ_S
1788787437.137072,2046,2146,æ_S
1788787437.1371891,2171,2348,æ_S
1788787437.138581,2107,1922,æ_S
1788787437.146492,2001,1759,æ_S
1788787437.146833,1922,2001,æ_S
1788787437.149277,2074,2304,æ_S
1788787437.150896,2145,2332,æ_S
1788787437.153474,2128,2074,æ_S
1788787437.153683,2016,1992,æ_S
1788787437.1539578,2132,2421,æ_S
1788787437.1568398,2169,2065,æ_S
1788787437.157023,2057,1767,æ_S
1788787437.159693,1896,1614,æ_S
1788787437.160934,2033,2503,æ_S
1788787437.167422,2086,2415,æ_S
1788787437.168074,2128,1926,æ_S
1788787437.1687229,2022,1873,æ_S
1788787437.1708312,2052,2163,æ_S
1788787437.171087,2192,2239,æ_S
1788787437.174813,2074,1998,æ_S
1788787437.177932,1991,1755,æ_S
1788787437.1808078,1958,2368,æ_S
1788787437.180922,2041,2269,æ_S
1788787437.18099,2163,2106,æ_S
1788787437.183904,2194,1843,æ_S
1788787437.190119,2064,2022,æ_S
1788787437.192398,2152,2511,æ_S
1788787437.1946461,2150,1980,æ_S
1788787437.1963,2048,1754,æ_S
1788787437.198986,1965,1896,æ_S
1788787437.19924,2098,2230,æ_S
1788787437.199662,2081,2384,æ_S
1788787437.199929,2010,2157,æ_S
1788787437.202442,1995,2302,æ_S
1788787437.202676,2186,2570,æ_S
1788787437.205666,2155,1666,æ_S
1788787437.2071419,2068,1731,æ_S
1788787437.208558,1937,1706,æ_S
1788787437.2147589,2040,2293,æ_S
1788787437.215373,2199,2280,æ_S
1788787437.2178078,2431,2302,æ_S
1788787437.219966,2233,2022,æ_S
1788787437.2214541,2258,2015,æ_S
1788787437.221604,2149,2235,æ_S
1788787437.227427,1859,2044,æ_S
1788787437.22769,1726,1721,æ_S
1788787437.22778,1868,2214,æ_S
1788787437.2292008,2063,2153,æ_S
1788787437.230585,2043,2215,æ_S
1788787437.2332978,2040,2019,æ_S
1788787437.2411,2089,2135,æ_S
1788787437.241463,2162,2313,æ_S
1788787437.243826,2190,1964,æ_S
1788787437.244002,2087,1948,æ_S
1788787437.245611,2054,1984,æ_S
1788787437.248461,2190,2297,æ_S
1788787437.248725,2160,2390,æ_S
1788787437.248867,2168,2099,æ_S
1788787437.251696,2010,1832,æ_S
1788787437.253015,2247,2317,æ_S
1788787437.258281,2457,2118,æ_S
1788787437.259956,1956,1844,æ_S
1788787437.262293,1797,1791,æ_S
1788787437.26254,2021,2343,æ_S
1788787437.262733,2152,2190,æ_S
1788787437.26635,2141,2121,æ_S
1788787437.269086,2034,2129,æ_S
1788787437.2693388,1992,2418,æ_S
1788787437.272243,2115,2125,æ_S
1788787437.2736719,2052,1799,æ_S
1788787437.275049,2004,1830,æ_S
1788787437.277442,2069,2304,æ_S
1788787437.279165,2079,2060,æ_S
1788787437.2870138,2150,2288,æ_S
1788787437.287607,2160,2088,æ_S
1788787437.2915468,2099,2134,æ_S
1788787437.2944078,2227,2429,æ_S
1788787437.29502,2144,2093,æ_S
1788787437.295357,2100,1970,æ_S
1788787437.29563,2007,2043,æ_S
1788787437.2959669,2135,2221,æ_S
1788787437.298089,2144,2362,æ_S
1788787437.299941,2224,2190,æ_S
1788787437.301387,2060,2022,æ_S
1788787437.307078,2165,2704,æ_S
1788787437.308264,2200,2167,æ_S
1788787437.3102221,2036,1500,æ_S
1788787437.3104908,1847,1487,æ_S
1788787437.3119092,2094,2495,æ_S
1788787437.314177,2299,2280,æ_S
1788787437.317046,2269,2215,æ_S
1788787437.317235,2189,1892,æ_S
1788787437.3203242,2099,2108,æ_S
1788787437.321693,2088,2372,æ_S
1788787437.323045,2046,2115,æ_S
1788787437.325809,2148,1755,æ_S
1788787437.3317592,2094,2345,æ_S
1788787437.333067,2065,2403,æ_S
1788787437.3388422,2128,2258,æ_S
1788787437.342109,2213,1918,æ_S
1788787437.34229,2009,2039,æ_S
1788787437.342498,2102,2490,æ_S
1788787437.3427,2096,2073,æ_S
1788787437.345508,1971,1650,æ_S
1788787437.3463092,1911,1727,æ_S
1788787437.346452,2222,2300,æ_S
1788787437.346525,2187,2429,æ_S
1788787437.34929,2079,2171,æ_S
1788787437.3567638,2015,1907,æ_S
1788787437.3571572,2254,2417,æ_S
1788787437.359127,2635,2060,æ_S
1788787437.361225,2612,2004,æ_S
1788787437.3614001,1853,2131,æ_S
1788787437.364546,1764,2249,æ_S
1788787437.364844,1974,1862,æ_S
1788787437.3651001,2094,2442,æ_S
1788787437.367806,1923,1871,æ_S
1788787437.36912,1972,1962,æ_S
1788787437.3705778,1966,2284,æ_S
1788787437.3734112,1845,1873,æ_S
1788787437.377512,1816,1756,æ_S
1788787437.378486,1951,2356,æ_S
1788787437.378627,2233,2367,æ_S
1788787437.380605,2325,2490,æ_S
1788787437.383618,2196,2079,æ_S
1788787437.388435,2089,2142,æ_S
1788787437.389214,2325,2447,æ_S
1788787437.3893278,2165,1896,æ_S
1788787437.39064,2053,2145,æ_S
1788787437.393188,2091,2479,æ_S
1788787437.394641,2166,1926,æ_S
1788787437.40362,2062,1839,æ_S
1788787437.405258,2223,1934,æ_S
1788787437.412089,2746,2139,æ_S
1788787437.4122298,2259,2481,æ_S
1788787437.412871,1482,2083,æ_S
1788787437.412986,1595,1579,æ_S
1788787437.413034,1866,1643,æ_S
1788787437.413134,2080,2529,æ_S
1788787437.4134212,2095,2414,æ_S
1788787437.4148,2159,2373,æ_S
1788787437.41745,1904,2216,æ_S
1788787437.424344,2057,2460,æ_S
1788787437.427556,2128,2150,æ_S
1788787437.429205,2143,1741,æ_S
1788787437.4318762,2015,1787,æ_S
1788787437.432178,2074,2289,æ_S
1788787437.4359481,2091,2115,æ_S
1788787437.438857,2062,2342,æ_S
1788787437.438945,2134,2203,æ_S
1788787437.43905,2188,2278,æ_S
1788787437.4391198,2277,2689,æ_S
1788787437.4391859,2190,2007,æ_S
1788787437.440613,2111,1795,æ_S
1788787437.446787,1994,2076,æ_S
1788787437.448425,2105,2341,æ_S
1788787437.448735,2191,2372,æ_S
1788787437.450565,2129,2253,æ_S
1788787437.452647,1896,2000,æ_S
1788787437.454891,2088,2523,æ_S
1788787437.458281,2248,2004,æ_S
1788787437.4617999,2161,1778,æ_S
1788787437.461948,2008,1604,æ_S
1788787437.462133,2079,2489,æ_S
1788787437.4636102,2094,2567,æ_S
1788787437.4651551,2060,1959,æ_S
1788787437.466673,1976,2014,æ_S
1788787437.4727612,2020,2354,æ_S
1788787437.474017,2236,2735,æ_S
1788787437.47691,2103,1747,æ_S
1788787437.477204,2039,1509,æ_S
1788787437.480886,2002,2381,æ_S
1788787437.481098,2052,2296,æ_S
1788787437.484544,2120,2608,æ_S
1788787437.484947,2057,2066,æ_S
1788787437.485587,2040,1720,æ_S
1788787437.4883451,2143,2612,æ_S
1788787437.488802,2085,2366,æ_S
1788787437.4915771,1983,1712,æ_S
1788787437.497211,1885,1843,æ_S
1788787437.500434,2023,2721,æ_S
1788787437.5006888,2163,2450,æ_S
1788787437.5009139,2205,2011,æ_S
1788787437.501288,2349,2001,æ_S
1788787437.50366,2364,2828,æ_S
1788787437.509136,2107,2438,æ_S
1788787437.5098932,1937,1753,æ_S
1788787437.512716,1847,1427,æ_S
1788787437.513102,1918,2165,æ_S
1788787437.513174,2134,2308,æ_S
1788787437.514569,2246,2430,æ_S
1788787437.51719,2138,2249,æ_S
1788787437.518582,1926,2297,æ_S
1788787437.525719,2044,2470,æ_S
1788787437.5287192,1991,1765,æ_S
1788787437.5306811,1972,1427,æ_S
1788787437.5308821,2060,2629,æ_S
1788787437.5330648,2108,2421,æ_S
1788787437.5371351,2187,2311,æ_S
1788787437.537452,2016,2381,æ_S
1788787437.537674,2114,2103,æ_S
1788787437.537911,2264,2557,æ_S
1788787437.542197,2216,1919,æ_S
1788787437.542303,2172,1725,æ_S
1788787437.5423691,2023,1970,æ_S
1788787437.54437,2155,2320,æ_S
1788787437.563787,2098,2299,æ_S
1788787437.564085,2153,2168,æ_S
1788787437.564236,2053,1903,æ_S
1788787437.5643048,2114,2567,æ_S
1788787437.56437,2042,2318,æ_S
1788787437.5644329,1933,1823,æ_S
1788787437.564495,1871,1672,æ_S
1788787437.564554,1988,2511,æ_S
1788787437.564613,2087,2382,æ_S
1788787437.5789251,2137,2218,æ_S
1788787437.589047,2072,1965,æ_S
1788787437.593802,2083,2241,æ_S
1788787437.5938659,2205,2505,æ_S
1788787437.5939121,2177,2155,æ_S
1788787437.594032,2054,1891,æ_S
1788787437.594208,2067,2309,æ_S
1788787437.5943072,2255,2235,æ_S
1788787437.594377,2209,2311,æ_S
1788787437.594442,1939,2095,æ_S
1788787437.594508,1935,1980,æ_S
1788787437.5945752,2150,2634,æ_S
1788787437.594666,2129,2184,æ_S
1788787437.5947468,2058,1560,æ_S
1788787437.594818,2015,2037,æ_S
1788787437.594887,2141,2520,æ_S
1788787437.596253,2155,2224,æ_S
1788787437.6017642,1995,1949,æ_S
1788787437.604921,1922,1962,æ_S
1788787437.60542,2073,2443,æ_S
1788787437.6080499,2094,2221,æ_S
1788787437.6132212,1946,2197,æ_S
1788787437.613593,1794,1659,æ_S
1788787437.61394,1944,2641,æ_S
1788787437.614476,2134,2134,æ_S
1788787437.6149461,2232,1947,æ_S
1788787437.617488,2215,2225,æ_S
1788787437.618849,2135,2418,æ_S
1788787437.620203,2235,2373,æ_S
1788787437.6227672,2078,1809,æ_S
1788787437.6294012,1799,1493,æ_S
1788787437.633208,2016,2335,æ_S
1788787437.636928,2228,2467,æ_S
1788787437.640424,2277,2542,æ_S
1788787437.6408582,2116,2195,æ_S
1788787437.641173,1938,1975,æ_S
1788787437.6418922,2014,2545,æ_S
1788787437.644256,2093,2261,æ_S
1788787437.645205,1980,1808,æ_S
1788787437.6452842,1882,1740,æ_S
1788787437.64535,2089,2312,æ_S
1788787437.646688,2250,2411,æ_S
1788787437.6529999,2099,2144,æ_S
1788787437.6554492,1954,1963,æ_S
1788787437.6640818,1985,2420,æ_S
1788787437.664778,2093,2102,æ_S
1788787437.6653068,2120,1564,æ_S
1788787437.6683,1845,1610,æ_S
1788787437.6683881,1921,2517,æ_S
1788787437.6684558,2007,2274,æ_S
1788787437.66852,2084,2353,æ_S
1788787437.668583,2215,2532,æ_S
1788787437.6686451,2156,2387,æ_S
1788787437.671287,2223,2109,æ_S
1788787437.672652,2140,1691,æ_S
1788787437.680222,1958,1756,æ_S
1788787437.681525,1912,2411,æ_S
1788787437.681767,2072,2186,æ_S
1788787437.6824498,2143,2269,æ_S
1788787437.683116,2003,2069,æ_S
1788787437.6854951,1939,2180,æ_S
1788787437.687707,2192,2542,æ_S
1788787437.6945002,2166,2033,æ_S
1788787437.695138,2045,1859,æ_S
1788787437.6984608,1874,1807,æ_S
1788787437.69882,1999,2399,æ_S
1788787437.699179,2061,2631,æ_S
1788787437.699248,2160,1848,æ_S
1788787437.7005959,2304,1792,æ_S
1788787437.71004,2248,2700,æ_S
1788787437.7108989,2001,2293,æ_S
1788787437.713085,1917,1547,æ_S
1788787437.713325,1995,1214,æ_S
1788787437.716495,2110,2480,æ_S
1788787437.7185159,1961,2447,æ_S
1788787437.722952,1932,2247,æ_S
1788787437.7234938,1949,1969,æ_S
1788787437.7239301,2040,2324,æ_S
1788787437.724328,2201,2396,æ_S
1788787437.724658,2195,2053,æ_S
1788787437.727822,2171,2014,æ_S
1788787437.7282119,1976,2202,æ_S
1788787437.7283032,1898,2079,æ_S
1788787437.730934,2097,2309,æ_S
1788787437.7322922,2118,2192,æ_S
1788787437.734967,2041,1869,æ_S
1788787437.741296,2120,2502,æ_S
1788787437.74151,2144,2404,æ_S
1788787437.744831,2225,1577,æ_S
1788787437.74719,1954,1393,æ_S
1788787437.747981,1944,2506,æ_S
1788787437.7498171,2097,2576,æ_S
1788787437.754445,2152,2008,æ_S
1788787437.754911,2039,1910,æ_S
1788787437.755411,2101,2517,æ_S
1788787437.757982,2073,2107,æ_S
1788787437.758875,1969,1709,æ_S
1788787437.758958,1826,1431,æ_S
1788787437.7603168,2004,2588,æ_S
1788787437.769054,2116,2473,æ_S
1788787437.7715452,2192,2272,æ_S
1788787437.7719529,2150,1999,æ_S
1788787437.7724931,2124,2397,æ_S
1788787437.775689,2193,2392,æ_S
1788787437.781726,2080,1894,æ_S
1788787437.782271,2062,1693,æ_S
1788787437.782517,2008,2083,æ_S
1788787437.783046,1981,1884,æ_S
1788787437.78593,2088,2759,æ_S
1788787437.786923,2045,2080,æ_S
1788787437.7869859,2101,2113,æ_S
1788787437.7870378,2106,2374,æ_S
1788787437.788434,1953,1849,æ_S
1788787437.791092,1920,1699,æ_S
1788787437.792445,1896,1688,æ_S
1788787437.799377,2049,2479,æ_S
1788787437.8031008,2151,2472,æ_S
1788787437.803851,2150,2242,æ_S
1788787437.806676,2082,1931,æ_S
1788787437.8090901,2162,2470,æ_S
1788787437.809464,2222,2134,æ_S
1788787437.813898,2001,1714,æ_S
1788787437.8143208,1776,1437,æ_S
1788787437.814713,1977,2442,æ_S
1788787437.814989,2114,2346,æ_S
1788787437.815356,2135,2210,æ_S
1788787437.817825,2045,2044,æ_S
1788787437.8196669,2181,2424,æ_S
1788787437.8210392,2205,2342,æ_S
1788787437.8294048,1963,1573,æ_S
1788787437.832254,1886,1406,æ_S
1788787437.832531,2002,2194,æ_S
1788787437.8327959,2080,2287,æ_S
1788787437.833046,2104,2262,æ_S
1788787437.835832,2075,1996,æ_S
1788787437.8379562,2015,2049,æ_S
1788787437.8423061,2087,2479,æ_S
1788787437.842849,2082,2045,æ_S
1788787437.843505,2036,1702,æ_S
1788787437.846936,1966,1771,æ_S
1788787437.847477,2125,2388,æ_S
1788787437.847542,2202,2399,æ_S
1788787437.8488781,2233,2156,æ_S
1788787437.8502898,2080,1900,æ_S
1788787437.853004,2017,2485,æ_S
1788787437.8544068,2010,2174,æ_S
1788787437.861953,1983,1637,æ_S
1788787437.864009,1860,1327,æ_S
1788787437.8643122,1956,2452,æ_S
1788787437.872897,2020,2391,æ_S
1788787437.873319,2078,2265,æ_S
1788787437.8739772,2021,1948,æ_S
1788787437.874215,2053,2145,æ_S
1788787437.8772962,2168,2315,æ_S
1788787437.8782148,2106,1918,æ_S
1788787437.878289,1998,1540,æ_S
1788787437.878405,1995,2228,æ_S
1788787437.878479,2076,2267,æ_S
1788787437.8854349,2142,2317,æ_S
1788787437.8865411,2070,2052,æ_S
1788787437.8885992,2028,2096,æ_S
1788787437.888881,2150,2436,æ_S
1788787437.8891368,2081,1977,æ_S
1788787437.896182,1996,1666,æ_S
1788787437.8966029,1891,1678,æ_S
1788787437.896757,2076,2319,æ_S
1788787437.899029,2142,2388,æ_S
1788787437.899613,2119,2127,æ_S
1788787437.900964,2037,1839,æ_S
1788787437.902291,2075,2412,æ_S
1788787437.904874,2084,2116,æ_S
1788787437.910398,2023,1707,æ_S
1788787437.910943,1893,1408,æ_S
1788787437.911564,1991,2428,æ_S
1788787437.9136589,2095,2350,æ_S
1788787437.917079,2110,2318,æ_S
1788787437.9172878,2075,1866,æ_S
1788787437.920873,2072,2068,æ_S
1788787437.921174,2162,2397,æ_S
1788787437.9240289,2076,1791,æ_S
1788787437.924076,1944,1500,æ_S
1788787437.930819,1962,2173,æ_S
1788787437.931865,2061,2287,æ_S
1788787437.932838,2123,2349,æ_S
1788787437.932996,2085,2053,æ_S
1788787437.9345798,2052,2089,æ_S
1788787437.938166,2127,2420,æ_S
1788787437.9399161,2062,1938,æ_S
1788787437.942278,2005,1618,æ_S
1788787437.942546,1891,1649,æ_S
1788787437.94544,2006,2376,æ_S
1788787437.9467819,2078,2360,æ_S
1788787437.948095,2107,2015,æ_S
1788787437.950685,2033,1890,æ_S
1788787437.955677,2109,2417,æ_S
1788787437.9574459,2103,1981,æ_S
1788787437.9609,2002,1593,æ_S
1788787437.961513,1894,1301,æ_S
1788787437.963427,2021,2391,æ_S
1788787437.9635699,2092,2216,æ_S
1788787437.9673622,2112,2063,æ_S
1788787437.969908,2063,1697,æ_S
1788787437.970639,2067,1965,æ_S
1788787437.970731,2151,2049,æ_S
1788787437.9720662,2087,1579,æ_S
1788787437.977231,1960,1286,æ_S
1788787437.978667,1991,1965,æ_S
1788787437.979315,2086,2138,æ_S
1788787437.980899,2139,2193,æ_S
1788787437.98315,2109,1858,æ_S
1788787437.9883142,2061,1871,æ_S
1788787437.9884858,2162,2244,æ_S
1788787437.9887,2110,1647,æ_S
1788787437.991623,2011,1481,æ_S
1788787437.993025,1917,1629,æ_S
1788787437.994499,2051,2291,æ_S
1788787437.9970932,2117,2294,æ_S
1788787438.00234,2123,1943,æ_S
1788787438.0037582,2025,1707,æ_S
1788787438.0042949,2097,2187,æ_S
1788787438.005912,2120,1765,æ_S
1788787438.0061598,2039,1494,æ_S
1788787438.01353,1908,1345,æ_S
1788787438.01389,2044,2330,æ_S
1788787438.014247,2086,2209,æ_S
1788787438.014539,2128,2103,æ_S
1788787438.0172532,2085,1760,æ_S
1788787438.0185962,2073,1933,æ_S
1788787438.020032,2164,2106,æ_S
1788787438.024553,2049,1716,æ_S
1788787438.026366,1932,1440,æ_S
1788787438.028277,1939,2143,æ_S
1788787438.031863,2072,2193,æ_S
1788787438.032201,2133,2293,æ_S
1788787438.035857,2075,1938,æ_S
1788787438.0361862,2055,2013,æ_S
1788787438.036443,2179,2356,æ_S
1788787438.039078,2096,1796,æ_S
1788787438.0404742,1981,1553,æ_S
1788787438.04337,1879,1762,æ_S
1788787438.0447118,2033,2322,æ_S
1788787438.049398,2100,2374,æ_S
1788787438.049516,2100,2041,æ_S
1788787438.0521789,2034,1796,æ_S
1788787438.05335,2091,2362,æ_S
1788787438.0553012,2090,1862,æ_S
1788787438.0591202,2009,1616,æ_S
1788787438.0625658,1883,1485,æ_S
1788787438.0627148,2021,2449,æ_S
1788787438.062788,2079,2347,æ_S
1788787438.064184,2139,2069,æ_S
1788787438.066707,2061,1766,æ_S
1788787438.068077,2053,2052,æ_S
1788787438.078676,2125,2221,æ_S
1788787438.083843,2054,1778,æ_S
1788787438.0841331,1936,1510,æ_S
1788787438.084379,1946,2199,æ_S
1788787438.087189,2073,2199,æ_S
1788787438.087318,2157,2206,æ_S
1788787438.087462,2118,1940,æ_S
1788787438.08758,2037,2050,æ_S
1788787438.087729,2120,2435,æ_S
1788787438.089121,2055,1775,æ_S
1788787438.0968,1957,1536,æ_S
1788787438.0970619,1881,1748,æ_S
1788787438.097306,2053,2293,æ_S
1788787438.097536,2079,2351,æ_S
1788787438.100806,2080,2047,æ_S
1788787438.101411,2015,1767,æ_S
1788787438.1050649,2097,2294,æ_S
1788787438.1054568,2096,1879,æ_S
1788787438.108248,2002,1650,æ_S
1788787438.1083672,1878,1442,æ_S
1788787438.1110709,2001,2416,æ_S
1788787438.112452,2078,2354,æ_S
1788787438.117522,2116,2092,æ_S
1788787438.119701,2031,1819,æ_S
1788787438.122135,2051,2086,æ_S
1788787438.124382,2131,2059,æ_S
1788787438.129666,2100,1749,æ_S
1788787438.130155,1904,1557,æ_S
1788787438.130466,1906,2155,æ_S
1788787438.1307771,2048,2120,æ_S
1788787438.1309922,2126,2190,æ_S
1788787438.133537,2083,1882,æ_S
1788787438.134918,2060,1895,æ_S
1788787438.136653,2168,2339,æ_S
1788787438.143405,2122,1705,æ_S
1788787438.145632,2019,1592,æ_S
1788787438.146058,1890,1784,æ_S
1788787438.147928,2038,2327,æ_S
1788787438.148719,2120,2237,æ_S
1788787438.150458,2107,1993,æ_S
1788787438.154769,2024,1792,æ_S
1788787438.155448,2111,2271,æ_S
1788787438.157813,2136,1823,æ_S
1788787438.1586812,2010,1759,æ_S
1788787438.1587389,1856,1585,æ_S
1788787438.160168,2003,2391,æ_S
1788787438.1628458,2090,2300,æ_S
1788787438.1641972,2144,2126,æ_S
1788787438.1714041,2040,1867,æ_S
1788787438.173573,2056,2109,æ_S
1788787438.175494,2160,2121,æ_S
1788787438.17776,2065,1812,æ_S
1788787438.181631,1972,1652,æ_S
1788787438.182163,1975,2200,æ_S
1788787438.182667,2054,2161,æ_S
1788787438.183088,2111,2236,æ_S
1788787438.183394,2092,1997,æ_S
1788787438.1862159,2022,2026,æ_S
1788787438.186292,2145,2346,æ_S
1788787438.193206,2131,1796,æ_S
1788787438.197612,1999,1779,æ_S
1788787438.198129,1893,1890,æ_S
1788787438.200499,2029,2313,æ_S
1788787438.201972,2137,2303,æ_S
1788787438.206002,2127,2034,æ_S
1788787438.206225,2011,1933,æ_S
1788787438.206795,2084,2337,æ_S
1788787438.207048,2078,1932,æ_S
1788787438.207621,2001,1803,æ_S
1788787438.209712,1878,1610,æ_S
1788787438.211081,2049,2406,æ_S
1788787438.2124228,2102,2324,æ_S
1788787438.2150688,2121,2150,æ_S
1788787438.221604,2087,1933,æ_S
1788787438.222972,2059,2148,æ_S
1788787438.224913,2144,2216,æ_S
1788787438.2291331,2059,1894,æ_S
1788787438.2333188,2003,1663,æ_S
1788787438.2338188,1975,2242,æ_S
1788787438.234092,2101,2238,æ_S
1788787438.2345679,2146,2301,æ_S
1788787438.23492,2091,2037,æ_S
1788787438.237611,2019,2054,æ_S
1788787438.2380722,2147,2405,æ_S
1788787438.2381492,2064,1933,æ_S
1788787438.2406468,1936,1738,æ_S
1788787438.248158,1850,1923,æ_S
1788787438.249991,2028,2259,æ_S
1788787438.250278,2148,2403,æ_S
1788787438.2507288,2174,1991,æ_S
1788787438.2580118,2107,1906,æ_S
1788787438.258759,2120,2418,æ_S
1788787438.25905,2177,1947,æ_S
1788787438.261525,2055,1743,æ_S
1788787438.262352,1894,1649,æ_S
1788787438.262422,2012,2447,æ_S
1788787438.262485,2080,2285,æ_S
1788787438.2638211,2112,2151,æ_S
1788787438.2664268,2052,1858,æ_S
1788787438.267798,1991,2157,æ_S
1788787438.273542,2108,2282,æ_S
1788787438.2765288,2132,1801,æ_S
1788787438.2787042,1944,1579,æ_S
1788787438.28453,2011,2332,æ_S
1788787438.284957,2089,2188,æ_S
1788787438.2853389,2121,2179,æ_S
1788787438.28598,2061,1955,æ_S
1788787438.2889018,2057,2108,æ_S
1788787438.2890182,2184,2443,æ_S
1788787438.2891068,2154,1964,æ_S
1788787438.290501,2010,1691,æ_S
1788787438.296949,1878,1834,æ_S
1788787438.302028,2047,2284,æ_S
1788787438.307864,2127,2339,æ_S
1788787438.308319,2133,2050,æ_S
1788787438.30925,2061,1889,æ_S
1788787438.312224,2102,2313,æ_S
1788787438.3123178,2131,1924,æ_S
1788787438.312383,2070,1770,æ_S
1788787438.3124428,1943,1642,æ_S
1788787438.312504,2037,2414,æ_S
1788787438.312563,2103,2333,æ_S
1788787438.3139,2070,2149,æ_S
1788787438.316509,2038,1938,æ_S
1788787438.3178508,2092,2092,æ_S
1788787438.324288,2250,2167,æ_S
1788787438.327152,2114,1913,æ_S
1788787438.32765,1923,1755,æ_S
1788787438.328059,1956,2298,æ_S
1788787438.330105,2079,2213,æ_S
1788787438.332182,2112,2261,æ_S
1788787438.3361752,2117,1992,æ_S
1788787438.336944,2076,2069,æ_S
1788787438.337194,2144,2422,æ_S
1788787438.3401542,2094,1921,æ_S
1788787438.340291,2030,1774,æ_S
1788787438.3433301,1916,1873,æ_S
1788787438.348709,2097,2267,æ_S
1788787438.35159,2168,2325,æ_S
1788787438.353397,2143,2101,æ_S
1788787438.355523,2039,1928,æ_S
1788787438.355941,2150,2343,æ_S
1788787438.360186,2141,1997,æ_S
1788787438.360727,2047,1807,æ_S
1788787438.361386,1875,1684,æ_S
1788787438.361813,2064,2392,æ_S
1788787438.365189,2151,2315,æ_S
1788787438.365268,2152,2148,æ_S
1788787438.366621,2094,1909,æ_S
1788787438.367973,2089,2177,æ_S
1788787438.370595,2159,2121,æ_S
1788787438.372108,2071,1929,æ_S
1788787438.37827,1942,1721,æ_S
1788787438.378507,1972,2289,æ_S
1788787438.3791978,2057,2225,æ_S
1788787438.3821702,2156,2209,æ_S
1788787438.3828301,2148,1987,æ_S
1788787438.3854668,2120,2159,æ_S
1788787438.38734,2233,2421,æ_S
1788787438.391996,2156,1913,æ_S
1788787438.39218,2047,1786,æ_S
1788787438.3928509,1924,1929,æ_S
1788787438.3963919,2092,2250,æ_S
1788787438.3965409,2141,2296,æ_S
1788787438.3979762,2174,2090,æ_S
1788787438.404,2048,1928,æ_S
1788787438.404842,2119,2404,æ_S
1788787438.405735,2162,1967,æ_S
1788787438.406589,2046,1785,æ_S
1788787438.4093409,1924,1671,æ_S
1788787438.413902,2065,2411,æ_S
1788787438.4185228,2125,2298,æ_S
1788787438.418837,2161,2142,æ_S
1788787438.419225,2083,1910,æ_S
1788787438.419528,2099,2159,æ_S
1788787438.422836,2186,2196,æ_S
1788787438.422913,2074,1915,æ_S
1788787438.424271,1972,1730,æ_S
1788787438.426995,1976,2320,æ_S
1788787438.428378,2076,2185,æ_S
1788787438.429867,2152,2235,æ_S
1788787438.436644,2110,1934,æ_S
1788787438.436981,2057,2123,æ_S
1788787438.438168,2133,2431,æ_S
1788787438.4405482,2085,1908,æ_S
1788787438.4409049,2014,1790,æ_S
1788787438.4437969,1900,1894,æ_S
1788787438.4455721,2052,2314,æ_S
1788787438.450231,2118,2323,æ_S
1788787438.450495,2128,2062,æ_S
1788787438.450816,2070,1936,æ_S
1788787438.454442,2120,2358,æ_S
1788787438.4545228,2129,1962,æ_S
1788787438.455887,2050,1791,æ_S
1788787438.4633431,1896,1666,æ_S
1788787438.4647198,2011,2422,æ_S
1788787438.4673111,2108,2293,æ_S
1788787438.467562,2098,2130,æ_S
1788787438.4678469,2094,1936,æ_S
1788787438.468329,2106,2151,æ_S
1788787438.472547,2182,2211,æ_S
1788787438.477487,2074,1908,æ_S
1788787438.478003,1962,1706,æ_S
1788787438.478221,1981,2316,æ_S
1788787438.478822,2068,2169,æ_S
1788787438.4820302,2127,2194,æ_S
1788787438.4824388,2093,2048,æ_S
1788787438.483892,2081,2104,æ_S
1788787438.4865532,2177,2428,æ_S
1788787438.487916,2101,1988,æ_S
1788787438.496809,2008,1787,æ_S
1788787438.49713,1940,1894,æ_S
1788787438.497907,2066,2300,æ_S
1788787438.498237,2152,2326,æ_S
1788787438.498372,2159,2087,æ_S
1788787438.502893,2069,1940,æ_S
1788787438.5038989,2113,2371,æ_S
1788787438.505633,2114,1958,æ_S
1788787438.5104609,2023,1797,æ_S
1788787438.5112891,1925,1692,æ_S
1788787438.5149372,2054,2425,æ_S
1788787438.5154781,2114,2271,æ_S
1788787438.515584,2131,2145,æ_S
1788787438.515649,2087,1949,æ_S
1788787438.5183291,2114,2155,æ_S
1788787438.5238981,2178,2230,æ_S
1788787438.524648,2070,1913,æ_S
1788787438.525368,1914,1702,æ_S
1788787438.528588,1931,2313,æ_S
1788787438.528754,2048,2185,æ_S
1788787438.5308318,2116,2240,æ_S
1788787438.537245,2089,2019,æ_S
1788787438.537914,2061,2096,æ_S
1788787438.538143,2159,2420,æ_S
1788787438.538728,2112,1932,æ_S
1788787438.5422459,2004,1841,æ_S
1788787438.542321,1942,1929,æ_S
1788787438.543676,2101,2286,æ_S
1788787438.546303,2120,2273,æ_S
1788787438.547654,2109,2091,æ_S
1788787438.555985,1999,1947,æ_S
1788787438.558557,2100,2354,æ_S
1788787438.55888,2107,1963,æ_S
1788787438.559062,2027,1806,æ_S
1788787438.562913,1891,1709,æ_S
1788787438.563194,2025,2371,æ_S
1788787438.56697,2101,2279,æ_S
1788787438.567171,2171,2127,æ_S
1788787438.567713,2100,1965,æ_S
1788787438.5680919,2080,2180,æ_S
1788787438.571348,2152,2204,æ_S
1788787438.572661,2076,1909,æ_S
1788787438.5780869,1975,1734,æ_S
1788787438.5800908,1987,2276,æ_S
1788787438.58189,2077,2197,æ_S
1788787438.5832582,2136,2219,æ_S
1788787438.585599,2062,2011,æ_S
1788787438.585865,2043,2096,æ_S
1788787438.589719,2171,2437,æ_S
1788787438.589984,2096,1967,æ_S
1788787438.5902898,1978,1821,æ_S
1788787438.593143,1893,1915,æ_S
1788787438.59448,2051,2302,æ_S
1788787438.5957918,2124,2296,æ_S
1788787438.5983622,2130,2085,æ_S
1788787438.6035452,2058,1939,æ_S
1788787438.604479,2118,2378,æ_S
1788787438.6067,2139,1997,æ_S
1788787438.607059,2027,1819,æ_S
1788787438.610765,1891,1685,æ_S
1788787438.6141598,2014,2406,æ_S
1788787438.614413,2090,2272,æ_S
1788787438.614672,2146,2165,æ_S
1788787438.617602,2080,1941,æ_S
1788787438.617653,2073,2146,æ_S
1788787438.6204998,2177,2229,æ_S
1788787438.6244962,2084,1925,æ_S
1788787438.62553,1976,1736,æ_S
1788787438.6282308,1973,2286,æ_S
1788787438.6321568,2075,2195,æ_S
1788787438.632391,2126,2253,æ_S
1788787438.63596,2097,2043,æ_S
1788787438.6367319,2112,2105,æ_S
1788787438.637237,2206,2430,æ_S
1788787438.6401868,2140,1958,æ_S
1788787438.640317,2019,1817,æ_S
1788787438.641783,1914,1921,æ_S
1788787438.6444988,2050,2318,æ_S
1788787438.645896,2119,2273,æ_S
1788787438.651886,2118,2035,æ_S
1788787438.65251,2012,1942,æ_S
1788787438.653825,2070,2371,æ_S
1788787438.655864,2077,2019,æ_S
1788787438.6584089,2008,1919,æ_S
1788787438.6600692,1907,1773,æ_S
1788787438.660303,2042,2273,æ_S
1788787438.66435,2111,2162,æ_S
1788787438.664583,2143,2149,æ_S
1788787438.667736,2064,2119,æ_S
1788787438.667818,2107,2257,æ_S
1788787438.6747708,2169,2096,æ_S
1788787438.676571,2103,1835,æ_S
1788787438.678404,1954,1651,æ_S
1788787438.6804879,1967,2261,æ_S
1788787438.68143,2100,2246,æ_S
1788787438.686516,2153,2316,æ_S
1788787438.6868732,2113,2029,æ_S
1788787438.687568,2045,2064,æ_S
1788787438.687808,2179,2420,æ_S
1788787438.691347,2164,2131,æ_S
1788787438.69169,2040,1940,æ_S
1788787438.691859,1896,1888,æ_S
1788787438.694527,2019,2238,æ_S
1788787438.695879,2146,2206,æ_S
1788787438.703153,2282,2219,æ_S
1788787438.7060502,2230,1973,æ_S
1788787438.706469,2055,2248,æ_S
1788787438.710575,1993,1915,æ_S
1788787438.7142458,1926,1763,æ_S
1788787438.714663,1910,1797,æ_S
1788787438.71536,2027,2499,æ_S
1788787438.717849,2023,2346,æ_S
1788787438.718787,2004,2161,æ_S
1788787438.7188768,2076,1863,æ_S
1788787438.718944,2225,2092,æ_S
1788787438.720302,2313,2311,æ_S
1788787438.726702,2215,1921,æ_S
1788787438.7295291,2039,1718,æ_S
1788787438.729821,1960,2289,æ_S
1788787438.731701,2003,2383,æ_S
1788787438.733911,2020,2514,æ_S
1788787438.737707,1999,1726,æ_S
1788787438.738136,1925,1957,æ_S
1788787438.738652,1988,2392,æ_S
1788787438.7388768,2012,2004,æ_S
1788787438.74209,1975,1742,æ_S
1788787438.742199,1910,1895,æ_S
1788787438.7435782,2123,2289,æ_S
1788787438.746231,2231,2260,æ_S
1788787438.7475789,2281,2140,æ_S
1788787438.754984,2137,1979,æ_S
1788787438.75707,2192,2404,æ_S
1788787438.7576241,2110,1989,æ_S
1788787438.7612329,1973,1826,æ_S
1788787438.763051,1859,1715,æ_S
1788787438.763402,2069,2367,æ_S
1788787438.763652,2071,2204,æ_S
1788787438.763941,2087,2172,æ_S
1788787438.768307,2046,1923,æ_S
1788787438.768785,1985,2080,æ_S
1788787438.772251,2128,2323,æ_S
1788787438.77233,2091,2023,æ_S
1788787438.7736828,2020,1696,æ_S
1788787438.781292,1979,2170,æ_S
1788787438.782754,2021,2180,æ_S
1788787438.7834601,2102,2268,æ_S
1788787438.785506,2135,2062,æ_S
1788787438.786005,2028,2110,æ_S
1788787438.788172,2287,2418,æ_S
1788787438.790584,2159,1948,æ_S
1788787438.7907991,2109,1630,æ_S
1788787438.7951128,1962,1982,æ_S
1788787438.795746,2059,2336,æ_S
1788787438.7960792,2141,2209,æ_S
1788787438.799173,2249,2070,æ_S
1788787438.8005812,2211,2144,æ_S
1788787438.801888,2175,2448,æ_S
1788787438.804539,2086,1777,æ_S
1788787438.805902,1790,1862,æ_S
1788787438.817336,1910,1898,æ_S
1788787438.817931,2161,2269,æ_S
1788787438.818283,2070,2331,æ_S
1788787438.820367,1984,2425,æ_S
1788787438.832532,1905,1711,æ_S
1788787438.833143,2035,2075,æ_S
1788787438.876152,2126,2511,æ_S
1788787438.880297,2049,2301,æ_S
1788787438.880567,1946,1546,æ_S
1788787438.880687,1982,2016,æ_S
1788787438.880936,2126,2124,æ_S
1788787438.881152,2172,2275,æ_S
1788787438.881454,2145,2185,æ_S
1788787438.881632,2161,2180,æ_S
1788787438.881886,2131,2500,æ_S
1788787438.882154,2028,2130,æ_S
1788787438.8844612,1993,1942,æ_S
1788787438.88525,1984,2098,æ_S
1788787438.8855412,2141,2505,æ_S
1788787438.8856,2136,2177,æ_S
1788787438.885679,2222,1893,æ_S
1788787438.885729,2056,2026,æ_S
1788787438.885843,1959,2435,æ_S
1788787438.8859031,2099,1947,æ_S
1788787438.885955,2081,1720,æ_S
1788787438.886005,1901,1867,æ_S
1788787438.886055,2045,2552,æ_S
1788787438.886105,2216,2274,æ_S
1788787438.886155,2085,1958,æ_S
1788787438.886204,1994,1934,æ_S
1788787438.886253,2021,2330,æ_S
1788787438.886303,2182,2310,æ_S
1788787438.8863518,2215,1964,æ_S
1788787438.8864021,2163,1789,æ_S
1788787438.886451,1979,2285,æ_S
1788787438.8864992,1839,2266,æ_S
1788787438.88655,1974,2725,æ_S
1788787438.8865988,2139,2065,æ_S
1788787438.8866482,2090,1464,æ_S
1788787438.886699,2141,2549,æ_S
1788787438.888055,2101,2195,æ_S
1788787438.8947132,2023,1824,æ_S
1788787438.89588,1858,1783,æ_S
1788787438.8966012,2036,2307,æ_S
1788787438.898591,2208,2620,æ_S
1788787438.898738,2340,2089,æ_S
1788787438.900748,2646,1786,æ_S
1788787438.902933,2132,2619,æ_S
1788787438.907221,1833,2140,æ_S
1788787438.90754,1853,1657,æ_S
1788787438.9079711,1855,1994,æ_S
1788787438.9114392,2017,2604,æ_S
1788787438.911498,2029,1417,æ_S
1788787438.9140952,1925,1991,æ_S
1788787438.9154298,1898,2182,æ_S
1788787438.918367,2037,2100,æ_S
1788787438.923567,2250,2298,æ_S
1788787438.925094,2165,2014,æ_S
1788787438.927789,2060,1705,æ_S
1788787438.928201,2143,2203,æ_S
1788787438.928464,2071,2245,æ_S
1788787438.930528,2149,2377,æ_S
1788787438.932708,2105,2288,æ_S
1788787438.936689,2029,2402,æ_S
1788787438.936936,2207,2455,æ_S
1788787438.941056,2243,1731,æ_S
1788787438.941115,2094,1709,æ_S
1788787438.94133,2098,2031,æ_S
1788787438.943956,1993,2363,æ_S
1788787438.949822,1987,2564,æ_S
1788787438.9506218,2433,2166,æ_S
1788787438.952655,2395,1993,æ_S
1788787438.952883,2156,2892,æ_S
1788787438.95505,2059,2439,æ_S
1788787438.957901,1808,1927,æ_S
1788787438.958196,1851,1054,æ_S
1788787438.962201,2022,2271,æ_S
1788787438.962443,2302,2443,æ_S
1788787438.965759,2266,2351,æ_S
1788787438.9658968,2161,1827,æ_S
1788787438.967287,1698,1802,æ_S
1788787438.969884,1751,2414,æ_S
1788787438.9712691,1911,2152,æ_S
1788787438.978457,1845,2064,æ_S
1788787438.979111,1863,2503,æ_S
1788787438.9794052,2029,2017,æ_S
1788787438.980011,2064,2296,æ_S
1788787438.98277,1956,2108,æ_S
1788787438.984491,1953,2079,æ_S
1788787438.987015,2244,2551,æ_S
1788787438.991165,2282,2094,æ_S
1788787438.991691,2191,1844,æ_S
1788787438.99181,2210,1844,æ_S
1788787438.995171,2281,2413,æ_S
1788787438.995358,2070,2603,æ_S
1788787438.9980109,1848,2335,æ_S
1788787439.005611,1851,1640,æ_S
1788787439.006946,2159,2385,æ_S
1788787439.009152,2397,2145,æ_S
1788787439.011243,2394,1740,æ_S
1788787439.0120661,1858,1436,æ_S
1788787439.0129979,1620,2592,æ_S
1788787439.01323,1926,2403,æ_S
1788787439.0150552,2005,2026,æ_S
1788787439.019275,2033,2007,æ_S
1788787439.019627,2029,2106,æ_S
1788787439.020204,2162,2335,æ_S
1788787439.0232,2281,2077,æ_S
1788787439.023881,1953,1807,æ_S
1788787439.0254579,1806,2152,æ_S
1788787439.028105,2012,2380,æ_S
1788787439.029453,2268,2524,æ_S
1788787439.037339,2192,1871,æ_S
1788787439.037653,2049,2504,æ_S
1788787439.039277,2198,2418,æ_S
1788787439.040085,2018,1821,æ_S
1788787439.042568,1930,1867,æ_S
1788787439.042924,1941,1712,æ_S
1788787439.04494,2028,2335,æ_S
1788787439.04735,2065,2289,æ_S
1788787439.051441,2140,2122,æ_S
1788787439.051806,2112,2068,æ_S
1788787439.052141,2049,2561,æ_S
1788787439.056171,2165,2135,æ_S
1788787439.056253,2052,1866,æ_S
1788787439.057612,1904,1672,æ_S
1788787439.0646179,2036,2404,æ_S
1788787439.064785,2254,2311,æ_S
1788787439.065547,2212,2267,æ_S
1788787439.066282,2112,1911,æ_S
1788787439.068932,2085,2331,æ_S
1788787439.0731678,2138,2669,æ_S
1788787439.073419,1990,2037,æ_S
1788787439.073666,2024,1817,æ_S
1788787439.0782342,2006,2233,æ_S
1788787439.078732,2137,1930,æ_S
1788787439.08204,2264,2476,æ_S
1788787439.082324,2071,1928,æ_S
1788787439.083715,1870,2132,æ_S
1788787439.08531,1995,2573,æ_S
1788787439.0881228,2014,2041,æ_S
1788787439.089557,1924,1873,æ_S
1788787439.096429,1788,1888,æ_S
1788787439.097091,2010,2605,æ_S
1788787439.097864,2088,2254,æ_S
1788787439.0980291,2148,2097,æ_S
1788787439.100963,2121,2080,æ_S
1788787439.1073081,2173,2430,æ_S
1788787439.111944,2262,2149,æ_S
1788787439.1124868,2143,1818,æ_S
1788787439.113027,1864,1655,æ_S
1788787439.1136918,1962,2291,æ_S
1788787439.11406,2091,2283,æ_S
1788787439.116727,2110,2281,æ_S
1788787439.117599,2082,2106,æ_S
1788787439.118019,2030,2517,æ_S
1788787439.119394,2097,1996,æ_S
1788787439.1309462,2093,1898,æ_S
1788787439.131281,2015,1947,æ_S
1788787439.1336079,1968,2216,æ_S
1788787439.136229,2102,2139,æ_S
1788787439.140558,2226,2326,æ_S
1788787439.140946,2222,2172,æ_S
1788787439.141598,2155,2173,æ_S
1788787439.145016,2091,2704,æ_S
1788787439.145469,2004,1955,æ_S
1788787439.1455412,2060,1804,æ_S
1788787439.1456041,1863,2423,æ_S
1788787439.145665,1927,2205,æ_S
1788787439.145725,1933,1353,æ_S
1788787439.148337,2079,2229,æ_S
1788787439.1496809,2097,2179,æ_S
1788787439.15237,2186,2355,æ_S
1788787439.162142,2158,2016,æ_S
1788787439.162693,2033,1862,æ_S
1788787439.164842,1895,1618,æ_S
1788787439.167304,2056,2481,æ_S
1788787439.171547,2212,2358,æ_S
1788787439.171886,2172,2296,æ_S
1788787439.172477,2000,2133,æ_S
1788787439.172865,2069,2296,æ_S
1788787439.173478,2176,2209,æ_S
1788787439.176904,2047,1769,æ_S
1788787439.1771579,2037,1720,æ_S
1788787439.177273,1974,2309,æ_S
1788787439.1773992,1977,2436,æ_S
1788787439.180421,2033,2425,æ_S
1788787439.186107,2082,1892,æ_S
1788787439.187308,2116,1982,æ_S
1788787439.190828,2242,2547,æ_S
1788787439.1912022,2197,2011,æ_S
1788787439.191604,2077,1707,æ_S
1788787439.1943839,1910,1726,æ_S
1788787439.194509,1997,2553,æ_S
1788787439.200581,2063,2410,æ_S
1788787439.2007291,2211,2471,æ_S
1788787439.201333,2137,1961,æ_S
1788787439.201686,2085,2026,æ_S
1788787439.2044039,2004,2205,æ_S
1788787439.205853,1850,1738,æ_S
1788787439.207267,1883,1387,æ_S
1788787439.2099378,2028,2357,æ_S
1788787439.211312,2119,2297,æ_S
1788787439.21903,2116,2240,æ_S
1788787439.220261,2021,2011,æ_S
1788787439.222631,2006,2237,æ_S
1788787439.22302,2145,2468,æ_S
1788787439.226151,2135,2005,æ_S
1788787439.2282722,2014,1859,æ_S
1788787439.232886,2164,2159,æ_S
1788787439.23363,2178,2127,æ_S
1788787439.234025,2158,2267,æ_S
1788787439.234402,2036,1979,æ_S
1788787439.234776,1916,2315,æ_S
1788787439.2379048,2093,2602,æ_S
1788787439.2380018,2044,1783,æ_S
1788787439.239346,1945,1688,æ_S
1788787439.2472079,1842,1630,æ_S
1788787439.247466,2068,2495,æ_S
1788787439.248202,2321,2503,æ_S
1788787439.2512078,2249,2139,æ_S
1788787439.25136,1959,1721,æ_S
1788787439.251738,2059,2411,æ_S
1788787439.253912,2235,2046,æ_S
1788787439.25612,1944,1817,æ_S
1788787439.261355,1813,1759,æ_S
1788787439.2616372,2002,2286,æ_S
1788787439.2620292,2150,2132,æ_S
1788787439.264559,2120,2449,æ_S
1788787439.26592,1923,1917,æ_S
1788787439.267105,2047,2154,æ_S
1788787439.2697191,2260,2462,æ_S
1788787439.2710981,2075,1964,æ_S
1788787439.279843,1978,1603,æ_S
1788787439.280138,1947,2260,æ_S
1788787439.2804759,2036,2211,æ_S
1788787439.282305,2153,2226,æ_S
1788787439.2828171,2096,2113,æ_S
1788787439.285374,2268,2110,æ_S
1788787439.28765,2281,2661,æ_S
1788787439.28795,1984,2099,æ_S
1788787439.293042,1958,1576,æ_S
1788787439.29384,1939,1664,æ_S
1788787439.294254,2233,2474,æ_S
1788787439.296694,2181,2424,æ_S
1788787439.298041,1803,2144,æ_S
1788787439.299382,1691,1810,æ_S
1788787439.306653,2066,2304,æ_S
1788787439.308584,2160,2124,æ_S
1788787439.3107898,2151,1876,æ_S
1788787439.311351,1943,1570,æ_S
1788787439.312883,1923,2532,æ_S
1788787439.31585,1999,2306,æ_S
1788787439.320246,2122,2020,æ_S
1788787439.320736,2141,1886,æ_S
1788787439.321223,2156,2220,æ_S
1788787439.323746,2271,2480,æ_S
1788787439.325056,2142,1758,æ_S
1788787439.325129,1980,1628,æ_S
1788787439.325193,2049,2216,æ_S
1788787439.327923,2080,2268,æ_S
1788787439.3292851,2215,2313,æ_S
1788787439.338777,2398,1985,æ_S
1788787439.341504,2045,2145,æ_S
1788787439.344005,1838,2653,æ_S
1788787439.344924,2030,2057,æ_S
1788787439.351094,1950,1772,æ_S
1788787439.35396,1816,2025,æ_S
1788787439.354926,1962,1895,æ_S
1788787439.355056,2046,2085,æ_S
1788787439.355127,2092,2332,æ_S
1788787439.355189,2038,1948,æ_S
1788787439.355249,2216,2339,æ_S
1788787439.355308,2438,2046,æ_S
1788787439.355366,2176,1722,æ_S
1788787439.358069,1820,1564,æ_S
1788787439.364245,1947,2547,æ_S
1788787439.3656828,2067,2347,æ_S
1788787439.365946,2225,2575,æ_S
1788787439.366622,2258,2091,æ_S
1788787439.368583,2138,1763,æ_S
1788787439.3708239,2111,2371,æ_S
1788787439.373494,2012,2105,æ_S
1788787439.377804,1898,1636,æ_S
1788787439.378068,1919,1989,æ_S
1788787439.378407,2040,2193,æ_S
1788787439.3817768,2129,2323,æ_S
1788787439.382071,2063,2149,æ_S
1788787439.383418,2134,2154,æ_S
1788787439.386048,2241,2565,æ_S
1788787439.387412,2232,2192,æ_S
1788787439.3951712,2130,1754,æ_S
1788787439.396559,2004,1578,æ_S
1788787439.399158,2018,2448,æ_S
1788787439.3995562,2030,2225,æ_S
1788787439.39984,2108,2150,æ_S
1788787439.400179,2002,1914,æ_S
1788787439.40231,1976,2317,æ_S
1788787439.408722,2152,2048,æ_S
1788787439.409248,2117,1779,æ_S
1788787439.409573,1998,1608,æ_S
1788787439.4099898,2151,2533,æ_S
1788787439.415,2201,2192,æ_S
1788787439.415105,2103,2126,æ_S
1788787439.415176,2057,2019,æ_S
1788787439.421396,2009,2158,æ_S
1788787439.423439,2116,2277,æ_S
1788787439.425518,2025,1787,æ_S
1788787439.428481,1874,1541,æ_S
1788787439.428658,1967,2154,æ_S
1788787439.430561,2109,2378,æ_S
1788787439.435227,2187,2611,æ_S
1788787439.435377,2204,2228,æ_S
1788787439.4357178,2313,2296,æ_S
1788787439.435969,2313,2278,æ_S
1788787439.439208,2064,1561,æ_S
1788787439.439287,1788,1860,æ_S
1788787439.441919,1836,1696,æ_S
1788787439.443274,2029,2347,æ_S
1788787439.446441,2076,2359,æ_S
1788787439.452524,2081,2108,æ_S
1788787439.453763,2008,1905,æ_S
1788787439.455874,2086,2433,æ_S
1788787439.456426,2131,2265,æ_S
1788787439.458592,2093,1863,æ_S
1788787439.459392,2026,1544,æ_S
1788787439.459638,2120,2679,æ_S
1788787439.4615428,2155,2161,æ_S
1788787439.465816,2155,1981,æ_S
1788787439.466156,2110,1957,æ_S
1788787439.469866,2063,2057,æ_S
1788787439.46995,2092,2377,æ_S
1788787439.4713018,2032,1922,æ_S
1788787439.478775,1920,1604,æ_S
1788787439.480012,1926,2141,æ_S
1788787439.483286,2142,2303,æ_S
1788787439.48561,2153,2385,æ_S
1788787439.485881,2063,2103,æ_S
1788787439.488132,1992,2128,æ_S
1788787439.492739,2156,2559,æ_S
1788787439.493338,2125,1960,æ_S
1788787439.494209,2025,1745,æ_S
1788787439.496601,1939,1715,æ_S
1788787439.497469,2080,2409,æ_S
1788787439.4978628,2153,2468,æ_S
1788787439.497963,2232,2196,æ_S
1788787439.4993122,2166,2038,æ_S
1788787439.501937,2092,2220,æ_S
1788787439.503283,2123,2005,æ_S
1788787439.512089,2048,1815,æ_S
1788787439.512793,1864,1443,æ_S
1788787439.5157278,2008,2284,æ_S
1788787439.516265,2138,2314,æ_S
1788787439.518473,2085,2265,æ_S
1788787439.520988,1949,1916,æ_S
1788787439.521302,1952,2167,æ_S
1788787439.5295832,2151,2446,æ_S
1788787439.529672,2116,1969,æ_S
1788787439.529734,1988,1703,æ_S
1788787439.5297952,1963,2177,æ_S
1788787439.529854,2046,2210,æ_S
1788787439.5299141,2138,2304,æ_S
1788787439.531151,2118,2048,æ_S
1788787439.537429,2074,2121,æ_S
1788787439.539099,2176,2545,æ_S
1788787439.540064,2181,1890,æ_S
1788787439.543319,2060,1647,æ_S
1788787439.543998,1921,1813,æ_S
1788787439.546259,2109,2451,æ_S
1788787439.5470972,2135,2356,æ_S
1788787439.5492249,2103,2159,æ_S
1788787439.554473,1989,1819,æ_S
1788787439.5577059,2052,2341,æ_S
1788787439.558224,2078,2092,æ_S
1788787439.5583308,2061,1813,æ_S
1788787439.558499,1951,1482,æ_S
1788787439.560043,2034,2325,æ_S
1788787439.562283,2134,2254,æ_S
1788787439.563814,2161,2162,æ_S
1788787439.565344,2084,1840,æ_S
1788787439.5723531,2073,2093,æ_S
1788787439.573251,2200,2264,æ_S
1788787439.57433,2090,1853,æ_S
1788787439.578215,1953,1589,æ_S
1788787439.579781,1903,2145,æ_S
1788787439.581802,2050,2168,æ_S
1788787439.5820858,2125,2290,æ_S
1788787439.5869272,2101,2016,æ_S
1788787439.5870929,2041,2063,æ_S
1788787439.58741,2186,2451,æ_S
1788787439.5875971,2152,1885,æ_S
1788787439.590864,2018,1722,æ_S
1788787439.591124,1931,1761,æ_S
1788787439.594099,2054,2383,æ_S
1788787439.59843,2098,2304,æ_S
1788787439.601699,2118,2190,æ_S
1788787439.602397,2025,1824,æ_S
1788787439.604478,2098,2241,æ_S
1788787439.607162,2138,2049,æ_S
1788787439.608117,2046,1785,æ_S
1788787439.610071,1883,1451,æ_S
1788787439.610294,1987,2329,æ_S
1788787439.614796,2104,2253,æ_S
1788787439.6151218,2164,2113,æ_S
1788787439.615542,2085,1821,æ_S
1788787439.618756,2072,2022,æ_S
1788787439.618908,2177,2269,æ_S
1788787439.621561,2133,1739,æ_S
1788787439.622918,2002,1561,æ_S
1788787439.6255732,1965,2099,æ_S
1788787439.6321878,2049,2268,æ_S
1788787439.632902,2060,2339,æ_S
1788787439.633557,2099,1983,æ_S
1788787439.636202,2062,2007,æ_S
1788787439.6368482,2125,2372,æ_S
1788787439.640146,2068,1865,æ_S
1788787439.641838,1990,1602,æ_S
1788787439.646407,1891,1777,æ_S
1788787439.647042,2063,2393,æ_S
1788787439.64741,2115,2304,æ_S
1788787439.647984,2108,2067,æ_S
1788787439.651056,2043,1819,æ_S
1788787439.651422,2112,2219,æ_S
1788787439.654132,2143,1995,æ_S
1788787439.6603122,2048,1758,æ_S
1788787439.661152,1898,1474,æ_S
1788787439.6623628,2035,2338,æ_S
1788787439.664308,2131,2209,æ_S
1788787439.664702,2160,2160,æ_S
1788787439.667538,2098,1869,æ_S
1788787439.669433,2076,2021,æ_S
1788787439.669745,2161,2181,æ_S
1788787439.67463,2064,1815,æ_S
1788787439.675027,1971,1570,æ_S
1788787439.675391,1984,2053,æ_S
1788787439.6789372,2094,2131,æ_S
1788787439.679033,2135,2217,æ_S
1788787439.681772,2096,1915,æ_S
1788787439.683159,2067,1862,æ_S
1788787439.692286,2192,2246,æ_S
1788787439.694905,2117,1791,æ_S
1788787439.695297,2004,1711,æ_S
1788787439.695596,1890,1730,æ_S
1788787439.6978219,2026,2329,æ_S
1788787439.6985931,2116,2304,æ_S
1788787439.7045372,2137,2068,æ_S
1788787439.7053509,2064,1804,æ_S
1788787439.705971,2121,2233,æ_S
1788787439.708858,2168,1947,æ_S
1788787439.70944,2045,1733,æ_S
1788787439.7095182,1924,1638,æ_S
1788787439.709582,2036,2327,æ_S
1788787439.710939,2082,2225,æ_S
1788787439.718038,2151,2181,æ_S
1788787439.718826,2090,1866,æ_S
1788787439.719646,2091,2083,æ_S
1788787439.722069,2226,2316,æ_S
1788787439.7224278,2066,1888,æ_S
1788787439.724755,1932,1654,æ_S
1788787439.724923,1954,2214,æ_S
1788787439.727463,2066,2218,æ_S
1788787439.731901,2141,2262,æ_S
1788787439.7320802,2081,2017,æ_S
1788787439.7355678,2047,2038,æ_S
1788787439.7356448,2109,2443,æ_S
1788787439.7369971,2086,1899,æ_S
1788787439.739699,2046,1715,æ_S
1788787439.741054,1952,1800,æ_S
1788787439.748381,2080,2358,æ_S
1788787439.749103,2135,2310,æ_S
1788787439.7509031,2151,2079,æ_S
1788787439.752892,2063,1931,æ_S
1788787439.753267,2112,2219,æ_S
1788787439.755403,2143,2000,æ_S
1788787439.756277,2065,1757,æ_S
1788787439.758898,1935,1580,æ_S
1788787439.763604,2024,2378,æ_S
1788787439.766937,2099,2288,æ_S
1788787439.767371,2124,2190,æ_S
1788787439.767444,2078,1941,æ_S
1788787439.767508,2049,2129,æ_S
1788787439.768848,2110,2269,æ_S
1788787439.776154,2061,1909,æ_S
1788787439.779286,1948,1685,æ_S
1788787439.779765,1949,2193,æ_S
1788787439.782657,2039,2159,æ_S
1788787439.784517,2088,2285,æ_S
1788787439.784812,2118,2005,æ_S
1788787439.7895098,2091,2073,æ_S
1788787439.7904088,2154,2453,æ_S
1788787439.793727,2099,1959,æ_S
1788787439.794027,1984,1769,æ_S
1788787439.7941701,1872,1825,æ_S
1788787439.7943318,2049,2342,æ_S
1788787439.7957902,2058,2309,æ_S
1788787439.797287,2058,2122,æ_S
1788787439.798752,2015,1884,æ_S
1788787439.808186,2072,2281,æ_S
1788787439.810386,2117,2065,æ_S
1788787439.810695,2021,1801,æ_S
1788787439.8110778,1871,1619,æ_S
1788787439.813119,1972,2350,æ_S
1788787439.819654,2069,2235,æ_S
1788787439.8200471,2087,2122,æ_S
1788787439.820417,2034,1932,æ_S
1788787439.82074,2048,2112,æ_S
1788787439.821127,2189,2253,æ_S
1788787439.821516,2034,1857,æ_S
1788787439.824812,1911,1711,æ_S
1788787439.8248918,1912,2196,æ_S
1788787439.8275871,2052,2205,æ_S
1788787439.833899,2127,2258,æ_S
1788787439.834765,2035,2027,æ_S
1788787439.839641,2018,2029,æ_S
1788787439.841432,2157,2454,æ_S
1788787439.846206,2111,1898,æ_S
1788787439.846813,1983,1786,æ_S
1788787439.8473542,1871,1878,æ_S
1788787439.847554,2075,2376,æ_S
1788787439.847927,2114,2321,æ_S
1788787439.850899,2089,2115,æ_S
1788787439.8513641,2032,1895,æ_S
1788787439.8514419,2070,2256,æ_S
1788787439.852792,2115,2019,æ_S
1788787439.855371,2044,1840,æ_S
1788787439.8567958,1902,1624,æ_S
1788787439.859508,1969,2345,æ_S
1788787439.865129,2028,2260,æ_S
1788787439.865997,2136,2198,æ_S
1788787439.8667352,2110,1958,æ_S
1788787439.8680792,2067,2151,æ_S
1788787439.87092,2147,2289,æ_S
1788787439.874044,2042,1903,æ_S
1788787439.87434,1884,1759,æ_S
1788787439.880325,1926,2252,æ_S
1788787439.880599,2064,2176,æ_S
1788787439.880904,2148,2268,æ_S
1788787439.8813639,2134,2052,æ_S
1788787439.884446,2043,2080,æ_S
1788787439.885813,2147,2450,æ_S
1788787439.887197,2101,1983,æ_S
1788787439.89344,2032,1803,æ_S
1788787439.8953059,1919,1896,æ_S
1788787439.898008,2065,2393,æ_S
1788787439.9003441,2113,2332,æ_S
1788787439.9011562,2110,2120,æ_S
1788787439.9029691,2028,1870,æ_S
1788787439.9072561,2108,2290,æ_S
1788787439.907733,2146,2056,æ_S
1788787439.908044,2054,1854,æ_S
1788787439.908579,1934,1628,æ_S
1788787439.909023,2012,2362,æ_S
1788787439.912481,2078,2236,æ_S
1788787439.9138439,2144,2196,æ_S
1788787439.915188,2058,1927,æ_S
1788787439.917839,2063,2133,æ_S
1788787439.919196,2162,2283,æ_S
1788787439.9260411,2086,1932,æ_S
1788787439.927705,1951,1724,æ_S
1788787439.928386,1930,2242,æ_S
1788787439.928689,2029,2198,æ_S
1788787439.929298,2159,2262,æ_S
1788787439.931417,2156,2044,æ_S
1788787439.9337258,2097,2016,æ_S
1788787439.936379,2162,2534,æ_S
1788787439.941174,2102,1939,æ_S
1788787439.9415329,2012,1827,æ_S
1788787439.942049,1897,1873,æ_S
1788787439.94508,2072,2408,æ_S
1788787439.9454122,2107,2323,æ_S
1788787439.946761,2113,2090,æ_S
1788787439.953986,2048,1949,æ_S
1788787439.955625,2081,2299,æ_S
1788787439.95773,2126,2013,æ_S
1788787439.958136,2056,1845,æ_S
1788787439.960512,1923,1654,æ_S
1788787439.9608011,2032,2354,æ_S
1788787439.963131,2118,2241,æ_S
1788787439.963635,2115,2223,æ_S
1788787439.970415,2086,1986,æ_S
1788787439.971509,2079,2117,æ_S
1788787439.971581,2179,2312,æ_S
1788787439.971646,2090,1951,æ_S
1788787439.973,1955,1718,æ_S
1788787439.975654,1920,2222,æ_S
1788787439.9770691,2044,2209,æ_S
1788787439.9845161,2148,2191,æ_S
1788787439.985875,2109,2059,æ_S
1788787439.988385,2065,2111,æ_S
1788787439.990705,2166,2343,æ_S
1788787439.99102,2110,1946,æ_S
1788787439.993563,2013,1826,æ_S
1788787440.001549,1908,1912,æ_S
1788787440.001621,2078,2405,æ_S
1788787440.001674,2131,2265,æ_S
1788787440.001724,2112,2118,æ_S
1788787440.001773,2043,1915,æ_S
1788787440.001821,2090,2324,æ_S
1788787440.004341,2121,2048,æ_S
1788787440.0117471,2054,1836,æ_S
1788787440.01504,1930,1628,æ_S
1788787440.01722,2044,2391,æ_S
1788787440.023965,2107,2198,æ_S
1788787440.025013,2142,2177,æ_S
1788787440.028291,2064,1958,æ_S
1788787440.028787,2056,2222,æ_S
1788787440.028882,2144,2310,æ_S
1788787440.028951,2059,1877,æ_S
1788787440.0290189,1965,1728,æ_S
1788787440.029082,1977,2201,æ_S
1788787440.02915,2087,2241,æ_S
1788787440.029244,2144,2200,æ_S
1788787440.030687,2106,2043,æ_S
1788787440.033483,2075,2070,æ_S
1788787440.034723,2163,2415,æ_S
1788787440.044302,2095,1960,æ_S
1788787440.0453289,2033,1860,æ_S
1788787440.048008,1901,1924,æ_S
1788787440.0485692,2034,2388,æ_S
1788787440.050326,2073,2298,æ_S
1788787440.0535119,2136,2127,æ_S
1788787440.058212,2071,1909,æ_S
1788787440.059053,2105,2325,æ_S
1788787440.061934,2158,2038,æ_S
1788787440.062352,2052,1839,æ_S
1788787440.0624352,1910,1603,æ_S
1788787440.06251,2007,2384,æ_S
1788787440.062573,2086,2218,æ_S
1788787440.062633,2144,2163,æ_S
1788787440.072651,2087,1967,æ_S
1788787440.0747762,2081,2137,æ_S
1788787440.075062,2160,2255,æ_S
1788787440.076965,2087,1984,æ_S
1788787440.078331,1972,1755,æ_S
1788787440.0801861,1945,2214,æ_S
1788787440.084527,2062,2172,æ_S
1788787440.0846562,2138,2257,æ_S
1788787440.087511,2116,2055,æ_S
1788787440.088306,2056,2089,æ_S
1788787440.088386,2160,2449,æ_S
1788787440.088453,2115,1945,æ_S
1788787440.088516,2018,1809,æ_S
1788787440.091232,1910,1881,æ_S
1788787440.0925891,2067,2366,æ_S
1788787440.095305,2118,2331,æ_S
1788787440.0968692,2129,2083,æ_S
1788787440.110614,2058,1894,æ_S
1788787440.110823,2107,2304,æ_S
1788787440.111077,2139,2040,æ_S
1788787440.111201,2039,1847,æ_S
1788787440.1154711,1924,1668,æ_S
1788787440.115711,2009,2385,æ_S
1788787440.115869,2087,2197,æ_S
1788787440.1161458,2150,2166,æ_S
1788787440.116441,2089,1986,æ_S
1788787440.116692,2098,2137,æ_S
1788787440.119658,2180,2279,æ_S
1788787440.121021,2091,1915,æ_S
1788787440.123638,1980,1776,æ_S
1788787440.167892,1956,2234,æ_S
1788787440.171108,2074,2189,æ_S
1788787440.171227,2148,2222,æ_S
1788787440.1713018,2133,2055,æ_S
1788787440.171368,2062,2085,æ_S
1788787440.171437,2172,2455,æ_S
1788787440.17152,2121,1939,æ_S
1788787440.171633,2038,1828,æ_S
1788787440.171774,1928,1880,æ_S
1788787440.171842,2083,2423,æ_S
1788787440.171904,2143,2297,æ_S
1788787440.171965,2160,2114,æ_S
1788787440.1720252,2060,1892,æ_S
1788787440.172085,2108,2320,æ_S
1788787440.1721542,2158,2084,æ_S
1788787440.172252,2066,1834,æ_S
1788787440.172319,1940,1640,æ_S
1788787440.1723719,2049,2357,æ_S
1788787440.1724591,2128,2193,æ_S
1788787440.1725729,2169,2178,æ_S
1788787440.172698,2102,1974,æ_S
1788787440.172817,2098,2171,æ_S
1788787440.172881,2209,2287,æ_S
1788787440.172993,2112,1958,æ_S
1788787440.1730628,2009,1760,æ_S
1788787440.1787891,1959,2196,æ_S
1788787440.179391,2092,2208,æ_S
1788787440.180269,2167,2276,æ_S
1788787440.183025,2144,2039,æ_S
1788787440.183288,2074,2045,æ_S
1788787440.1860979,2161,2447,æ_S
1788787440.187702,2109,1977,æ_S
1788787440.192648,1998,1824,æ_S
1788787440.193145,1896,1905,æ_S
1788787440.195691,2050,2341,æ_S
1788787440.196297,2113,2313,æ_S
1788787440.1978502,2122,2115,æ_S
1788787440.199177,2033,1935,æ_S
1788787440.2005792,2101,2267,æ_S
1788787440.2030988,2149,2062,æ_S
1788787440.211401,2058,1854,æ_S
1788787440.212045,1941,1650,æ_S
1788787440.2139242,2038,2390,æ_S
1788787440.214087,2080,2213,æ_S
1788787440.214249,2165,2205,æ_S
1788787440.218476,2083,1964,æ_S
1788787440.218708,2051,2180,æ_S
1788787440.2188978,2127,2251,æ_S
1788787440.2237701,2069,1947,æ_S
1788787440.224351,1982,1782,æ_S
1788787440.22494,1947,2246,æ_S
1788787440.227964,2046,2161,æ_S
1788787440.229332,2122,2240,æ_S
1788787440.230983,2122,2044,æ_S
1788787440.236419,2078,2095,æ_S
1788787440.2378728,2155,2463,æ_S
1788787440.2386959,2110,1968,æ_S
1788787440.240872,2021,1790,æ_S
1788787440.2411032,1911,1900,æ_S
1788787440.245486,2058,2357,æ_S
1788787440.2497332,2105,2301,æ_S
1788787440.250252,2127,2114,æ_S
1788787440.250701,2061,1892,æ_S
1788787440.251133,2097,2283,æ_S
1788787440.2543201,2146,2069,æ_S
1788787440.254647,2052,1871,æ_S
1788787440.2573519,1903,1652,æ_S
1788787440.2587242,2013,2372,æ_S
1788787440.261552,2080,2198,æ_S
1788787440.2675588,2131,2196,æ_S
1788787440.2688131,2086,1963,æ_S
1788787440.27108,2073,2198,æ_S
1788787440.2712488,2171,2273,æ_S
1788787440.273576,2115,1918,æ_S
1788787440.2762198,1976,1783,æ_S
1788787440.280373,1947,2234,æ_S
1788787440.280711,2074,2189,æ_S
1788787440.281121,2132,2218,æ_S
1788787440.281461,2106,2072,æ_S
1788787440.284201,2057,2067,æ_S
1788787440.284941,2154,2452,æ_S
1788787440.286361,2119,1962,æ_S
1788787440.294484,2019,1848,æ_S
1788787440.295756,1884,1884,æ_S
1788787440.297599,2051,2391,æ_S
1788787440.297917,2110,2287,æ_S
1788787440.3003619,2152,2116,æ_S
1788787440.301319,2066,1931,æ_S
1788787440.3035111,2096,2295,æ_S
1788787440.308319,2158,2042,æ_S
1788787440.309084,2057,1840,æ_S
1788787440.3118951,1928,1644,æ_S
1788787440.312638,2007,2366,æ_S
1788787440.312947,2066,2203,æ_S
1788787440.313013,2128,2171,æ_S
1788787440.314383,2076,2009,æ_S
1788787440.317067,2041,2171,æ_S
1788787440.318492,2151,2269,æ_S
1788787440.32691,2092,1935,æ_S
1788787440.328392,1997,1761,æ_S
1788787440.330575,1964,2233,æ_S
1788787440.332327,2075,2184,æ_S
1788787440.3336608,2154,2248,æ_S
1788787440.335743,2145,2035,æ_S
1788787440.3360682,2080,2096,æ_S
1788787440.340224,2154,2456,æ_S
1788787440.340519,2096,1939,æ_S
1788787440.340904,2016,1826,æ_S
1788787440.3412852,1898,1892,æ_S
1788787440.345024,2068,2370,æ_S
1788787440.345113,2128,2284,æ_S
1788787440.346454,2137,2115,æ_S
1788787440.353194,2051,1917,æ_S
1788787440.354943,2094,2271,æ_S
1788787440.3569212,2146,2055,æ_S
1788787440.3574002,2063,1881,æ_S
1788787440.3599749,1913,1678,æ_S
1788787440.36198,2002,2370,æ_S
1788787440.366053,2088,2228,æ_S
1788787440.366515,2141,2205,æ_S
1788787440.366997,2098,1982,æ_S
1788787440.367079,2094,2169,æ_S
1788787440.370177,2177,2302,æ_S
1788787440.3703392,2095,1914,æ_S
1788787440.3729868,1974,1774,æ_S
1788787440.374331,1932,2216,æ_S
1788787440.377333,2080,2182,æ_S
1788787440.383137,2144,2312,æ_S
1788787440.3839018,2116,2074,æ_S
1788787440.384585,2030,2053,æ_S
1788787440.3875468,2150,2421,æ_S
1788787440.3880801,2126,1998,æ_S
1788787440.390972,2023,1816,æ_S
1788787440.397693,1920,1881,æ_S
1788787440.398245,2022,2462,æ_S
1788787440.398678,2114,2414,æ_S
1788787440.3989491,2116,1897,æ_S
1788787440.399167,2030,1726,æ_S
1788787440.402175,2088,2372,æ_S
1788787440.402482,2146,2083,æ_S
1788787440.4051352,2006,1869,æ_S
1788787440.406389,1835,1687,æ_S
1788787440.413646,2018,2405,æ_S
1788787440.415031,2094,2136,æ_S
1788787440.4170501,2174,2269,æ_S
1788787440.417431,2113,2138,æ_S
1788787440.419754,2100,2256,æ_S
1788787440.422336,2128,2503,æ_S
1788787440.42638,2054,1947,æ_S
1788787440.426698,2005,1472,æ_S
1788787440.4271731,1922,1906,æ_S
1788787440.427531,2045,2188,æ_S
1788787440.430198,2106,2299,æ_S
1788787440.4311512,2107,2115,æ_S
1788787440.432514,2042,2061,æ_S
1788787440.435135,2120,2350,æ_S
1788787440.436474,2126,2020,æ_S
1788787440.439125,2085,1914,æ_S
1788787440.445406,2045,2063,æ_S
1788787440.446763,2074,2468,æ_S
1788787440.449433,2054,2352,æ_S
1788787440.449781,2012,2186,æ_S
1788787440.450218,1970,1712,æ_S
1788787440.452301,2105,2006,æ_S
1788787440.454575,2099,2298,æ_S
1788787440.458734,1967,2336,æ_S
1788787440.4591172,1969,1433,æ_S
1788787440.459445,2087,1919,æ_S
1788787440.462764,2067,2080,æ_S
1788787440.463221,2181,2309,æ_S
1788787440.464586,2155,1988,æ_S
1788787440.4712021,2045,2201,æ_S
1788787440.472691,2098,2297,æ_S
1788787440.475313,2030,2013,æ_S
1788787440.477817,1921,1566,æ_S
1788787440.478642,1874,2184,æ_S
1788787440.480504,1974,2624,æ_S
1788787440.480723,2147,2402,æ_S
1788787440.484979,2126,2314,æ_S
1788787440.485255,2214,1575,æ_S
1788787440.4856021,2266,1893,æ_S
1788787440.4891899,2023,2147,æ_S
1788787440.489275,1917,1960,æ_S
1788787440.49074,1859,1727,æ_S
1788787440.4923038,2065,2264,æ_S
1788787440.4950132,2076,2429,æ_S
1788787440.496395,2080,1988,æ_S
1788787440.503694,2003,1888,æ_S
1788787440.5064309,2144,2399,æ_S
1788787440.506857,2221,2187,æ_S
1788787440.5093372,2124,1875,æ_S
1788787440.5109031,1952,1792,æ_S
1788787440.511235,1980,2691,æ_S
1788787440.513267,2027,2153,æ_S
1788787440.5176709,2098,1926,æ_S
1788787440.517967,1991,1994,æ_S
1788787440.5184472,1932,2157,æ_S
1788787440.5187578,2131,2437,æ_S
1788787440.522112,2044,2100,æ_S
1788787440.522439,1945,1999,æ_S
1788787440.5252411,2021,2160,æ_S
1788787440.532056,2128,2051,æ_S
1788787440.5351129,2262,2493,æ_S
1788787440.535533,2239,2033,æ_S
1788787440.5378602,1979,2159,æ_S
1788787440.538712,2161,2805,æ_S
1788787440.5405471,2147,1877,æ_S
1788787440.5444238,2002,1698,æ_S
1788787440.54481,1927,1873,æ_S
1788787440.545631,2025,2634,æ_S
1788787440.5486422,2115,2341,æ_S
1788787440.549119,2108,2119,æ_S
1788787440.549191,2116,2094,æ_S
1788787440.550538,2123,2166,æ_S
1788787440.5531719,2115,2213,æ_S
1788787440.554523,2102,2069,æ_S
1788787440.5625181,2061,1687,æ_S
1788787440.563203,2229,2250,æ_S
1788787440.563426,2191,2238,æ_S
1788787440.5666602,1899,2147,æ_S
1788787440.567084,1852,2031,æ_S
1788787440.5747998,2041,2311,æ_S
1788787440.5753841,2289,2458,æ_S
1788787440.5788958,2067,1858,æ_S
1788787440.579026,1641,1629,æ_S
1788787440.579093,1855,2503,æ_S
1788787440.5791569,2137,2330,æ_S
1788787440.579218,2154,2072,æ_S
1788787440.5805938,2073,1901,æ_S
1788787440.586518,2062,2043,æ_S
1788787440.5879822,2270,2913,æ_S
1788787440.591188,2292,2785,æ_S
1788787440.593812,2051,1213,æ_S
1788787440.594595,1932,964,æ_S
1788787440.594814,1941,2719,æ_S
1788787440.5965881,2042,2502,æ_S
1788787440.600748,2131,2331,æ_S
1788787440.6014662,2104,1973,æ_S
1788787440.601794,2127,2340,æ_S
1788787440.605264,2254,2407,æ_S
1788787440.605346,2069,2066,æ_S
1788787440.606698,1906,1653,æ_S
1788787440.608185,2083,2602,æ_S
1788787440.610749,2347,2087,æ_S
1788787440.6122081,2421,2378,æ_S
1788787440.6172328,2029,1916,æ_S
1788787440.619721,1818,2094,æ_S
1788787440.622218,2156,2813,æ_S
1788787440.622704,2333,1890,æ_S
1788787440.622964,2118,1221,æ_S
1788787440.625867,1797,2486,æ_S
1788787440.627777,1961,2694,æ_S
1788787440.6319098,2051,2335,æ_S
1788787440.632402,2151,2324,æ_S
1788787440.632691,2112,2100,æ_S
1788787440.635896,2150,2070,æ_S
1788787440.637262,2142,2133,æ_S
1788787440.638462,2087,2158,æ_S
1788787440.644626,1957,1833,æ_S
1788787440.645401,1971,2003,æ_S
1788787440.645966,1933,2499,æ_S
1788787440.64884,2144,2323,æ_S
1788787440.650926,2145,1986,æ_S
1788787440.653179,2121,2507,æ_S
1788787440.657463,2081,2205,æ_S
1788787440.657908,1972,2050,æ_S
1788787440.6585212,1985,1690,æ_S
1788787440.658862,2076,2492,æ_S
1788787440.661375,2132,2038,æ_S
1788787440.66275,2671,2291,æ_S
1788787440.664182,2347,2127,æ_S
1788787440.66685,1821,2165,æ_S
1788787440.668221,1945,2445,æ_S
1788787440.674562,2034,2278,æ_S
1788787440.675328,1990,1971,æ_S
1788787440.678433,1905,1851,æ_S
1788787440.6809978,1972,2370,æ_S
1788787440.681414,2054,2830,æ_S
1788787440.683907,2101,2365,æ_S
1788787440.684385,2042,1555,æ_S
1788787440.6885738,2191,2324,æ_S
1788787440.6889548,2235,2327,æ_S
1788787440.689312,2136,2019,æ_S
1788787440.692495,1890,1894,æ_S
1788787440.692959,2083,2638,æ_S
1788787440.6943202,2205,2299,æ_S
1788787440.702728,2176,2155,æ_S
1788787440.706849,2105,2008,æ_S
1788787440.708694,2274,2570,æ_S
1788787440.7118258,2358,2569,æ_S
1788787440.715944,2008,1762,æ_S
1788787440.7161112,1780,1588,æ_S
1788787440.716473,1824,2674,æ_S
1788787440.71695,1969,1942,æ_S
1788787440.7172449,2083,2201,æ_S
1788787440.720075,2072,2240,æ_S
1788787440.720997,2033,2439,æ_S
1788787440.7210681,2157,2688,æ_S
1788787440.72113,2139,2085,æ_S
1788787440.72248,2102,1513,æ_S
1788787440.725121,2041,2215,æ_S
1788787440.726531,2127,2813,æ_S
1788787440.7341309,2079,2664,æ_S
1788787440.735422,2280,2023,æ_S
1788787440.736076,2166,1742,æ_S
1788787440.7384121,2129,2898,æ_S
1788787440.743107,2055,2418,æ_S
1788787440.747412,2084,1621,æ_S
1788787440.748019,1974,2018,æ_S
1788787440.748304,2100,3009,æ_S
1788787440.748647,2334,2398,æ_S
1788787440.749088,2333,1551,æ_S
1788787440.7494888,2050,1765,æ_S
1788787440.75244,1891,2618,æ_S
1788787440.752824,2010,2476,æ_S
1788787440.755305,1957,2156,æ_S
1788787440.76339,1872,1340,æ_S
1788787440.764858,1958,2210,æ_S
1788787440.765496,2006,2569,æ_S
1788787440.767728,2091,2393,æ_S
1788787440.772613,2054,2214,æ_S
1788787440.773039,2086,2447,æ_S
1788787440.77739,2312,2621,æ_S
1788787440.7778392,2108,1967,æ_S
1788787440.7780118,1991,1718,æ_S
1788787440.778204,2081,2490,æ_S
1788787440.778532,2126,2058,æ_S
1788787440.77879,2088,2222,æ_S
1788787440.782057,2159,2374,æ_S
1788787440.7821262,2058,2475,æ_S
1788787440.785461,2058,2881,æ_S
1788787440.786846,2058,2627,æ_S
1788787440.7881851,2086,709,æ_S
1788787440.796275,1995,1223,æ_S
1788787440.798122,2252,3015,æ_S
1788787440.799982,2175,2173,æ_S
1788787440.800323,1913,2108,æ_S
1788787440.8007271,2040,1965,æ_S
1788787440.8025951,2070,2469,æ_S
1788787440.803885,2090,2301,æ_S
1788787440.805593,2002,1869,æ_S
1788787440.810472,1806,1800,æ_S
1788787440.811075,1925,2590,æ_S
1788787440.8112152,2033,2388,æ_S
1788787440.814782,2118,2425,æ_S
1788787440.814899,2112,2169,æ_S
1788787440.8165472,2158,2549,æ_S
1788787440.823992,2332,2589,æ_S
1788787440.826702,2203,1805,æ_S
1788787440.8296618,1976,1747,æ_S
1788787440.831729,1903,2134,æ_S
1788787440.835999,2003,2475,æ_S
1788787440.83664,2084,2396,æ_S
1788787440.836877,2066,2119,æ_S
1788787440.8371599,2050,2101,æ_S
1788787440.837379,2166,2696,æ_S
1788787440.837854,2197,2613,æ_S
1788787440.838345,2098,1441,æ_S
1788787440.842077,1946,1092,æ_S
1788787440.842409,2148,2643,æ_S
1788787440.8450618,2182,2574,æ_S
1788787440.846433,2065,2302,æ_S
1788787440.8489668,1965,1796,æ_S
1788787440.857449,2077,2445,æ_S
1788787440.862689,2159,2319,æ_S
1788787440.8632782,1965,1939,æ_S
1788787440.865094,1840,1540,æ_S
1788787440.8652952,1923,2431,æ_S
1788787440.869623,2107,2699,æ_S
1788787440.869905,2131,2893,æ_S
1788787440.8703659,2037,1189,æ_S
1788787440.8707368,2278,2116,æ_S
1788787440.8711019,2341,2666,æ_S
1788787440.871268,2080,1792,æ_S
1788787440.874965,1820,1617,æ_S
1788787440.875057,1836,1992,æ_S
1788787440.876503,2070,2230,æ_S
1788787440.8829708,2054,2448,æ_S
1788787440.883768,2116,2097,æ_S
1788787440.884657,1954,2320,æ_S
1788787440.885368,2112,2617,æ_S
1788787440.887977,2047,2038,æ_S
1788787440.891107,2019,2092,æ_S
1788787440.8931699,2005,1865,æ_S
1788787440.897581,2182,2298,æ_S
1788787440.898417,2064,2206,æ_S
1788787440.898813,2081,2337,æ_S
1788787440.89922,2047,2073,æ_S
1788787440.902446,2053,2573,æ_S
1788787440.902855,2103,2248,æ_S
1788787440.904259,2044,1739,æ_S
1788787440.906959,1962,984,æ_S
1788787440.908399,2005,2479,æ_S
1788787440.917082,2120,2828,æ_S
1788787440.9185228,2150,2211,æ_S
1788787440.921194,2055,1571,æ_S
1788787440.92186,2015,2097,æ_S
1788787440.924101,2126,2550,æ_S
1788787440.924279,2047,2117,æ_S
1788787440.924576,1956,1732,æ_S
1788787440.931113,1937,2281,æ_S
1788787440.93172,2062,2383,æ_S
1788787440.932097,2245,2408,æ_S
1788787440.932576,2268,2134,æ_S
1788787440.935401,2066,2023,æ_S
1788787440.936383,2073,2659,æ_S
1788787440.9364638,2201,2516,æ_S
1788787440.939214,2133,1335,æ_S
1788787440.945809,1791,1136,æ_S
1788787440.947466,1998,2569,æ_S
1788787440.948728,2103,2553,æ_S
1788787440.95103,2043,2069,æ_S
1788787440.951454,1937,1849,æ_S
1788787440.953656,1988,2398,æ_S
1788787440.954592,2112,2295,æ_S
1788787440.9566562,2041,1799,æ_S
1788787440.961302,1917,1494,æ_S
1788787440.961772,2050,2465,æ_S
1788787440.962263,2078,2406,æ_S
1788787440.962476,2173,2345,æ_S
1788787440.965726,2095,2101,æ_S
1788787440.967108,2143,2274,æ_S
1788787440.968467,2458,2314,æ_S
1788787440.971174,2176,1854,æ_S
1788787440.972578,1723,1575,æ_S
1788787440.9787111,1794,2085,æ_S
1788787440.980176,1988,2412,æ_S
1788787440.9816608,2074,2589,æ_S
1788787440.984631,2045,2423,æ_S
1788787440.984994,1968,1722,æ_S
1788787440.985373,2082,2028,æ_S
1788787440.988083,2087,2150,æ_S
1788787440.988408,2209,2161,æ_S
1788787440.9903622,2068,1916,æ_S
1788787440.995283,1957,2407,æ_S
1788787440.99602,2048,1928,æ_S
1788787440.996843,2125,2114,æ_S
1788787441.000305,2093,2126,æ_S
1788787441.000385,2121,2423,æ_S
1788787441.003003,2114,2313,æ_S
1788787441.009532,1999,1974,æ_S
1788787441.010431,1958,1581,æ_S
1788787441.010565,2072,2418,æ_S
1788787441.011803,2178,2291,æ_S
1788787441.0139148,2258,2218,æ_S
1788787441.0143218,2216,1958,æ_S
1788787441.01848,1980,2041,æ_S
1788787441.018781,2020,2456,æ_S
1788787441.023673,2025,2083,æ_S
1788787441.0240371,2021,1790,æ_S
1788787441.02431,1982,1503,æ_S
1788787441.027623,2025,2071,æ_S
1788787441.0289931,2147,2537,æ_S
1788787441.030358,2209,2215,æ_S
1788787441.0330088,2129,2169,æ_S
1788787441.034436,2182,2515,æ_S
1788787441.0413811,2098,2031,æ_S
1788787441.0417438,1998,1789,æ_S
1788787441.044012,1898,1557,æ_S
1788787441.046867,2027,2215,æ_S
1788787441.0474749,2120,2319,æ_S
1788787441.049885,2163,2174,æ_S
1788787441.052737,2302,1877,æ_S
1788787441.058005,2309,2367,æ_S
1788787441.059068,2084,2191,æ_S
1788787441.060022,1865,1935,æ_S
1788787441.0605319,1871,1375,æ_S
1788787441.064085,2004,2190,æ_S
1788787441.064482,2078,2439,æ_S
1788787441.0645492,2094,2594,æ_S
1788787441.064629,2132,1871,æ_S
1788787441.065999,2100,2098,æ_S
1788787441.073047,2102,2417,æ_S
1788787441.0732381,2190,2133,æ_S
1788787441.074025,2272,1252,æ_S
1788787441.075239,2071,1893,æ_S
1788787441.078217,1950,2299,æ_S
1788787441.080449,1916,2489,æ_S
1788787441.081422,1953,2067,æ_S
1788787441.083143,1975,1909,æ_S
1788787441.087587,2072,2455,æ_S
1788787441.0880089,2054,2084,æ_S
1788787441.088394,2038,1696,æ_S
1788787441.0918982,1949,1477,æ_S
1788787441.092049,2075,2515,æ_S
1788787441.0947661,2147,2458,æ_S
1788787441.096122,2180,2304,æ_S
1788787441.103411,2119,2049,æ_S
1788787441.104908,2141,2201,æ_S
1788787441.108275,2139,2133,æ_S
1788787441.1088982,1989,1805,æ_S
1788787441.111068,1878,1384,æ_S
1788787441.1113641,2033,2314,æ_S
1788787441.113861,2130,2314,æ_S
1788787441.114193,2129,2353,æ_S
1788787441.119421,2030,2067,æ_S
1788787441.119894,2018,2178,æ_S
1788787441.120127,2185,2436,æ_S
1788787441.120383,2143,1776,æ_S
1788787441.124814,2000,1288,æ_S
1788787441.124897,1949,1877,æ_S
1788787441.126247,2029,2256,æ_S
1788787441.134152,2138,2380,æ_S
1788787441.139143,2147,2060,æ_S
1788787441.1414158,2085,2015,æ_S
1788787441.1423879,2157,2505,æ_S
1788787441.143391,1999,2025,æ_S
1788787441.145508,1914,1485,æ_S
1788787441.1507049,1844,1638,æ_S
1788787441.151189,2062,2439,æ_S
1788787441.151582,2153,2269,æ_S
1788787441.151853,2175,2139,æ_S
1788787441.152118,2058,1828,æ_S
1788787441.1524658,2056,2273,æ_S
1788787441.152724,2112,2182,æ_S
1788787441.156694,2046,1832,æ_S
1788787441.156884,1911,1447,æ_S
1788787441.1583622,2001,2345,æ_S
1788787441.159978,2092,2257,æ_S
1788787441.162661,2152,2288,æ_S
1788787441.164049,2086,1945,æ_S
1788787441.1707652,2058,2146,æ_S
1788787441.1730409,2147,2361,æ_S
1788787441.173213,2117,1888,æ_S
1788787441.177226,2025,1548,æ_S
1788787441.177462,1954,1978,æ_S
1788787441.177851,2069,2244,æ_S
1788787441.180632,2124,2429,æ_S
1788787441.181696,2082,2008,æ_S
1788787441.184026,2016,1945,æ_S
1788787441.188891,2127,2428,æ_S
1788787441.189701,2101,2003,æ_S
1788787441.190104,2015,1600,æ_S
1788787441.190471,1900,1511,æ_S
1788787441.19387,2070,2530,æ_S
1788787441.193954,2125,2351,æ_S
1788787441.1965802,2127,2112,æ_S
1788787441.204343,2061,1845,æ_S
1788787441.205968,2114,2292,æ_S
1788787441.206212,2149,2199,æ_S
1788787441.2086122,2048,1786,æ_S
1788787441.2090611,1956,1364,æ_S
1788787441.2115378,2033,2190,æ_S
1788787441.211895,2037,2232,æ_S
1788787441.21456,2066,2273,æ_S
1788787441.214798,2072,1929,æ_S
1788787441.220465,2066,2161,æ_S
1788787441.220736,2139,2358,æ_S
1788787441.2210681,2061,1818,æ_S
1788787441.22579,1955,1536,æ_S
1788787441.2260249,1931,1938,æ_S
1788787441.2261708,2071,2232,æ_S
1788787441.228808,2140,2365,æ_S
1788787441.230161,2126,2057,æ_S
1788787441.232762,2061,1876,æ_S
1788787441.234478,2162,2424,æ_S
1788787441.2415118,2067,1948,æ_S
1788787441.2458649,1978,1654,æ_S
1788787441.246322,1871,1452,æ_S
1788787441.2467399,2034,2426,æ_S
1788787441.247093,2082,2349,æ_S
1788787441.2502,2101,2230,æ_S
1788787441.2504299,2037,1788,æ_S
1788787441.252602,2099,2104,æ_S
1788787441.252838,2146,1963,æ_S
1788787441.2581608,2065,1554,æ_S
1788787441.258823,1922,1093,æ_S
1788787441.259155,2010,1988,æ_S
1788787441.263772,2103,2086,æ_S
1788787441.263904,2172,2050,æ_S
1788787441.263975,2115,1659,æ_S
1788787441.266606,2081,1744,æ_S
1788787441.2679749,2153,2182,æ_S
1788787441.2769349,2054,1558,æ_S
1788787441.2779598,1969,1246,æ_S
1788787441.280268,1951,1746,æ_S
1788787441.28073,2062,2065,æ_S
1788787441.282686,2118,2221,æ_S
1788787441.283556,2100,1865,æ_S
1788787441.284432,2031,1648,æ_S
1788787441.286645,2134,2222,æ_S
1788787441.292137,2131,1676,æ_S
1788787441.292419,2035,1381,æ_S
1788787441.293226,1910,1346,æ_S
1788787441.293525,2060,2307,æ_S
1788787441.293928,2099,2256,æ_S
1788787441.2974348,2118,2039,æ_S
1788787441.298789,2065,1607,æ_S
1788787441.300127,2101,2012,æ_S
1788787441.302766,2150,1897,æ_S
1788787441.3041081,2072,1510,æ_S
1788787441.313141,1920,1306,æ_S
1788787441.3144598,2012,2233,æ_S
1788787441.315456,2055,2205,æ_S
1788787441.3179882,2105,2194,æ_S
1788787441.318238,2095,1828,æ_S
1788787441.318669,2064,1904,æ_S
1788787441.3210292,2089,2147,æ_S
1788787441.3212879,2088,1642,æ_S
1788787441.324529,2077,1358,æ_S
1788787441.32989,1950,2023,æ_S
1788787441.330268,2060,2112,æ_S
1788787441.330587,2163,2222,æ_S
1788787441.331116,2110,1924,æ_S
1788787441.3348851,2070,1794,æ_S
1788787441.33519,2103,2357,æ_S
1788787441.3366442,2072,1795,æ_S
1788787441.33831,1970,1569,æ_S
1788787441.3452318,1884,1512,æ_S
1788787441.346045,2053,2370,æ_S
1788787441.348282,2089,2307,æ_S
1788787441.350705,2111,2112,æ_S
1788787441.350973,2043,1764,æ_S
1788787441.351255,2058,2069,æ_S
1788787441.353708,2171,2044,æ_S
1788787441.354484,2105,1687,æ_S
1788787441.356234,1923,1431,æ_S
1788787441.362304,1949,2352,æ_S
1788787441.365216,2076,2210,æ_S
1788787441.3662431,2145,2240,æ_S
1788787441.36631,2104,1873,æ_S
1788787441.366482,2132,2041,æ_S
1788787441.367869,2195,2327,æ_S
1788787441.369743,2117,1816,æ_S
1788787441.3722959,1987,1465,æ_S
1788787441.373709,1941,2049,æ_S
1788787441.380576,2058,2261,æ_S
1788787441.3818371,2125,2317,æ_S
1788787441.382676,2094,1992,æ_S
1788787441.383435,2025,1891,æ_S
1788787441.385849,2139,2462,æ_S
1788787441.386176,2118,1832,æ_S
1788787441.388684,2063,1656,æ_S
1788787441.391226,1914,1589,æ_S
1788787441.396725,2088,2372,æ_S
1788787441.3971798,2127,2307,æ_S
1788787441.3977861,2166,2209,æ_S
1788787441.398062,2084,1790,æ_S
1788787441.402207,2067,2123,æ_S
1788787441.402295,2159,2043,æ_S
1788787441.403736,2046,1686,æ_S
1788787441.4308648,1923,1499,æ_S
1788787441.431009,1960,2341,æ_S
1788787441.432246,2076,2171,æ_S
1788787441.4323242,2169,2214,æ_S
1788787441.432415,2112,1880,æ_S
1788787441.4325,2076,2124,æ_S
1788787441.4325628,2204,2273,æ_S
1788787441.4326248,2103,1817,æ_S
1788787441.432684,1911,1616,æ_S
1788787441.4399989,1933,2023,æ_S
1788787441.441549,2080,2205,æ_S
1788787441.441699,2204,2267,æ_S
1788787441.44177,2129,1993,æ_S
1788787441.441834,2075,1818,æ_S
1788787441.452333,2175,2420,æ_S
1788787441.465199,2123,1838,æ_S
1788787441.465468,2059,1690,æ_S
1788787441.465834,1921,1661,æ_S
1788787441.466231,2059,2415,æ_S
1788787441.466463,2060,2254,æ_S
1788787441.469994,2110,2031,æ_S
1788787441.470304,1990,1836,æ_S
1788787441.470376,2090,2035,æ_S
1788787441.470439,2190,1924,æ_S
1788787441.4705,2085,1696,æ_S
1788787441.4705632,1885,1448,æ_S
1788787441.470624,2046,2263,æ_S
1788787441.470689,2130,2164,æ_S
1788787441.470749,2149,2114,æ_S
1788787441.470809,2087,1843,æ_S
1788787441.47087,2019,1982,æ_S
1788787441.4709299,2157,2263,æ_S
1788787441.4709902,2119,1739,æ_S
1788787441.472374,2004,1615,æ_S
1788787441.4794629,1951,2089,æ_S
1788787441.480342,2074,2156,æ_S
1788787441.483743,2128,2333,æ_S
1788787441.484205,2100,2045,æ_S
1788787441.4845219,2066,1889,æ_S
1788787441.48474,2184,2397,æ_S
1788787441.4863942,2137,1852,æ_S
1788787441.490459,2033,1694,æ_S
1788787441.496054,1905,1677,æ_S
1788787441.4963388,2024,2468,æ_S
1788787441.4965272,2106,2332,æ_S
1788787441.496822,2040,2142,æ_S
1788787441.500899,2036,1855,æ_S
1788787441.501459,2073,2158,æ_S
1788787441.50156,2128,2038,æ_S
1788787441.504274,2064,1793,æ_S
1788787441.5058382,1951,1503,æ_S
1788787441.509087,1967,2428,æ_S
1788787441.5150359,2091,2244,æ_S
1788787441.5159628,2092,2232,æ_S
1788787441.516256,2138,1917,æ_S
1788787441.517795,2105,2101,æ_S
1788787441.518035,2190,2287,æ_S
1788787441.520874,2025,1960,æ_S
1788787441.5250251,1914,1749,æ_S
1788787441.5252638,1912,2142,æ_S
1788787441.532706,2108,2071,æ_S
1788787441.5330381,2223,2294,æ_S
1788787441.533244,2117,2049,æ_S
1788787441.53352,2111,2052,æ_S
1788787441.5338728,2152,2515,æ_S
1788787441.5370219,2110,1915,æ_S
1788787441.538391,2018,1756,æ_S
1788787441.5397398,1922,1705,æ_S
1788787441.54917,2033,2432,æ_S
1788787441.550685,2070,2339,æ_S
1788787441.553163,2095,2202,æ_S
1788787441.553538,2048,1873,æ_S
1788787441.556885,2101,2185,æ_S
1788787441.560011,2227,2113,æ_S
1788787441.565311,2061,1794,æ_S
1788787441.566043,1885,1695,æ_S
1788787441.566564,2011,2389,æ_S
1788787441.566894,2081,2196,æ_S
1788787441.56746,2161,2221,æ_S
1788787441.571257,2138,1943,æ_S
1788787441.571402,2082,2114,æ_S
1788787441.5715032,2162,2292,æ_S
1788787441.571574,2081,1867,æ_S
1788787441.571639,1967,1703,æ_S
1788787441.57434,1952,2182,æ_S
1788787441.575737,2055,2188,æ_S
1788787441.5784729,2134,2258,æ_S
1788787441.579852,2180,2024,æ_S
1788787441.5881522,2017,1930,æ_S
1788787441.589547,2103,2403,æ_S
1788787441.591965,2085,1927,æ_S
1788787441.592659,2068,1780,æ_S
1788787441.594957,2024,1715,æ_S
1788787441.597461,2046,2400,æ_S
1788787441.5978298,2084,2284,æ_S
1788787441.598081,2147,2131,æ_S
1788787441.602994,2109,1887,æ_S
1788787441.603528,2109,2211,æ_S
1788787441.603792,2138,2048,æ_S
1788787441.603991,2055,1867,æ_S
1788787441.60749,1885,1611,æ_S
1788787441.607574,1981,2412,æ_S
1788787441.610484,2101,2176,æ_S
1788787441.61553,2168,2171,æ_S
1788787441.618294,2070,2012,æ_S
1788787441.6207,2047,2139,æ_S
1788787441.623212,2195,2269,æ_S
1788787441.630102,2111,1916,æ_S
1788787441.630476,2028,1734,æ_S
1788787441.63094,1885,2153,æ_S
1788787441.631386,1965,2176,æ_S
1788787441.634389,2208,2300,æ_S
1788787441.6344519,2161,2033,æ_S
1788787441.634505,2065,1941,æ_S
1788787441.634633,2174,2491,æ_S
1788787441.636056,2095,1904,æ_S
1788787441.637523,2004,1790,æ_S
1788787441.64019,1913,1805,æ_S
1788787441.64186,2069,2351,æ_S
1788787441.649138,2115,2292,æ_S
1788787441.660267,2070,2109,æ_S
1788787441.663611,2071,1936,æ_S
1788787441.664083,2081,2211,æ_S
1788787441.6641438,2180,2033,æ_S
1788787441.664195,2114,1825,æ_S
1788787441.664244,1908,1683,æ_S
1788787441.664292,2012,2413,æ_S
1788787441.6643388,2065,2205,æ_S
1788787441.664386,2160,2198,æ_S
1788787441.664433,2116,1950,æ_S
1788787441.665788,2082,2122,æ_S
1788787441.6777039,2181,2368,æ_S
1788787441.680545,2088,1909,æ_S
1788787441.6815,1942,1719,æ_S
1788787441.689439,1943,2142,æ_S
1788787441.689844,2119,2205,æ_S
1788787441.690291,2177,2305,æ_S
1788787441.6905549,2143,2083,æ_S
1788787441.690906,2031,1986,æ_S
1788787441.694705,2077,2448,æ_S
1788787441.694834,2101,1973,æ_S
1788787441.6949089,2019,1817,æ_S
1788787441.6949801,1907,1794,æ_S
1788787441.6950421,2019,2370,æ_S
1788787441.695105,2145,2309,æ_S
1788787441.696466,2167,2137,æ_S
1788787441.697845,2047,1941,æ_S
1788787441.700483,2084,2237,æ_S
1788787441.702157,2159,2079,æ_S
1788787441.707249,2123,1846,æ_S
1788787441.7088351,1963,1679,æ_S
1788787441.7090418,2005,2319,æ_S
1788787441.7127612,2066,2198,æ_S
1788787441.713336,2138,2171,æ_S
1788787441.715891,2085,1997,æ_S
1788787441.716883,2084,2119,æ_S
1788787441.719015,2205,2326,æ_S
1788787441.72508,2060,1994,æ_S
1788787441.725594,1967,1757,æ_S
1788787441.728499,1938,2169,æ_S
1788787441.729599,2031,2127,æ_S
1788787441.7296782,2122,2261,æ_S
1788787441.729743,2073,2102,æ_S
1788787441.732706,1985,2032,æ_S
1788787441.738784,2173,2401,æ_S
1788787441.740622,2127,1894,æ_S
1788787441.7421231,2019,1896,æ_S
1788787441.7447412,1900,1719,æ_S
1788787441.745111,2009,2491,æ_S
1788787441.745457,2103,2281,æ_S
1788787441.74843,2131,2109,æ_S
1788787441.755531,2016,1948,æ_S
1788787441.756164,2074,2175,æ_S
1788787441.7565958,2121,2042,æ_S
1788787441.757164,2061,1877,æ_S
1788787441.760839,1910,1668,æ_S
1788787441.7612622,2001,2323,æ_S
1788787441.761374,2086,2198,æ_S
1788787441.7614698,2129,2196,æ_S
1788787441.764104,2084,1982,æ_S
1788787441.7654881,2022,2149,æ_S
1788787441.768126,2139,2313,æ_S
1788787441.776235,2084,1935,æ_S
1788787441.777295,1985,1781,æ_S
1788787441.778186,1944,2099,æ_S
1788787441.780751,2072,2198,æ_S
1788787441.7810628,2134,2271,æ_S
1788787441.781466,2122,2093,æ_S
1788787441.7841659,1970,2008,æ_S
1788787441.785005,2148,2469,æ_S
1788787441.7921011,2106,1993,æ_S
1788787441.792468,1990,1804,æ_S
1788787441.793102,1831,1795,æ_S
1788787441.793597,2019,2396,æ_S
1788787441.794163,2132,2336,æ_S
1788787441.796989,2122,2128,æ_S
1788787441.798366,2085,1913,æ_S
1788787441.799776,2091,2237,æ_S
1788787441.8067589,2151,2084,æ_S
1788787441.808392,2062,1859,æ_S
1788787441.81201,1910,1677,æ_S
1788787441.812614,2005,2328,æ_S
1788787441.813031,2060,2209,æ_S
1788787441.8156202,2166,2136,æ_S
1788787441.8164768,2086,2024,æ_S
1788787441.8185978,2078,2174,æ_S
1788787441.818997,2163,2295,æ_S
1788787441.824445,2094,1963,æ_S
1788787441.824967,1984,1774,æ_S
1788787441.8254468,1936,2159,æ_S
1788787441.825896,2078,2177,æ_S
1788787441.82938,2122,2277,æ_S
1788787441.8297868,2081,2058,æ_S
1788787441.8324502,2033,1977,æ_S
1788787441.8338182,2134,2499,æ_S
1788787441.836472,2092,1938,æ_S
1788787441.838204,2026,1821,æ_S
1788787441.844762,1901,1781,æ_S
1788787441.844977,2072,2408,æ_S
1788787441.846252,2102,2310,æ_S
1788787441.847167,2142,2154,æ_S
1788787441.8502321,2065,1919,æ_S
1788787441.8505201,2115,2199,æ_S
1788787441.852976,2138,2107,æ_S
1788787441.855839,2042,1868,æ_S
1788787441.8608608,1907,1716,æ_S
1788787441.861194,2001,2365,æ_S
1788787441.861791,2099,2181,æ_S
1788787441.862438,2132,2195,æ_S
1788787441.8661098,2086,1977,æ_S
1788787441.866452,2091,2166,æ_S
1788787441.8678138,2182,2303,æ_S
1788787441.8771222,2122,1954,æ_S
1788787441.87741,1956,1773,æ_S
1788787441.878907,1924,2175,æ_S
1788787441.879725,2046,2163,æ_S
1788787441.8821208,2125,2261,æ_S
1788787441.882452,2118,2021,æ_S
1788787441.882786,2078,2037,æ_S
1788787441.887788,2165,2459,æ_S
1788787441.893379,2118,1965,æ_S
1788787441.893857,2035,1801,æ_S
1788787441.894476,1911,1789,æ_S
1788787441.894745,2026,2402,æ_S
1788787441.8992682,2081,2325,æ_S
1788787441.899447,2091,2178,æ_S
1788787441.8995242,2048,1933,æ_S
1788787441.899591,2110,2202,æ_S
1788787441.9022489,2159,2091,æ_S
1788787441.903646,2057,1896,æ_S
1788787441.9121778,1937,1684,æ_S
1788787441.9130251,2014,2353,æ_S
1788787441.9139159,2121,2188,æ_S
1788787441.917666,2163,2203,æ_S
1788787441.9182222,2079,1983,æ_S
1788787441.920075,2061,2172,æ_S
1788787441.920869,2160,2364,æ_S
1788787441.921725,2079,1945,æ_S
1788787441.923595,1998,1761,æ_S
1788787441.928711,1937,2168,æ_S
1788787441.929447,2065,2163,æ_S
1788787441.929922,2125,2283,æ_S
1788787441.9301271,2100,2054,æ_S
1788787441.934043,2050,1994,æ_S
1788787441.934201,2161,2512,æ_S
1788787441.9355462,2105,1939,æ_S
1788787441.9381912,1995,1844,æ_S
1788787441.945118,1887,1787,æ_S
1788787441.9459891,2051,2404,æ_S
1788787441.947637,2119,2323,æ_S
1788787441.9483788,2134,2154,æ_S
1788787441.950624,2073,1939,æ_S
1788787441.951168,2105,2226,æ_S
1788787441.953658,2150,2090,æ_S
1788787441.954612,2072,1890,æ_S
1788787441.961427,1920,1691,æ_S
1788787441.961793,1987,2324,æ_S
1788787441.962253,2083,2202,æ_S
1788787441.962516,2162,2215,æ_S
1788787441.966264,2117,2054,æ_S
1788787441.966769,2065,2162,æ_S
1788787441.968172,2148,2306,æ_S
1788787441.969573,2076,1953,æ_S
1788787441.972266,1999,1775,æ_S
1788787441.973632,1947,2168,æ_S
1788787441.981278,2066,2187,æ_S
1788787441.982235,2142,2255,æ_S
1788787441.984999,2129,2050,æ_S
1788787441.985446,2061,2010,æ_S
1788787441.988693,2152,2466,æ_S
1788787441.989724,2124,1955,æ_S
1788787441.992032,2029,1836,æ_S
1788787441.992367,1906,1793,æ_S
1788787441.99804,2067,2409,æ_S
1788787441.998399,2112,2314,æ_S
1788787442.002215,2136,2142,æ_S
1788787442.002315,2066,1933,æ_S
1788787442.002382,2080,2219,æ_S
1788787442.002452,2153,2095,æ_S
1788787442.0038242,2067,1895,æ_S
1788787442.012751,1933,1689,æ_S
1788787442.0129821,2001,2345,æ_S
1788787442.014409,2084,2195,æ_S
1788787442.015272,2149,2205,æ_S
1788787442.017927,2087,1976,æ_S
1788787442.018153,2074,2161,æ_S
1788787442.0184808,2153,2336,æ_S
1788787442.0220008,2089,1955,æ_S
1788787442.024286,1975,1781,æ_S
1788787442.029275,1931,2168,æ_S
1788787442.029653,2067,2187,æ_S
1788787442.029845,2129,2260,æ_S
1788787442.030118,2107,2112,æ_S
1788787442.034219,2056,2184,æ_S
1788787442.034435,2152,2588,æ_S
1788787442.035603,2131,1721,æ_S
1788787442.038208,2016,1609,æ_S
1788787442.039575,1895,1888,æ_S
1788787442.0422778,2067,2469,æ_S
1788787442.049101,2110,2281,æ_S
1788787442.049953,2126,2070,æ_S
1788787442.053282,2060,1904,æ_S
1788787442.053714,2093,2249,æ_S
1788787442.053917,2139,2151,æ_S
1788787442.0543702,2062,1940,æ_S
1788787442.057222,1930,1780,æ_S
1788787442.0579588,1990,2383,æ_S
1788787442.059968,2089,2188,æ_S
1788787442.064708,2149,2116,æ_S
1788787442.065686,2085,2059,æ_S
1788787442.066405,2046,2224,æ_S
1788787442.0692768,2170,2434,æ_S
1788787442.070312,2088,2013,æ_S
1788787442.071737,1952,1525,æ_S
1788787442.074487,1906,1831,æ_S
1788787442.080599,2045,2282,æ_S
1788787442.081613,2134,2336,æ_S
1788787442.082518,2133,2050,æ_S
1788787442.0833669,2056,1971,æ_S
1788787442.085993,2141,2417,æ_S
1788787442.086251,2130,1973,æ_S
1788787442.089911,2054,1910,æ_S
1788787442.0916831,1901,1945,æ_S
1788787442.0919979,2084,2485,æ_S
1788787442.0962718,2119,2413,æ_S
1788787442.096679,2135,2181,æ_S
1788787442.100356,2064,1819,æ_S
1788787442.1004539,2088,2097,æ_S
1788787442.1018329,2162,2065,æ_S
1788787442.103251,2060,2013,æ_S
1788787442.105954,1954,1773,æ_S
1788787442.1073332,2048,2272,æ_S
1788787442.1149619,2129,2092,æ_S
1788787442.116353,2150,2156,æ_S
1788787442.120267,2214,2068,æ_S
1788787442.122907,2127,2209,æ_S
1788787442.123141,2153,2265,æ_S
1788787442.1273768,2065,1942,æ_S
1788787442.131222,1861,1825,æ_S
1788787442.131294,1893,2196,æ_S
1788787442.1313548,2071,2444,æ_S
1788787442.131428,2145,2130,æ_S
1788787442.131574,1998,1841,æ_S
1788787442.131683,1878,1973,æ_S
1788787442.140107,2082,2538,æ_S
1788787442.141419,2138,1982,æ_S
1788787442.1437929,2164,1816,æ_S
1788787442.145625,1948,1728,æ_S
1788787442.146379,1994,2357,æ_S
1788787442.146612,2061,2416,æ_S
1788787442.148944,2126,2220,æ_S
1788787442.149398,2072,1974,æ_S
1788787442.153583,2131,2225,æ_S
1788787442.153991,2170,2090,æ_S
1788787442.154439,2288,1927,æ_S
1788787442.1588411,1962,1718,æ_S
1788787442.158931,1906,2268,æ_S
1788787442.160379,2158,2194,æ_S
1788787442.16174,2247,2209,æ_S
1788787442.164356,2107,2030,æ_S
1788787442.165737,2102,2463,æ_S
1788787442.173114,2140,2199,æ_S
1788787442.176525,1956,1718,æ_S
1788787442.176873,1882,1920,æ_S
1788787442.177191,2131,2136,æ_S
1788787442.180056,2575,2161,æ_S
1788787442.1823518,2199,2351,æ_S
1788787442.182664,1762,2046,æ_S
1788787442.187451,1715,2033,æ_S
1788787442.187917,2007,2352,æ_S
1788787442.188132,1983,2093,æ_S
1788787442.18853,2036,1951,æ_S
1788787442.1924648,1839,1806,æ_S
1788787442.19255,1869,2407,æ_S
1788787442.193917,2045,2282,æ_S
1788787442.195568,2179,2112,æ_S
1788787442.202385,2282,2066,æ_S
1788787442.2038121,2214,2395,æ_S
1788787442.2049909,2308,1861,æ_S
1788787442.207407,2130,1817,æ_S
1788787442.207947,1838,1834,æ_S
1788787442.208229,1821,2454,æ_S
1788787442.211434,2031,2204,æ_S
1788787442.2137191,2291,2244,æ_S
1788787442.2183769,2205,2230,æ_S
1788787442.2193248,2218,2650,æ_S
1788787442.219591,2323,1973,æ_S
1788787442.220006,2167,1833,æ_S
1788787442.2231328,2142,1910,æ_S
1788787442.223407,1950,2161,æ_S
1788787442.2260811,2012,2198,æ_S
1788787442.227433,2123,2287,æ_S
1788787442.230012,1859,2501,æ_S
1788787442.231489,1690,2793,æ_S
1788787442.2393548,1964,2048,æ_S
1788787442.2401521,2101,1317,æ_S
1788787442.240392,2065,1825,æ_S
1788787442.2412941,1907,2172,æ_S
1788787442.244429,1990,2425,æ_S
1788787442.244661,2113,2154,æ_S
1788787442.246568,2186,2004,æ_S
1788787442.2496939,2196,1891,æ_S
1788787442.2547781,2296,2445,æ_S
1788787442.255523,2214,2507,æ_S
1788787442.256373,2007,2387,æ_S
1788787442.260118,2033,1926,æ_S
1788787442.2604501,2204,2544,æ_S
1788787442.2605262,2193,2068,æ_S
1788787442.261919,2019,1917,æ_S
1788787442.263287,2136,1820,æ_S
1788787442.269952,2252,2323,æ_S
1788787442.2707279,2252,2661,æ_S
1788787442.272485,2371,2131,æ_S
1788787442.275553,2303,1742,æ_S
1788787442.275848,1706,2003,æ_S
1788787442.276279,1667,2156,æ_S
1788787442.2781272,2033,2308,æ_S
1788787442.2856011,2027,2178,æ_S
1788787442.286189,1922,2116,æ_S
1788787442.2868228,2047,2581,æ_S
1788787442.287284,2186,1746,æ_S
1788787442.287593,2003,1860,æ_S
1788787442.2917728,1760,2120,æ_S
1788787442.292192,2274,2598,æ_S
1788787442.2939,2369,3053,æ_S
1788787442.295252,2322,2280,æ_S
1788787442.297864,1992,890,æ_S
1788787442.299139,2023,2129,æ_S
1788787442.306714,2161,2647,æ_S
1788787442.307643,2060,2049,æ_S
1788787442.311213,1899,1575,æ_S
1788787442.311718,2004,2241,æ_S
1788787442.3119109,2093,2273,æ_S
1788787442.3121762,2199,2352,æ_S
1788787442.315451,2189,2188,æ_S
1788787442.3174012,2173,2415,æ_S
1788787442.317853,2188,2665,æ_S
1788787442.322697,2067,2100,æ_S
1788787442.323483,1950,1720,æ_S
1788787442.323958,1986,2106,æ_S
1788787442.327821,2140,2394,æ_S
1788787442.327913,2359,2183,æ_S
1788787442.329207,2420,2785,æ_S
1788787442.3376892,2130,2143,æ_S
1788787442.337964,2255,1916,æ_S
1788787442.3394089,1929,2223,æ_S
1788787442.3403158,1680,1925,æ_S
1788787442.343168,1727,1665,æ_S
1788787442.345671,1962,2461,æ_S
1788787442.34671,1947,2320,æ_S
1788787442.3486998,2024,2262,æ_S
1788787442.349208,2059,2080,æ_S
1788787442.354033,2143,2770,æ_S
1788787442.354611,2250,2478,æ_S
1788787442.355099,2199,1704,æ_S
1788787442.355365,2053,1974,æ_S
1788787442.3593678,2160,2635,æ_S
1788787442.359444,2146,2108,æ_S
1788787442.3621361,2163,1777,æ_S
1788787442.3634932,2039,1958,æ_S
1788787442.3650959,2243,2532,æ_S
1788787442.368096,2332,2497,æ_S
1788787442.37644,2242,2682,æ_S
1788787442.376755,1919,2367,æ_S
1788787442.37912,1719,1475,æ_S
1788787442.379534,2143,2450,æ_S
1788787442.3818638,2280,2548,æ_S
1788787442.384654,1862,1693,æ_S
1788787442.385143,1639,2038,æ_S
1788787442.3901381,2076,2641,æ_S
1788787442.390505,2185,2213,æ_S
1788787442.391115,2113,1740,æ_S
1788787442.391273,1877,1522,æ_S
1788787442.391407,2111,2491,æ_S
1788787442.394907,2042,2657,æ_S
1788787442.395371,2039,2500,æ_S
1788787442.3980002,2062,2143,æ_S
1788787442.3994539,1895,2410,æ_S
1788787442.405878,2079,2267,æ_S
1788787442.4066691,2115,1935,æ_S
1788787442.406865,1875,1560,æ_S
1788787442.410291,2035,2421,æ_S
1788787442.4105248,2205,2428,æ_S
1788787442.413501,2219,2522,æ_S
1788787442.413779,2172,2291,æ_S
1788787442.420306,2115,2166,æ_S
1788787442.420575,2198,2631,æ_S
1788787442.4207768,2142,1913,æ_S
1788787442.425136,2032,1378,æ_S
1788787442.425493,1915,2253,æ_S
1788787442.4255621,2063,2437,æ_S
1788787442.428266,2177,2297,æ_S
1788787442.429625,2196,2095,æ_S
1788787442.432319,2149,2085,æ_S
1788787442.4394639,2067,2648,æ_S
1788787442.4402182,1976,2104,æ_S
1788787442.441664,1949,1879,æ_S
1788787442.442005,1864,1835,æ_S
1788787442.445296,2023,2762,æ_S
1788787442.4456818,2060,2301,æ_S
1788787442.448404,2278,2528,æ_S
1788787442.4494028,2150,1601,æ_S
1788787442.456512,2178,2095,æ_S
1788787442.456844,2165,2690,æ_S
1788787442.457589,1904,2159,æ_S
1788787442.4582348,1814,1050,æ_S
1788787442.461152,1963,2146,æ_S
1788787442.462272,2047,2359,æ_S
1788787442.462343,2061,2477,æ_S
1788787442.463687,2118,2096,æ_S
1788787442.4692,2159,2366,æ_S
1788787442.470551,2339,2787,æ_S
1788787442.470936,2132,1988,æ_S
1788787442.472346,2185,1589,æ_S
1788787442.474817,2013,2078,æ_S
1788787442.479061,1844,1794,æ_S
1788787442.4845,1930,2321,æ_S
1788787442.485228,1963,2223,æ_S
1788787442.4892218,2005,2131,æ_S
1788787442.489619,2163,2610,æ_S
1788787442.489692,2097,1855,æ_S
1788787442.4897559,1905,1706,æ_S
1788787442.4898171,2012,1968,æ_S
1788787442.49121,2375,3231,æ_S
1788787442.4938922,2104,2585,æ_S
1788787442.4952471,1935,1625,æ_S
1788787442.498302,2002,1754,æ_S
1788787442.505599,2220,2266,æ_S
1788787442.505895,2174,2541,æ_S
1788787442.50668,1880,2129,æ_S
1788787442.5097752,2031,799,æ_S
1788787442.510375,1981,2494,æ_S
1788787442.5125508,1912,2252,æ_S
1788787442.51277,1961,2069,æ_S
1788787442.515727,2058,2061,æ_S
1788787442.5160398,2055,2462,æ_S
1788787442.521568,2135,2565,æ_S
1788787442.521908,2005,2020,æ_S
1788787442.522305,1899,1659,æ_S
1788787442.5268962,1969,1946,æ_S
1788787442.5274189,2179,2470,æ_S
1788787442.527499,2218,2846,æ_S
1788787442.530145,2158,2137,æ_S
1788787442.537334,2074,1897,æ_S
1788787442.538199,2247,2481,æ_S
1788787442.538492,2200,2072,æ_S
1788787442.541399,1970,1768,æ_S
1788787442.541831,1895,1694,æ_S
1788787442.5446641,2111,2687,æ_S
1788787442.5475252,2072,2166,æ_S
1788787442.5478148,2109,2065,æ_S
1788787442.552557,2075,2239,æ_S
1788787442.553405,2151,2673,æ_S
1788787442.554174,2168,2438,æ_S
1788787442.554582,1971,1711,æ_S
1788787442.558474,1863,1144,æ_S
1788787442.558589,1989,1971,æ_S
1788787442.5600462,2040,2472,æ_S
1788787442.5614378,2130,2553,æ_S
1788787442.5641248,2041,1844,æ_S
1788787442.565512,1990,2157,æ_S
1788787442.5671968,2131,2399,æ_S
1788787442.574385,2070,1913,æ_S
1788787442.574674,1917,1867,æ_S
1788787442.5765278,2134,1977,æ_S
1788787442.5775008,2170,2406,æ_S
1788787442.58014,2150,3102,æ_S
1788787442.5805068,2296,1726,æ_S
1788787442.583694,2017,1903,æ_S
1788787442.585699,1966,2524,æ_S
1788787442.58603,2017,1640,æ_S
1788787442.590591,1977,2003,æ_S
1788787442.590924,1893,1741,æ_S
1788787442.591393,2016,2545,æ_S
1788787442.594639,2097,2329,æ_S
1788787442.596073,2099,2174,æ_S
1788787442.597606,2039,1975,æ_S
1788787442.603586,2131,2434,æ_S
1788787442.604237,2212,2444,æ_S
1788787442.6050408,2062,2141,æ_S
1788787442.6072571,2029,1516,æ_S
1788787442.611428,2095,2050,æ_S
1788787442.6118028,2054,2167,æ_S
1788787442.619387,1989,2528,æ_S
1788787442.619722,2044,1927,æ_S
1788787442.619793,2118,2018,æ_S
1788787442.6198552,2159,2525,æ_S
1788787442.619915,2046,2283,æ_S
1788787442.621325,1929,1866,æ_S
1788787442.6240482,1919,1751,æ_S
1788787442.625568,2085,2396,æ_S
1788787442.6322901,2198,2477,æ_S
1788787442.634345,2219,2130,æ_S
1788787442.635659,2198,2058,æ_S
1788787442.6377668,2151,2550,æ_S
1788787442.638279,2104,1987,æ_S
1788787442.6415849,2032,1761,æ_S
1788787442.643393,1907,1633,æ_S
1788787442.647713,1987,2597,æ_S
1788787442.648107,1982,2374,æ_S
1788787442.6485991,2086,2281,æ_S
1788787442.6490061,2052,1885,æ_S
1788787442.649357,2056,2276,æ_S
1788787442.6518779,2131,2411,æ_S
1788787442.6532328,2018,2115,æ_S
1788787442.655872,1957,1722,æ_S
1788787442.6637282,2034,2058,æ_S
1788787442.664487,2134,1650,æ_S
1788787442.666911,2158,2298,æ_S
1788787442.668797,2057,2414,æ_S
1788787442.669618,2067,2127,æ_S
1788787442.6704361,2174,2285,æ_S
1788787442.6725729,2093,1898,æ_S
1788787442.6778,2027,1659,æ_S
1788787442.678206,1948,2109,æ_S
1788787442.67857,1983,2395,æ_S
1788787442.679234,2034,2556,æ_S
1788787442.679488,2090,2235,æ_S
1788787442.68244,2096,2256,æ_S
1788787442.683807,2294,2481,æ_S
1788787442.6851861,2148,1689,æ_S
1788787442.687875,1954,1457,æ_S
1788787442.6892328,1865,1537,æ_S
1788787442.692336,2105,2672,æ_S
1788787442.700193,2081,2494,æ_S
1788787442.700444,2134,2290,æ_S
1788787442.7034812,2087,1836,æ_S
1788787442.703833,2068,2220,æ_S
1788787442.704204,2116,2451,æ_S
1788787442.7078772,2103,1787,æ_S
1788787442.708139,1961,1066,æ_S
1788787442.710459,1952,2332,æ_S
1788787442.715753,1991,2391,æ_S
1788787442.716342,2131,2360,æ_S
1788787442.717401,2094,2023,æ_S
1788787442.717751,2136,2504,æ_S
1788787442.721663,2242,2457,æ_S
1788787442.721798,2048,1642,æ_S
1788787442.7218828,2079,1742,æ_S
1788787442.7232482,1990,2036,æ_S
1788787442.724997,2022,2192,æ_S
1788787442.744864,2035,2207,æ_S
1788787442.764812,2049,1999,æ_S
1788787442.768227,1986,1894,æ_S
1788787442.768662,2099,2490,æ_S
1788787442.768915,2067,2273,æ_S
1788787442.777508,1973,1595,æ_S
1788787442.778393,1861,1533,æ_S
1788787442.778639,2049,2634,æ_S
1788787442.7816021,2174,2394,æ_S
1788787442.781903,2220,2183,æ_S
1788787442.7819688,2098,1842,æ_S
1788787442.782024,2095,2277,æ_S
1788787442.7820768,2154,2276,æ_S
1788787442.7821262,2107,1893,æ_S
1788787442.782176,1943,1440,æ_S
1788787442.7822258,2001,2412,æ_S
1788787442.782274,2152,2275,æ_S
1788787442.782324,2185,2394,æ_S
1788787442.7823732,2094,1997,æ_S
1788787442.782422,2092,2177,æ_S
1788787442.782472,2172,2424,æ_S
1788787442.782521,2051,2094,æ_S
1788787442.78257,1914,1643,æ_S
1788787442.782617,1920,1980,æ_S
1788787442.782665,2089,2222,æ_S
1788787442.782712,2119,2071,æ_S
1788787442.782762,2093,2128,æ_S
1788787442.7828102,2042,1861,æ_S
1788787442.782885,2135,2462,æ_S
1788787442.791255,2098,2132,æ_S
1788787442.7929611,2004,1503,æ_S
1788787442.793605,1895,1430,æ_S
1788787442.793764,2050,2620,æ_S
1788787442.796756,2127,2508,æ_S
1788787442.798871,2183,2272,æ_S
1788787442.799613,2080,1872,æ_S
1788787442.7998679,2133,2264,æ_S
1788787442.801888,2127,2203,æ_S
1788787442.807183,2067,1777,æ_S
1788787442.8076868,1962,1433,æ_S
1788787442.808018,1994,2316,æ_S
1788787442.8112168,2070,2297,æ_S
1788787442.812177,2172,2322,æ_S
1788787442.81352,2115,2032,æ_S
1788787442.815007,2063,2157,æ_S
1788787442.817634,2196,2378,æ_S
1788787442.8190389,2101,1906,æ_S
1788787442.8260648,1960,1510,æ_S
1788787442.8282921,1925,1940,æ_S
1788787442.828545,2077,2302,æ_S
1788787442.831701,2156,2394,æ_S
1788787442.83198,2108,2109,æ_S
1788787442.83449,2049,1922,æ_S
1788787442.835239,2120,2455,æ_S
1788787442.837313,2113,2012,æ_S
1788787442.837715,2023,1642,æ_S
1788787442.8431518,1894,1562,æ_S
1788787442.843522,2072,2418,æ_S
1788787442.8438258,2082,2334,æ_S
1788787442.847868,2134,2248,æ_S
1788787442.847954,2071,1931,æ_S
1788787442.8493178,2094,2370,æ_S
1788787442.8518589,2182,2209,æ_S
1788787442.859948,2034,1712,æ_S
1788787442.861407,1951,1310,æ_S
1788787442.863714,1994,2258,æ_S
1788787442.8639832,2056,2285,æ_S
1788787442.864319,2149,2285,æ_S
1788787442.864743,2079,1977,æ_S
1788787442.8678951,2094,2142,æ_S
1788787442.8701031,2198,2361,æ_S
1788787442.8754098,2091,1859,æ_S
1788787442.875819,1984,1576,æ_S
1788787442.876056,1927,1901,æ_S
1788787442.876352,2058,2256,æ_S
1788787442.8799932,2137,2411,æ_S
1788787442.8804271,2091,2057,æ_S
1788787442.8817742,2049,1865,æ_S
1788787442.88312,2148,2416,æ_S
1788787442.885771,2149,1977,æ_S
1788787442.887132,2052,1663,æ_S
1788787442.894851,1927,1491,æ_S
1788787442.896561,2051,2419,æ_S
1788787442.899911,2109,2340,æ_S
1788787442.9002209,2131,2107,æ_S
1788787442.900434,2031,1665,æ_S
1788787442.9008288,2090,1972,æ_S
1788787442.900984,2128,1979,æ_S
1788787442.905526,2055,1525,æ_S
1788787442.905822,1937,1197,æ_S
1788787442.911503,2020,2158,æ_S
1788787442.91194,2090,2077,æ_S
1788787442.9122822,2161,2107,æ_S
1788787442.914978,2106,1744,æ_S
1788787442.915851,2085,1866,æ_S
1788787442.917275,2145,2120,æ_S
1788787442.925781,2082,1601,æ_S
1788787442.9266748,1961,1391,æ_S
1788787442.9284549,1910,1845,æ_S
1788787442.9293098,2093,2131,æ_S
1788787442.929472,2170,2247,æ_S
1788787442.929714,2148,1959,æ_S
1788787442.932262,2082,1762,æ_S
1788787442.9345422,2129,2462,æ_S
1788787442.937023,2116,1772,æ_S
1788787442.9374342,2039,1540,æ_S
1788787442.942938,1913,1552,æ_S
1788787442.9431481,2061,2402,æ_S
1788787442.943396,2110,2364,æ_S
1788787442.947299,2134,2110,æ_S
1788787442.9477172,2067,1747,æ_S
1788787442.949077,2104,2115,æ_S
1788787442.951724,2167,2016,æ_S
1788787442.953047,2054,1686,æ_S
1788787442.9556842,1928,1333,æ_S
1788787442.957006,2005,2248,æ_S
1788787442.964021,2059,2169,æ_S
1788787442.968997,2124,2193,æ_S
1788787442.9694788,2087,1827,æ_S
1788787442.970043,2094,1909,æ_S
1788787442.9718919,2160,2189,æ_S
1788787442.9727511,2068,1733,æ_S
1788787442.9754932,1977,1443,æ_S
1788787442.9813068,1952,1907,æ_S
1788787442.98172,2119,2201,æ_S
1788787442.982018,2192,2312,æ_S
1788787442.982293,2111,1919,æ_S
1788787442.983104,1986,1852,æ_S
1788787442.986001,2027,2400,æ_S
1788787442.98717,2104,1761,æ_S
1788787442.987242,2086,1569,æ_S
1788787442.989908,1913,1622,æ_S
1788787442.99719,2051,2401,æ_S
1788787442.998027,2070,2253,æ_S
1788787442.9987571,2090,2084,æ_S
1788787443.001775,2088,1803,æ_S
1788787443.0020921,2114,2093,æ_S
1788787443.0040781,2188,1977,æ_S
1788787443.00577,2064,1692,æ_S
1788787443.00785,1894,1391,æ_S
1788787443.013242,1978,2298,æ_S
1788787443.013634,2084,2213,æ_S
1788787443.014271,2146,2210,æ_S
1788787443.0147069,2084,1874,æ_S
1788787443.015195,2089,2004,æ_S
1788787443.018697,2179,2263,æ_S
1788787443.0191302,2109,1752,æ_S
1788787443.021845,1986,1512,æ_S
1788787443.023227,1934,2026,æ_S
1788787443.0259562,2055,2184,æ_S
1788787443.034514,2145,2307,æ_S
1788787443.035247,2136,2013,æ_S
1788787443.0356102,2063,1888,æ_S
1788787443.036421,2144,2420,æ_S
1788787443.038949,2110,1814,æ_S
1788787443.03938,1981,1638,æ_S
1788787443.039696,1882,1589,æ_S
1788787443.043023,2057,2381,æ_S
1788787443.045255,2142,2293,æ_S
1788787443.050744,2157,2111,æ_S
1788787443.051525,2063,1809,æ_S
1788787443.052072,2093,2115,æ_S
1788787443.052427,2156,2019,æ_S
1788787443.055845,2082,1758,æ_S
1788787443.055927,1941,1467,æ_S
1788787443.057361,2008,2274,æ_S
1788787443.059099,2069,2181,æ_S
1788787443.066119,2124,2114,æ_S
1788787443.066355,2071,1893,æ_S
1788787443.06786,2037,2074,æ_S
1788787443.070202,2146,2241,æ_S
1788787443.070766,2081,1732,æ_S
1788787443.073975,1982,1521,æ_S
1788787443.076871,1945,2060,æ_S
1788787443.08228,2094,2169,æ_S
1788787443.0828538,2127,2250,æ_S
1788787443.086539,2106,1887,æ_S
1788787443.087869,2071,1860,æ_S
1788787443.087968,2154,2346,æ_S
1788787443.088033,2094,1722,æ_S
1788787443.088099,1994,1648,æ_S
1788787443.089482,1934,1624,æ_S
1788787443.0909219,2081,2362,æ_S
1788787443.093633,2116,2257,æ_S
1788787443.095039,2132,2086,æ_S
1788787443.1040452,2035,1810,æ_S
1788787443.104819,2106,2076,æ_S
1788787443.108168,2223,1962,æ_S
1788787443.111435,2098,1731,æ_S
1788787443.113302,1861,1598,æ_S
1788787443.118229,1971,2391,æ_S
1788787443.118582,2051,2157,æ_S
1788787443.11936,2147,2174,æ_S
1788787443.119725,2051,1899,æ_S
1788787443.1200151,2084,2124,æ_S
1788787443.120537,2173,2261,æ_S
1788787443.120754,2092,1865,æ_S
1788787443.123208,1908,1693,æ_S
1788787443.1245,1900,2130,æ_S
1788787443.125911,2090,2216,æ_S
1788787443.127288,2182,2255,æ_S
1788787443.1332638,2102,2052,æ_S
1788787443.135102,2038,1969,æ_S
1788787443.137908,2155,2386,æ_S
1788787443.141126,2135,1890,æ_S
1788787443.142962,2009,1719,æ_S
1788787443.147475,1887,1761,æ_S
1788787443.1479082,2093,2401,æ_S
1788787443.148521,2152,2316,æ_S
1788787443.1489348,2100,2131,æ_S
1788787443.1495218,2023,1877,æ_S
1788787443.150013,2099,2154,æ_S
1788787443.153085,2123,2058,æ_S
1788787443.153514,2047,1895,æ_S
1788787443.1548858,1924,1622,æ_S
1788787443.1575391,1980,2325,æ_S
1788787443.159014,2099,2168,æ_S
1788787443.16758,2150,2191,æ_S
1788787443.1691751,2106,1994,æ_S
1788787443.169379,2057,2127,æ_S
1788787443.169555,2173,2271,æ_S
1788787443.170342,2086,1896,æ_S
1788787443.1734731,1973,1676,æ_S
1788787443.175429,1925,2150,æ_S
1788787443.177266,2046,2255,æ_S
1788787443.177508,2126,2274,æ_S
1788787443.1836128,2112,2029,æ_S
1788787443.1843982,2057,2015,æ_S
1788787443.184603,2127,2471,æ_S
1788787443.1850471,2082,1881,æ_S
1788787443.188722,2020,1782,æ_S
1788787443.188898,1918,1794,æ_S
1788787443.191715,2061,2414,æ_S
1788787443.198064,2110,2251,æ_S
1788787443.200775,2089,2176,æ_S
1788787443.2017431,2042,1879,æ_S
1788787443.204171,2085,2149,æ_S
1788787443.204597,2179,2058,æ_S
1788787443.205031,2080,1856,æ_S
1788787443.2052789,1954,1612,æ_S
1788787443.207686,2003,2324,æ_S
1788787443.2107189,2078,2178,æ_S
1788787443.216365,2134,2134,æ_S
1788787443.2166011,2110,1948,æ_S
1788787443.216952,2083,2194,æ_S
1788787443.217555,2107,2315,æ_S
1788787443.221765,2070,1851,æ_S
1788787443.2219079,1969,1671,æ_S
1788787443.2231019,2000,2158,æ_S
1788787443.225869,2056,2242,æ_S
1788787443.227026,2068,2345,æ_S
1788787443.230162,2112,2058,æ_S
1788787443.2381928,2095,1990,æ_S
1788787443.239836,2157,2412,æ_S
1788787443.2434828,2063,1925,æ_S
1788787443.248796,2058,1816,æ_S
1788787443.2539608,1937,1808,æ_S
1788787443.254553,2063,2396,æ_S
1788787443.2548091,2108,2337,æ_S
1788787443.255084,2123,2116,æ_S
1788787443.255546,2021,1953,æ_S
1788787443.255779,2114,2248,æ_S
1788787443.258165,2192,2078,æ_S
1788787443.259161,2060,1880,æ_S
1788787443.2597172,1925,1638,æ_S
1788787443.2599769,1990,2387,æ_S
1788787443.260139,2062,2200,æ_S
1788787443.2614882,2129,2174,æ_S
1788787443.2681322,2118,1960,æ_S
1788787443.269666,2079,2163,æ_S
1788787443.270472,2167,2256,æ_S
1788787443.273194,2075,1985,æ_S
1788787443.276937,1971,1734,æ_S
1788787443.279068,1972,2145,æ_S
1788787443.279243,2078,2167,æ_S
1788787443.284557,2140,2279,æ_S
1788787443.2850292,2082,2045,æ_S
1788787443.285299,2061,2061,æ_S
1788787443.2856672,2116,2465,æ_S
1788787443.286128,2086,1901,æ_S
1788787443.2906618,2036,1836,æ_S
1788787443.290745,1918,1761,æ_S
1788787443.290942,2082,2401,æ_S
1788787443.29364,2110,2432,æ_S
1788787443.294986,2147,2144,æ_S
1788787443.297601,2127,1905,æ_S
1788787443.299247,2145,2196,æ_S
1788787443.305994,2198,2053,æ_S
1788787443.307029,2032,1885,æ_S
1788787443.311027,1858,1684,æ_S
1788787443.3113852,1992,2300,æ_S
1788787443.314244,2065,2245,æ_S
1788787443.3152692,2126,2166,æ_S
1788787443.322734,2102,1976,æ_S
1788787443.3232992,2080,2172,æ_S
1788787443.323787,2142,2301,æ_S
1788787443.324251,2105,1950,æ_S
1788787443.324579,2017,1773,æ_S
1788787443.325341,1953,2222,æ_S
1788787443.328177,2065,2143,æ_S
1788787443.328369,2130,2274,æ_S
1788787443.329718,2126,2049,æ_S
1788787443.331095,2059,2033,æ_S
1788787443.3377972,2162,2456,æ_S
1788787443.3391879,2140,1953,æ_S
1788787443.34045,2043,1768,æ_S
1788787443.343477,1943,1817,æ_S
1788787443.3438349,2075,2424,æ_S
1788787443.344099,2097,2306,æ_S
1788787443.346598,2134,2128,æ_S
1788787443.3475862,2032,1946,æ_S
1788787443.35477,2089,2247,æ_S
1788787443.355299,2095,2053,æ_S
1788787443.355561,2006,1882,æ_S
1788787443.355795,1899,1666,æ_S
1788787443.360699,2014,2381,æ_S
1788787443.36079,2100,2201,æ_S
1788787443.360857,2148,2211,æ_S
1788787443.363327,2092,1981,æ_S
1788787443.3646998,2069,2134,æ_S
1788787443.367342,2177,2276,æ_S
1788787443.3688,2104,1938,æ_S
1788787443.378169,1986,1726,æ_S
1788787443.3791308,1940,2201,æ_S
1788787443.379411,2092,2139,æ_S
1788787443.381987,2134,2299,æ_S
1788787443.384715,2135,2075,æ_S
1788787443.392921,2021,2053,æ_S
1788787443.397113,2133,2436,æ_S
1788787443.397311,2121,1976,æ_S
1788787443.397425,2007,1827,æ_S
1788787443.39753,1872,1831,æ_S
1788787443.3976068,2027,2373,æ_S
1788787443.397682,2085,2288,æ_S
1788787443.397812,2109,2152,æ_S
1788787443.397936,2049,1919,æ_S
1788787443.3994932,2078,2226,æ_S
1788787443.406664,2155,2078,æ_S
1788787443.408277,2084,1886,æ_S
1788787443.411783,1912,1677,æ_S
1788787443.412251,1980,2388,æ_S
1788787443.414448,2061,2202,æ_S
1788787443.414782,2134,2170,æ_S
1788787443.4156532,2079,1980,æ_S
1788787443.421816,2072,2162,æ_S
1788787443.4257941,2170,2258,æ_S
1788787443.4260402,2082,1950,æ_S
1788787443.426193,1908,1801,æ_S
1788787443.4263282,1891,2191,æ_S
1788787443.42651,2041,2142,æ_S
1788787443.427995,2142,2280,æ_S
1788787443.429396,2119,2047,æ_S
1788787443.43075,2021,2053,æ_S
1788787443.4335291,2127,2401,æ_S
1788787443.4406002,2092,1959,æ_S
1788787443.4425411,2018,1868,æ_S
1788787443.443388,1911,1848,æ_S
1788787443.443706,2057,2413,æ_S
1788787443.445834,2102,2314,æ_S
1788787443.446214,2099,2158,æ_S
1788787443.44887,2007,1939,æ_S
1788787443.4506931,2060,2233,æ_S
1788787443.4509811,2140,2083,æ_S
1788787443.455625,2057,1844,æ_S
1788787443.455947,1918,1625,æ_S
1788787443.4600399,1986,2314,æ_S
1788787443.460242,2089,2210,æ_S
1788787443.461592,2129,2163,æ_S
1788787443.462949,2082,2018,æ_S
1788787443.470936,2085,2209,æ_S
1788787443.471722,2175,2291,æ_S
1788787443.4720309,2090,1945,æ_S
1788787443.4750788,1978,1776,æ_S
1788787443.47555,1958,2184,æ_S
1788787443.477708,2067,2170,æ_S
1788787443.479199,2129,2273,æ_S
1788787443.479476,2101,2056,æ_S
1788787443.4813938,2027,2049,æ_S
1788787443.4863,2128,2482,æ_S
1788787443.486729,2150,1929,æ_S
1788787443.4869142,2056,1817,æ_S
1788787443.491956,1917,1910,æ_S
1788787443.492059,2032,2361,æ_S
1788787443.493494,2104,2297,æ_S
1788787443.494912,2126,2128,æ_S
1788787443.497674,2088,1913,æ_S
1788787443.498834,2116,2195,æ_S
1788787443.5065012,2159,2058,æ_S
1788787443.507353,2003,1863,æ_S
1788787443.508147,1898,1650,æ_S
1788787443.512125,2017,2349,æ_S
1788787443.512588,2085,2230,æ_S
1788787443.5129442,2139,2192,æ_S
1788787443.515522,2100,1950,æ_S
1788787443.516526,2086,2208,æ_S
1788787443.5234308,2149,2319,æ_S
1788787443.52385,2094,1933,æ_S
1788787443.525007,1987,1768,æ_S
1788787443.5251598,1928,2214,æ_S
1788787443.525441,2058,2197,æ_S
1788787443.5291562,2137,2264,æ_S
1788787443.529482,2130,2039,æ_S
1788787443.530854,2088,2061,æ_S
1788787443.539242,2160,2455,æ_S
1788787443.5402932,2101,1968,æ_S
1788787443.541148,2003,1836,æ_S
1788787443.544308,1866,1869,æ_S
1788787443.544671,2032,2355,æ_S
1788787443.5449998,2129,2312,æ_S
1788787443.5452108,2153,2149,æ_S
1788787443.547703,2082,1922,æ_S
1788787443.550364,2101,2264,æ_S
1788787443.555386,2145,2074,æ_S
1788787443.555551,2033,1850,æ_S
1788787443.5562408,1922,1641,æ_S
1788787443.560695,2020,2352,æ_S
1788787443.5610418,2110,2207,æ_S
1788787443.561121,2138,2190,æ_S
1788787443.563859,2043,1980,æ_S
1788787443.5652218,2023,2187,æ_S
1788787443.566643,2119,2326,æ_S
1788787443.5696409,2104,1961,æ_S
1788787443.577425,2003,1710,æ_S
1788787443.5803,1948,2221,æ_S
1788787443.580874,2061,2180,æ_S
1788787443.583531,2165,2255,æ_S
1788787443.584509,2131,2070,æ_S
1788787443.586281,2081,2058,æ_S
1788787443.586595,2177,2448,æ_S
1788787443.591669,2137,1995,æ_S
1788787443.592428,2039,1813,æ_S
1788787443.595937,1915,1891,æ_S
1788787443.596318,2079,2411,æ_S
1788787443.596437,2113,2320,æ_S
1788787443.596566,2114,2124,æ_S
1788787443.596647,2064,1908,æ_S
1788787443.599317,2101,2248,æ_S
1788787443.606265,2150,2072,æ_S
1788787443.609109,2062,1872,æ_S
1788787443.6119099,1928,1668,æ_S
1788787443.612326,2039,2350,æ_S
1788787443.6127338,2119,2219,æ_S
1788787443.614389,2144,2182,æ_S
1788787443.6157591,2087,1965,æ_S
1788787443.616043,2069,2183,æ_S
1788787443.621867,2158,2293,æ_S
1788787443.622421,2082,1945,æ_S
1788787443.622865,1967,1765,æ_S
1788787443.623138,1939,2196,æ_S
1788787443.626518,2084,2181,æ_S
1788787443.6266031,2233,2258,æ_S
1788787443.62928,2173,2043,æ_S
1788787443.6306639,2022,2085,æ_S
1788787443.633339,2075,2467,æ_S
1788787443.642684,2064,1986,æ_S
1788787443.64552,2021,1873,æ_S
1788787443.650023,1985,1909,æ_S
1788787443.6547048,2066,2408,æ_S
1788787443.655196,2071,2325,æ_S
1788787443.6556458,2099,2121,æ_S
1788787443.656064,2043,1761,æ_S
1788787443.656629,2093,2209,æ_S
1788787443.660343,2152,2187,æ_S
1788787443.660804,2023,1918,æ_S
1788787443.660928,1933,1604,æ_S
1788787443.661013,1932,2278,æ_S
1788787443.6610858,1944,2304,æ_S
1788787443.661149,2098,2170,æ_S
1788787443.662536,2090,1949,æ_S
1788787443.669975,2082,2281,æ_S
1788787443.670905,2223,2373,æ_S
1788787443.671633,2156,1991,æ_S
1788787443.6750562,1986,1718,æ_S
1788787443.677772,1914,2261,æ_S
1788787443.680382,2043,2281,æ_S
1788787443.685017,2119,2132,æ_S
1788787443.6856918,2178,1874,æ_S
1788787443.6860821,2135,2280,æ_S
1788787443.686582,2301,2713,æ_S
1788787443.686904,2261,1727,æ_S
1788787443.690159,2017,1721,æ_S
1788787443.690549,1806,1779,æ_S
1788787443.6906261,2098,2246,æ_S
1788787443.693273,2088,2410,æ_S
1788787443.694634,1929,2174,æ_S
1788787443.6977,1975,1893,æ_S
1788787443.7032042,1998,2225,æ_S
1788787443.704782,2073,2064,æ_S
1788787443.705529,2030,1890,æ_S
1788787443.708947,1962,1713,æ_S
1788787443.709429,2034,2391,æ_S
1788787443.711212,2089,2305,æ_S
1788787443.7125812,2147,2347,æ_S
1788787443.712877,2123,1875,æ_S
1788787443.7150028,2074,1885,æ_S
1788787443.719577,2065,2282,æ_S
1788787443.7198532,2042,1983,æ_S
1788787443.7237608,1995,1776,æ_S
1788787443.724983,1992,2188,æ_S
1788787443.7250612,2051,2250,æ_S
1788787443.726499,2151,2165,æ_S
1788787443.73524,2371,2076,æ_S
1788787443.736728,2267,2135,æ_S
1788787443.73759,2052,2532,æ_S
