timestamp,ch1,ch2,label
1779264901.600645,2036,2193,3
1779264901.600692,2046,1975,3
1779264901.600725,2127,1686,3
1779264901.603392,2169,1759,3
1779264901.605721,2100,2068,3
1779264901.608198,2059,2119,3
1779264901.611047,2042,2017,3
1779264901.6111429,2059,2059,3
1779264901.613921,2020,2261,3
1779264901.6152651,2015,2076,3
1779264901.616624,2110,1748,3
1779264901.6204338,2190,1630,3
1779264901.6215732,2146,1957,3
1779264901.6251369,2090,2067,3
1779264901.625271,2074,2061,3
1779264901.6278899,2097,1912,3
1779264901.6292129,2038,2172,3
1779264901.63167,1991,2190,3
1779264901.632975,2070,1868,3
1779264901.635527,2184,1533,3
1779264901.636836,2159,1764,3
1779264901.6430569,2077,2011,3
1779264901.644442,2029,2085,3
1779264901.645788,2067,1930,3
1779264901.6471229,2064,2019,3
1779264901.64933,2017,2109,3
1779264901.649415,2028,1995,3
1779264901.650819,2068,1746,3
1779264901.653404,2151,1771,3
1779264901.654596,2096,2011,3
1779264901.657072,2051,2085,3
1779264901.662373,2061,1998,3
1779264901.664279,2093,1998,3
1779264901.6657228,2050,2190,3
1779264901.666246,2026,2074,3
1779264901.668194,2100,1782,3
1779264901.670314,2177,1680,3
1779264901.671648,2129,1942,3
1779264901.67304,2053,2085,3
1779264901.6756039,2017,2082,3
1779264901.676918,2068,1922,3
1779264901.682742,2008,2118,3
1779264901.6842508,1985,2119,3
1779264901.685487,2041,1883,3
1779264901.689284,2142,1660,3
1779264901.689591,2119,1829,3
1779264901.691664,2061,2075,3
1779264901.691762,2003,2184,3
1779264901.693125,2069,2006,3
1779264901.694746,2083,2061,3
1779264901.697356,2021,2197,3
1779264901.698679,2039,1994,3
1779264901.703572,2142,1687,3
1779264901.703927,2176,1762,3
1779264901.706628,2126,2113,3
1779264901.708846,2052,2150,3
1779264901.7091699,2051,2044,3
1779264901.711244,2072,2029,3
1779264901.7126231,2001,2261,3
1779264901.715314,1988,2139,3
1779264901.716785,2077,1856,3
1779264901.7193542,2164,1730,3
1779264901.72432,2132,2028,3
1779264901.7262468,2046,2133,3
1779264901.727992,2038,2078,3
1779264901.729056,2085,1970,3
1779264901.7302332,2039,2158,3
1779264901.731902,2007,2158,3
1779264901.7332082,2065,1863,3
1779264901.7345788,2152,1640,3
1779264901.737153,2153,1867,3
1779264901.739707,2056,2110,3
1779264901.747079,2023,2149,3
1779264901.74996,2049,2025,3
1779264901.75114,2073,2071,3
1779264901.751373,2014,2229,3
1779264901.7515671,2029,2060,3
1779264901.75178,2113,1822,3
1779264901.7538402,2158,1822,3
1779264901.755141,2090,2133,3
1779264901.757712,2043,2176,3
1779264901.759029,2050,2089,3
1779264901.767073,2068,2000,3
1779264901.767387,2019,2241,3
1779264901.7698932,2015,2144,3
1779264901.771328,2096,1809,3
1779264901.771517,2187,1666,3
1779264901.7717462,2136,1975,3
1779264901.7743979,2065,2141,3
1779264901.775708,2058,2109,3
1779264901.777028,2067,1985,3
1779264901.7800808,2023,2166,3
1779264901.7816708,1988,2213,3
1779264901.785604,2048,1988,3
1779264901.785826,2146,1697,3
1779264901.787637,2167,1833,3
1779264901.79024,2074,2080,3
1779264901.7916539,2031,2232,3
1779264901.793426,2062,2029,3
1779264901.7947268,2091,2087,3
1779264901.797674,2030,2177,3
1779264901.798984,2021,2016,3
1779264901.8012931,2104,1727,3
1779264901.806119,2152,1752,3
1779264901.806769,2090,2020,3
1779264901.808304,2066,2115,3
1779264901.812066,2076,2044,3
1779264901.812233,2084,1972,3
1779264901.814382,2039,2209,3
1779264901.816181,2024,2173,3
1779264901.817523,2098,1870,3
1779264901.818829,2173,1688,3
1779264901.821412,2136,1995,3
1779264901.82709,2022,2167,3
1779264901.8279512,2034,2107,3
1779264901.8294342,2075,1970,3
1779264901.8312619,2040,2178,3
1779264901.832465,2024,2223,3
1779264901.835855,2076,1982,3
1779264901.8359838,2180,1708,3
1779264901.837286,2192,1934,3
1779264901.838599,2120,2158,3
1779264901.841161,2042,2233,3
1779264901.858689,2056,2042,3
1779264901.858735,2052,2103,3
1779264901.8587708,2003,2194,3
1779264901.8588061,2040,2071,3
1779264901.85884,2143,1820,3
1779264901.858874,2182,1802,3
1779264901.8589098,2110,2087,3
1779264901.858943,2029,2174,3
1779264901.858977,2044,2124,3
1779264901.864039,2093,2060,3
1779264901.902881,2049,2209,3
1779264901.9030652,2012,2109,3
1779264901.903105,2099,1850,3
1779264901.9031749,2184,1671,3
1779264901.903211,2142,1939,3
1779264901.9032462,2074,2102,3
1779264901.90328,2058,2075,3
1779264901.9033139,2123,1969,3
1779264901.903348,2087,2088,3
1779264901.903382,2028,2120,3
1779264901.9034162,2069,1883,3
1779264901.903449,2170,1638,3
1779264901.9034822,2184,1799,3
1779264901.903636,2078,1991,3
1779264901.90396,2041,2116,3
1779264901.904032,2087,1998,3
1779264901.904098,2086,2046,3
1779264901.90416,2005,2190,3
1779264901.9042199,1999,2031,3
1779264901.9043531,2105,1772,3
1779264901.90448,2201,1741,3
1779264901.904551,2134,2006,3
1779264901.9109929,2083,2072,3
1779264901.919584,2071,1994,3
1779264901.9197161,2093,1900,3
1779264901.9197912,2044,2125,3
1779264901.919987,2025,2084,3
1779264901.920079,2135,1807,3
1779264901.920128,2240,1643,3
1779264901.921707,2204,1953,3
1779264901.923163,2100,2123,3
1779264901.924514,2063,2136,3
1779264901.9367082,2097,1944,3
1779264901.937315,2103,2120,3
1779264901.9373891,2045,2106,3
1779264901.937432,2079,1894,3
1779264901.940063,2179,1628,3
1779264901.9401898,2159,1809,3
1779264901.940316,2080,2054,3
1779264901.9419048,2052,2105,3
1779264901.943295,2087,2032,3
1779264901.944664,2120,2081,3
1779264901.951662,2048,2142,3
1779264901.955101,2044,1996,3
1779264901.9556448,2143,1759,3
1779264901.958509,2198,1715,3
1779264901.958722,2159,1996,3
1779264901.959083,2086,2101,3
1779264901.9592981,2056,2031,3
1779264901.961924,2128,1962,3
1779264901.963252,2081,2205,3
1779264901.964653,2071,2119,3
1779264901.971241,2125,1842,3
1779264901.972196,2209,1682,3
1779264901.97412,2152,1919,3
1779264901.975717,2073,2080,3
1779264901.977379,2031,2062,3
1779264901.977534,2084,1932,3
1779264901.9792068,2080,2083,3
1779264901.981664,2045,2102,3
1779264901.983074,2079,1883,3
1779264901.984521,2196,1628,3
1779264901.9871511,2195,1795,3
1779264901.990876,2124,2019,3
1779264901.991442,2093,2091,3
1779264901.993771,2110,1938,3
1779264901.995428,2096,1993,3
1779264901.998695,2060,2127,3
1779264901.998935,2064,2013,3
1779264902.0012422,2169,1712,3
1779264902.0025868,2226,1682,3
1779264902.005156,2148,1928,3
1779264902.006475,2074,2063,3
1779264902.012188,2086,1969,3
1779264902.015767,2139,1867,3
1779264902.017909,2063,2088,3
1779264902.018066,2013,2042,3
1779264902.018265,2089,1759,3
1779264902.020066,2183,1594,3
1779264902.0224252,2172,1823,3
1779264902.0226822,2094,2002,3
1779264902.025263,2034,2002,3
1779264902.026582,2086,1937,3
1779264902.032056,2077,2069,3
1779264902.032844,2041,2063,3
1779264902.033377,2086,1922,3
1779264902.0348952,2133,1670,3
1779264902.038115,2155,1771,3
1779264902.039863,2109,2071,3
1779264902.042263,2116,2103,3
1779264902.04369,2131,1960,3
1779264902.044996,2130,2041,3
1779264902.047575,2056,2180,3
1779264902.052174,2062,2029,3
1779264902.053087,2162,1739,3
1779264902.055178,2226,1765,3
1779264902.055321,2158,2012,3
1779264902.058563,2059,2088,3
1779264902.060176,2049,2018,3
1779264902.062693,2105,1974,3
1779264902.062761,2052,2150,3
1779264902.065255,2047,2079,3
1779264902.066666,2115,1738,3
1779264902.072445,2223,1630,3
1779264902.0736692,2156,1846,3
1779264902.075685,2079,2115,3
1779264902.075847,2066,2167,3
1779264902.077873,2095,1935,3
1779264902.0837069,2057,2079,3
1779264902.083759,2022,2072,3
1779264902.0838761,2128,1697,3
1779264902.085185,2257,1575,3
1779264902.086487,2161,2005,3
1779264902.093738,2134,2074,3
1779264902.094211,2125,2039,3
1779264902.095636,2137,1855,3
1779264902.095917,2118,1986,3
1779264902.100481,2035,2259,3
1779264902.1007009,2048,2036,3
1779264902.100867,2086,1830,3
1779264902.103252,2226,1656,3
1779264902.104576,2210,1746,3
1779264902.107136,2094,2107,3
1779264902.1084402,2093,2045,3
1779264902.112504,2162,1956,3
1779264902.112983,2039,2242,3
1779264902.1153421,2029,2049,3
1779264902.116844,2101,1854,3
1779264902.119884,2222,1667,3
1779264902.1220968,2223,1989,3
1779264902.123415,2114,2113,3
1779264902.124725,2118,2130,3
1779264902.127286,2154,1917,3
1779264902.128594,2167,2042,3
1779264902.1328928,2071,2069,3
1779264902.133655,2119,1896,3
1779264902.135591,2210,1739,3
1779264902.1383,2242,1791,3
1779264902.139918,2150,2048,3
1779264902.142406,2052,2114,3
1779264902.142449,2054,2027,3
1779264902.1452138,2067,1935,3
1779264902.146707,2056,2092,3
1779264902.1492538,2089,2202,3
1779264902.157386,2171,1832,3
1779264902.160635,2214,1826,3
1779264902.16496,2175,2096,3
1779264902.16507,2089,2171,3
1779264902.1651452,2088,2157,3
1779264902.165282,2146,2045,3
1779264902.165395,2096,2253,3
1779264902.165525,2059,2149,3
1779264902.166893,2126,1877,3
1779264902.169735,2199,1688,3
1779264902.175338,2116,1763,3
1779264902.1772559,2069,2143,3
1779264902.180647,2029,2106,3
1779264902.182889,2083,1952,3
1779264902.1834629,2081,2091,3
1779264902.183916,2008,2218,3
1779264902.186661,2059,2028,3
1779264902.18675,2191,1742,3
1779264902.186823,2180,1842,3
1779264902.190617,2110,2127,3
1779264902.1906729,2077,2226,3
1779264902.1987112,2102,2139,3
1779264902.200824,2126,2092,3
1779264902.204611,2055,2206,3
1779264902.207268,2046,2104,3
1779264902.2076101,2119,1850,3
1779264902.207691,2249,1737,3
1779264902.207817,2160,1987,3
1779264902.207892,2077,2132,3
1779264902.209392,2039,2115,3
1779264902.21089,2072,2005,3
1779264902.218046,2051,2224,3
1779264902.2202911,2046,2203,3
1779264902.222208,2115,1967,3
1779264902.2242072,2246,1752,3
1779264902.226681,2205,2025,3
1779264902.2274802,2115,2227,3
1779264902.2300391,2105,2145,3
1779264902.230175,2132,1901,3
1779264902.2303429,2101,2108,3
1779264902.230447,2117,2155,3
1779264902.233139,2148,2052,3
1779264902.234487,2235,1737,3
1779264902.2418509,2226,1840,3
1779264902.2437341,2159,2058,3
1779264902.2456908,2114,2140,3
1779264902.248096,2141,2135,3
1779264902.250773,2143,2099,3
1779264902.251071,2046,2193,3
1779264902.2512078,2071,2069,3
1779264902.251285,2151,1813,3
1779264902.252647,2229,1800,3
1779264902.255498,2159,2086,3
1779264902.261295,2100,2150,3
1779264902.264912,2119,2090,3
1779264902.269094,2174,1963,3
1779264902.2698119,2111,2192,3
1779264902.2718499,2108,2218,3
1779264902.272661,2138,1987,3
1779264902.2727969,2232,1763,3
1779264902.272906,2189,1951,3
1779264902.273035,2114,2114,3
1779264902.274487,2097,2135,3
1779264902.277122,2170,2047,3
1779264902.281722,2154,2192,3
1779264902.2830179,2086,2220,3
1779264902.284118,2109,2011,3
1779264902.288783,2213,1822,3
1779264902.2913542,2226,1959,3
1779264902.291785,2130,2166,3
1779264902.292244,2110,2286,3
1779264902.294707,2160,2152,3
1779264902.2949948,2185,2213,3
1779264902.296382,2137,2348,3
1779264902.2988758,2161,2222,3
1779264902.3055732,2239,1925,3
1779264902.308855,2365,1808,3
1779264902.310826,2317,2111,3
1779264902.3135738,2177,2138,3
1779264902.3164039,2187,2083,3
1779264902.3165052,2228,1976,3
1779264902.316582,2168,2171,3
1779264902.316693,2131,2062,3
1779264902.316768,2239,1790,3
1779264902.319417,2354,1545,3
1779264902.320836,2296,1766,3
1779264902.334224,2192,1987,3
1779264902.334626,2181,1968,3
1779264902.335093,2250,1805,3
1779264902.335694,2245,1819,3
1779264902.336282,2184,1969,3
1779264902.3388832,2249,1829,3
1779264902.338965,2427,1518,3
1779264902.339056,2450,1619,3
1779264902.339232,2342,1811,3
1779264902.34064,2266,1933,3
1779264902.3432782,2308,1769,3
1779264902.3501341,2327,1702,3
1779264902.35253,2232,1841,3
1779264902.353087,2228,1711,3
1779264902.35502,2372,1478,3
1779264902.355996,2517,1289,3
1779264902.3577092,2485,1438,3
1779264902.36042,2353,1525,3
1779264902.3609211,2308,1545,3
1779264902.361709,2429,1504,3
1779264902.364461,2448,1683,3
1779264902.364544,2356,1540,3
1779264902.372022,2373,1321,3
1779264902.37443,2402,1127,3
1779264902.374836,2400,1345,3
1779264902.378651,2363,1556,3
1779264902.381355,2382,1642,3
1779264902.381912,2406,1529,3
1779264902.3824499,2396,1450,3
1779264902.382814,2338,1469,3
1779264902.38553,2363,1288,3
1779264902.385654,2547,1115,3
1779264902.387091,2564,1247,3
1779264902.388469,2534,1460,3
1779264902.396941,2386,1428,3
1779264902.39955,2411,1278,3
1779264902.4020941,2481,1418,3
1779264902.406477,2393,1768,3
1779264902.4071019,2496,1490,3
1779264902.4099169,2513,1115,3
1779264902.41002,2539,1066,3
1779264902.410099,2450,1439,3
1779264902.410184,2404,1420,3
1779264902.410304,2333,1314,3
1779264902.410418,2528,1262,3
1779264902.42296,2407,1464,3
1779264902.42573,2297,1432,3
1779264902.426381,2409,1222,3
1779264902.429494,2539,1002,3
1779264902.429834,2540,1388,3
1779264902.429941,2547,1606,3
1779264902.430043,2378,1574,3
1779264902.43018,2395,1426,3
1779264902.430279,2459,1447,3
1779264902.430345,2437,1610,3
1779264902.4330199,2425,1385,3
1779264902.4344,2496,1098,3
1779264902.4429371,2386,1093,3
1779264902.449018,2390,1499,3
1779264902.4525702,2386,1647,3
1779264902.452683,2374,1568,3
1779264902.452799,2325,1424,3
1779264902.452877,2393,1594,3
1779264902.452957,2330,1453,3
1779264902.453022,2448,1273,3
1779264902.453111,2539,1204,3
1779264902.4545012,2498,1495,3
1779264902.457228,2465,1696,3
1779264902.465805,2384,1632,3
1779264902.4674208,2405,1520,3
1779264902.472825,2362,1798,3
1779264902.4734201,2306,1670,3
1779264902.473995,2380,1442,3
1779264902.476644,2418,1284,3
1779264902.476932,2424,1587,3
1779264902.4770072,2338,1654,3
1779264902.47707,2272,1550,3
1779264902.47715,2306,1546,3
1779264902.478545,2335,1741,3
1779264902.487058,2239,1956,3
1779264902.4892778,2292,1536,3
1779264902.4942982,2438,1372,3
1779264902.495109,2421,1606,3
1779264902.497705,2346,1849,3
1779264902.498037,2204,1693,3
1779264902.4982169,2244,1511,3
1779264902.4983318,2353,1749,3
1779264902.49843,2187,2350,3
1779264902.4985201,2231,2041,3
1779264902.501285,2418,1566,3
1779264902.502516,2478,1448,3
1779264902.509619,2201,2185,3
1779264902.513268,2165,2267,3
1779264902.5179799,2298,2125,3
1779264902.5186691,2356,1949,3
1779264902.520967,2285,2145,3
1779264902.521914,2190,2218,3
1779264902.522014,2158,2180,3
1779264902.522107,2252,1952,3
1779264902.522251,2319,2270,3
1779264902.522316,2163,2461,3
1779264902.531478,2182,2565,3
1779264902.538264,2238,2250,3
1779264902.5386822,2257,2675,3
1779264902.539378,2068,2936,3
1779264902.53969,2188,2508,3
1779264902.539954,2255,2156,3
1779264902.540341,2268,2007,3
1779264902.54302,2124,2218,3
1779264902.543103,2058,2534,3
1779264902.543208,2146,2532,3
1779264902.5445719,2138,2474,3
1779264902.547235,2086,2658,3
1779264902.552568,2002,2615,3
1779264902.5561442,2077,2450,3
1779264902.556719,2209,2403,3
1779264902.563029,2175,2855,3
1779264902.563543,2089,2560,3
1779264902.564159,2131,2453,3
1779264902.56477,2161,2674,3
1779264902.566943,2057,2908,3
1779264902.567845,1981,2526,3
1779264902.5679219,2065,2427,3
1779264902.5692768,2227,2242,3
1779264902.577427,2189,2350,3
1779264902.577732,2003,2504,3
1779264902.5781279,1953,2739,3
1779264902.5850399,2045,2615,3
1779264902.58588,1992,2398,3
1779264902.586255,1953,2578,3
1779264902.588883,2016,2347,3
1779264902.589278,2114,2071,3
1779264902.589418,2109,2220,3
1779264902.5894752,2105,2584,3
1779264902.59087,1980,2298,3
1779264902.593278,1903,2270,3
1779264902.59479,1975,2490,3
1779264902.601356,1911,2821,3
1779264902.6035058,1876,2807,3
1779264902.605312,1964,2397,3
1779264902.608274,2148,2192,3
1779264902.611925,2040,2425,3
1779264902.612406,1861,2705,3
1779264902.612873,1938,2821,3
1779264902.613476,2076,2567,3
1779264902.6168818,2052,2724,3
1779264902.617046,1967,2724,3
1779264902.6171808,1940,2556,3
1779264902.618529,1993,2378,3
1779264902.6258008,2124,2527,3
1779264902.62875,2036,2555,3
1779264902.6307771,2013,2662,3
1779264902.631586,1974,2568,3
1779264902.6335151,1800,2568,3
1779264902.637017,1812,2634,3
1779264902.6377559,1815,2431,3
1779264902.638525,2021,2286,3
1779264902.639083,2090,2269,3
1779264902.641353,1992,2586,3
1779264902.642356,1815,2763,3
1779264902.642764,1789,2591,3
1779264902.645489,1963,2582,3
1779264902.646913,1962,2758,3
1779264902.648309,1885,2620,3
1779264902.657801,1966,2331,3
1779264902.6607869,2002,2229,3
1779264902.662669,1790,2427,3
1779264902.666539,1815,2576,3
1779264902.666997,1853,2614,3
1779264902.669659,1959,2631,3
1779264902.670615,1768,2728,3
1779264902.670787,1694,2496,3
1779264902.6709042,1764,2326,3
1779264902.671019,1881,2051,3
1779264902.671158,1887,2425,3
1779264902.6725109,2012,2458,3
1779264902.681539,2116,2949,3
1779264902.681986,2090,2312,3
1779264902.686524,2011,2231,3
1779264902.690368,1981,2725,3
1779264902.690788,2037,2481,3
1779264902.691298,2143,2346,3
1779264902.6920938,2098,2485,3
1779264902.694829,1912,2459,3
1779264902.695137,1738,2424,3
1779264902.695311,1674,2200,3
1779264902.695387,1692,2237,3
1779264902.696793,1437,2794,3
1779264902.6981602,1308,2481,3
1779264902.7007868,1714,2154,3
1779264902.7075908,2197,1926,3
1779264902.712196,2095,2138,3
1779264902.714572,1960,2502,3
1779264902.718453,1946,2347,3
1779264902.719132,1976,2476,3
1779264902.719796,2098,2532,3
1779264902.723109,1839,2506,3
1779264902.723253,1855,2386,3
1779264902.723378,1990,2102,3
1779264902.7235048,1881,1858,3
1779264902.723628,1791,2551,3
1779264902.725,1803,2581,3
1779264902.732235,1839,2601,3
1779264902.7347991,1680,2499,3
1779264902.735287,1933,2572,3
1779264902.739691,2141,2450,3
1779264902.7435699,2203,2302,3
1779264902.744357,1960,2313,3
1779264902.747709,1774,2490,3
1779264902.747827,1806,2419,3
1779264902.7484329,1719,2276,3
1779264902.7485352,1921,2111,3
1779264902.7500212,1844,2356,3
1779264902.7500942,1767,2370,3
1779264902.750149,1823,2209,3
1779264902.752882,2010,1867,3
1779264902.759538,2045,2241,3
1779264902.765454,1818,2354,3
1779264902.771083,1931,2640,3
1779264902.7715368,2181,2598,3
1779264902.774559,2120,2436,3
1779264902.774667,1937,2350,3
1779264902.7747421,1562,2263,3
1779264902.774884,1655,1763,3
1779264902.774944,1910,2182,3
1779264902.774994,2066,2663,3
1779264902.775112,2074,2504,3
1779264902.776546,2087,2314,3
1779264902.787007,2073,2266,3
1779264902.7926269,2076,2355,3
1779264902.793279,2010,2267,3
1779264902.793993,2173,1783,3
1779264902.7973728,2111,1827,3
1779264902.7975008,1831,2068,3
1779264902.797559,1748,2232,3
1779264902.797611,1733,2375,3
1779264902.797663,1814,2230,3
1779264902.797714,1830,2258,3
1779264902.799104,1894,2107,3
1779264902.80111,1955,2001,3
1779264902.80285,2079,1929,3
1779264902.825665,1891,2150,3
1779264902.826792,1779,2222,3
1779264902.827015,1816,2348,3
1779264902.827083,1839,1974,3
1779264902.8272362,1779,2489,3
1779264902.8273711,1747,2384,3
1779264902.827478,1921,2169,3
1779264902.82772,2180,1890,3
1779264902.827976,2220,1796,3
1779264902.828267,2127,2228,3
1779264902.828635,1993,2260,3
1779264902.8286872,1952,1975,3
1779264902.829103,1978,2094,3
1779264902.848717,1955,2254,3
1779264902.849351,1957,2067,3
1779264902.8495948,2008,1818,3
1779264902.849751,2054,1983,3
1779264902.849823,2028,2371,3
1779264902.850137,1869,2189,3
1779264902.8502111,1855,2070,3
1779264902.850275,1902,2109,3
1779264902.850347,1899,2406,3
1779264902.8504121,1906,2270,3
1779264902.850473,1884,2067,3
1779264902.853157,1999,1796,3
1779264902.8549309,1968,2058,3
1779264902.8639622,1952,2303,3
1779264902.868663,1981,2202,3
1779264902.8725781,1986,2076,3
1779264902.8732932,1983,2153,3
1779264902.876381,2001,2229,3
1779264902.876478,1991,2071,3
1779264902.876553,1991,1700,3
1779264902.876689,1996,1965,3
1779264902.876838,1881,2134,3
1779264902.87691,1856,2343,3
1779264902.8769732,1906,1896,3
1779264902.87841,1944,2167,3
1779264902.88546,1949,2403,3
1779264902.888011,1961,1915,3
1779264902.8904781,2086,1723,3
1779264902.89286,2049,2062,3
1779264902.896859,2101,2524,3
1779264902.897641,2018,2183,3
1779264902.900543,1959,1724,3
1779264902.901912,1907,1951,3
1779264902.9019918,1871,2128,3
1779264902.902229,1776,2008,3
1779264902.902396,1901,1512,3
1779264902.9025102,2046,1843,3
1779264902.905233,2190,1882,3
1779264902.906692,2119,1937,3
1779264902.908114,2073,2100,3
1779264902.918082,2033,1996,3
1779264902.918381,1992,2230,3
1779264902.9188778,1918,2292,3
1779264902.919132,1890,1926,3
1779264902.923519,1937,1623,3
1779264902.927478,1907,1787,3
1779264902.928096,1844,2001,3
1779264902.928523,1790,1953,3
1779264902.928834,1836,2029,3
1779264902.929335,2018,2226,3
1779264902.932492,2076,2247,3
1779264902.932589,2026,1962,3
1779264902.9352,2108,1711,3
1779264902.9421299,2271,1731,3
1779264902.946348,2187,1857,3
1779264902.9524622,2030,2204,3
1779264902.955735,2059,2060,3
1779264902.956075,2082,1943,3
1779264902.956206,2030,2084,3
1779264902.9563048,2016,1979,3
1779264902.956388,2051,1756,3
1779264902.9565141,2152,1668,3
1779264902.956586,2081,1651,3
1779264902.95665,1956,2145,3
1779264902.959307,1790,2065,3
1779264902.960703,1873,1866,3
1779264902.962193,1836,1908,3
1779264902.969547,1893,1988,3
1779264902.971904,1964,1876,3
1779264902.974062,2046,1593,3
1779264902.9763892,2053,1811,3
1779264902.980327,2013,2028,3
1779264902.981184,2006,2166,3
1779264902.9817228,2079,1813,3
1779264902.9820402,1958,1953,3
1779264902.9847481,1883,2006,3
1779264902.985673,1995,1944,3
1779264902.985753,2105,1673,3
1779264902.986929,2229,1957,3
1779264902.988412,2144,2262,3
1779264902.9950778,2090,1783,3
1779264902.999406,1991,1763,3
1779264903.001663,2001,2084,3
1779264903.005428,1938,1922,3
1779264903.005973,1765,1753,3
1779264903.006401,2032,1594,3
1779264903.007076,2190,1620,3
1779264903.009578,2131,1929,3
1779264903.010546,2056,1872,3
1779264903.010696,2053,1969,3
1779264903.010773,2100,1880,3
1779264903.012463,2051,1956,3
1779264903.0151591,1935,2007,3
1779264903.017447,1966,1932,3
1779264903.024674,2106,1470,3
1779264903.026898,2140,1415,3
1779264903.0290828,1997,2180,3
1779264903.0354319,1920,2053,3
1779264903.0361228,1964,1748,3
1779264903.036551,2061,1857,3
1779264903.03706,1974,2069,3
1779264903.039989,1969,1957,3
1779264903.0403771,2055,1715,3
1779264903.040459,2101,1702,3
1779264903.04059,2061,1846,3
1779264903.040673,1996,1990,3
1779264903.042057,2021,1996,3
1779264903.051465,2105,2003,3
1779264903.053806,2087,2124,3
1779264903.059575,1983,2072,3
1779264903.060065,2060,1903,3
1779264903.0606852,2100,1628,3
1779264903.064151,2066,1872,3
1779264903.06454,1881,2041,3
1779264903.064657,1887,1876,3
1779264903.06477,1923,1941,3
1779264903.064883,1999,1744,3
1779264903.065086,2020,1914,3
1779264903.06651,2027,2046,3
1779264903.068137,2044,1602,3
1779264903.07687,2045,1708,3
1779264903.081548,2012,1999,3
1779264903.084351,1909,2139,3
1779264903.088885,2025,1663,3
1779264903.0929449,2104,2330,3
1779264903.0930529,2106,2333,3
1779264903.0931299,2034,1865,3
1779264903.0932,2138,1808,3
1779264903.0932631,2261,1834,3
1779264903.093323,2128,1992,3
1779264903.093382,2022,2030,3
1779264903.093442,2059,1997,3
1779264903.0948758,2060,1996,3
1779264903.1084769,1955,2067,3
1779264903.117742,1880,1825,3
1779264903.1181529,2022,1966,3
1779264903.1184142,2222,1877,3
1779264903.11855,2162,1902,3
1779264903.118646,2029,2070,3
1779264903.118701,1952,2141,3
1779264903.118752,2010,2103,3
1779264903.118807,1983,2055,3
1779264903.11886,1925,2272,3
1779264903.118912,1947,1961,3
1779264903.118968,1979,1666,3
1779264903.120342,2042,1842,3
1779264903.123051,2039,2183,3
1779264903.1305752,2103,2101,3
1779264903.1336389,2040,2031,3
1779264903.138305,1994,2104,3
1779264903.145608,1947,2253,3
1779264903.1457112,2086,2254,3
1779264903.145783,2120,2087,3
1779264903.145845,2127,1530,3
1779264903.1459079,2069,1972,3
1779264903.1459699,1928,2183,3
1779264903.1460302,2019,1911,3
1779264903.146089,2070,1930,3
1779264903.1461482,1967,2242,3
1779264903.157325,1920,2150,3
1779264903.158036,2060,1888,3
1779264903.1661062,2300,1702,3
1779264903.169728,2241,1956,3
1779264903.1698291,2069,2241,3
1779264903.16996,2014,2154,3
1779264903.170069,2064,1966,3
1779264903.170153,2105,2284,3
1779264903.170218,1998,1915,3
1779264903.170279,1994,1959,3
1779264903.170339,2055,1897,3
1779264903.170399,2114,1747,3
1779264903.173141,1979,2084,3
1779264903.174849,1951,2153,3
1779264903.1764271,1962,1996,3
1779264903.1954072,1986,1988,3
1779264903.195798,1967,2238,3
1779264903.1958559,1979,1961,3
1779264903.195908,1951,1715,3
1779264903.19596,2042,1744,3
1779264903.19611,2085,1901,3
1779264903.196266,1979,2237,3
1779264903.19632,1960,2153,3
1779264903.19637,2068,1838,3
1779264903.196525,2111,2130,3
1779264903.215744,2024,2082,3
1779264903.2188,1934,1886,3
1779264903.219989,2043,1697,3
1779264903.220083,2191,1831,3
1779264903.220151,2173,2171,3
1779264903.2202141,2097,2179,3
1779264903.220345,1985,2014,3
1779264903.220526,1948,2054,3
1779264903.220643,1957,2108,3
1779264903.220756,2071,1905,3
1779264903.220822,2190,1775,3
1779264903.220886,2165,2008,3
1779264903.222312,2037,2177,3
1779264903.224941,1952,2115,3
1779264903.2261262,1998,1914,3
1779264903.236007,2059,2135,3
1779264903.239187,2023,2235,3
1779264903.245033,1989,2102,3
1779264903.245837,2017,1896,3
1779264903.2489789,2106,1865,3
1779264903.2493,2000,1993,3
1779264903.249426,1955,2117,3
1779264903.249512,1950,1753,3
1779264903.249579,2046,2461,3
1779264903.24964,1954,2493,3
1779264903.249699,1870,2090,3
1779264903.251072,2038,1898,3
1779264903.25861,2149,1768,3
1779264903.265825,2112,1986,3
1779264903.269705,2050,2155,3
1779264903.270468,2073,2018,3
1779264903.2734132,2200,1851,3
1779264903.274629,2142,2037,3
1779264903.274745,2007,2201,3
1779264903.274921,2040,2100,3
1779264903.27506,2122,1845,3
1779264903.2751381,2093,1826,3
1779264903.2752068,1947,2105,3
1779264903.275275,1838,2261,3
1779264903.276628,1928,2011,3
1779264903.278024,2039,1984,3
1779264903.290752,1945,2114,3
1779264903.296107,1948,2119,3
1779264903.299883,2085,1937,3
1779264903.300385,2200,1711,3
1779264903.300684,2145,1971,3
1779264903.301205,2105,2206,3
1779264903.301827,1965,2028,3
1779264903.305099,2021,1902,3
1779264903.30516,1966,1971,3
1779264903.305266,1996,1951,3
1779264903.3053172,2058,1818,3
1779264903.305366,2153,1725,3
1779264903.306079,2079,1767,3
1779264903.306131,1983,2199,3
1779264903.312465,1985,2150,3
1779264903.314433,2007,2098,3
1779264903.317667,1938,2140,3
1779264903.320129,1852,2175,3
1779264903.3210502,1916,2083,3
1779264903.321287,2065,1943,3
1779264903.3230379,2155,1927,3
1779264903.327641,2116,2174,3
1779264903.328232,2066,2271,3
1779264903.3319612,2010,2159,3
1779264903.332067,2043,2139,3
1779264903.332142,2024,2302,3
1779264903.332237,2001,2120,3
1779264903.334903,1994,1999,3
1779264903.336264,2082,1935,3
1779264903.344447,2022,2209,3
1779264903.345048,1972,2244,3
1779264903.3476381,1954,2176,3
1779264903.352468,1986,2165,3
1779264903.3563871,1961,2324,3
1779264903.35686,1950,2308,3
1779264903.359353,2026,2116,3
1779264903.360675,2131,2056,3
1779264903.360894,2120,2185,3
1779264903.3610618,1986,2206,3
1779264903.361307,1977,2350,3
1779264903.361425,2032,2179,3
1779264903.363188,2026,2304,3
1779264903.3694599,1979,2350,3
1779264903.37073,2006,2217,3
1779264903.3726232,2079,1962,3
1779264903.3729112,2087,1975,3
1779264903.3755069,1998,2294,3
1779264903.380641,1932,2273,3
1779264903.381227,1964,2173,3
1779264903.381532,2018,2121,3
1779264903.381715,1955,2269,3
1779264903.384783,1930,2160,3
1779264903.3848891,2009,2050,3
1779264903.386256,2120,2072,3
1779264903.388855,2071,2255,3
1779264903.390188,1941,2347,3
1779264903.401521,1921,2328,3
1779264903.408042,1993,2242,3
1779264903.412446,1963,2351,3
1779264903.4125729,1926,2336,3
1779264903.412695,1975,2065,3
1779264903.4127622,2081,1921,3
1779264903.41284,2079,2167,3
1779264903.4129019,2004,2354,3
1779264903.4134212,1937,2504,3
1779264903.413623,2021,2316,3
1779264903.418848,2020,2273,3
1779264903.4281201,1932,2319,3
1779264903.435194,1952,2109,3
1779264903.435358,2039,2013,3
1779264903.4354482,2089,2020,3
1779264903.4355829,2003,2187,3
1779264903.43564,1962,2280,3
1779264903.435691,1938,2222,3
1779264903.435783,1971,2191,3
1779264903.435911,1915,2375,3
1779264903.436139,1896,2263,3
1779264903.436406,1983,2052,3
1779264903.436671,2099,2166,3
1779264903.43816,2054,2190,3
1779264903.441138,1976,2411,3
1779264903.448895,1942,2294,3
1779264903.452662,1965,2185,3
1779264903.46485,1940,2363,3
1779264903.465367,1929,2368,3
1779264903.4655411,1990,2186,3
1779264903.466131,2080,2047,3
1779264903.46671,2056,2169,3
1779264903.466917,1941,2313,3
1779264903.467051,1928,2396,3
1779264903.467486,2002,2293,3
1779264903.478314,1947,2117,3
1779264903.486573,1879,2022,3
1779264903.490133,1894,2076,3
1779264903.4902039,1990,2150,3
1779264903.490329,2030,2025,3
1779264903.4903822,1980,2121,3
1779264903.490432,1930,2203,3
1779264903.4910238,1996,2022,3
1779264903.492099,2047,1775,3
1779264903.49248,1935,2146,3
1779264903.4925451,1863,2074,3
1779264903.492619,1986,1792,3
1779264903.492739,2107,1551,3
1779264903.492824,2032,1755,3
1779264903.4928892,1920,1854,3
1779264903.4929512,1833,1939,3
1779264903.494384,1900,1957,3
1779264903.496107,1939,2074,3
1779264903.515319,1841,2058,3
1779264903.516573,1932,1796,3
1779264903.517023,2052,1797,3
1779264903.5171509,2018,1920,3
1779264903.51727,1944,2066,3
1779264903.5174038,1839,2130,3
1779264903.5175538,1888,2026,3
1779264903.517607,1870,2086,3
1779264903.5176792,1939,1963,3
1779264903.517765,1966,1976,3
1779264903.517977,2008,1766,3
1779264903.5351858,2036,1871,3
1779264903.539094,2029,2221,3
1779264903.539176,1975,2234,3
1779264903.539232,1938,1928,3
1779264903.53938,1903,1820,3
1779264903.5395331,1889,1895,3
1779264903.5399349,1877,1804,3
1779264903.540001,1897,1712,3
1779264903.540053,2013,1876,3
1779264903.540103,1955,2153,3
1779264903.540152,1934,1994,3
1779264903.543068,1974,1897,3
1779264903.544609,1948,1939,3
1779264903.5460858,1935,1870,3
1779264903.5532951,1875,1719,3
1779264903.563189,1915,1818,3
1779264903.563644,2029,1962,3
1779264903.566945,2037,1788,3
1779264903.56715,1981,1860,3
1779264903.56725,1940,1720,3
1779264903.5673192,1915,1636,3
1779264903.567442,1960,1838,3
1779264903.56758,1881,1807,3
1779264903.5676968,1901,1666,3
1779264903.567824,1957,1548,3
1779264903.58707,2083,1475,3
1779264903.587392,2007,1694,3
1779264903.590453,1915,1539,3
1779264903.590668,1828,1392,3
1779264903.5907578,1992,1691,3
1779264903.590827,1993,1751,3
1779264903.5908911,1972,1200,3
1779264903.5910091,2076,1190,3
1779264903.591079,2112,1250,3
1779264903.591143,2005,1307,3
1779264903.591203,1908,1387,3
1779264903.5925891,1946,1546,3
1779264903.594006,1988,1506,3
1779264903.5967429,1915,1418,3
1779264903.6164322,1848,1233,3
1779264903.622329,1939,1163,3
1779264903.622487,2009,1340,3
1779264903.622562,2008,1466,3
1779264903.622625,1962,1364,3
1779264903.6226869,1891,1409,3
1779264903.623115,1924,1491,3
1779264903.62322,2012,1441,3
1779264903.6232939,1940,1351,3
1779264903.623518,1903,1382,3
1779264903.623787,2021,1275,3
1779264903.624327,2127,1363,3
1779264903.624437,2035,1460,3
1779264903.637343,1947,1427,3
1779264903.64416,1954,1361,3
1779264903.644319,2003,1206,3
1779264903.644563,1885,1122,3
1779264903.644941,1868,1123,3
1779264903.645354,1954,1046,3
1779264903.6454232,2062,981,3
1779264903.6454751,2052,1194,3
1779264903.645525,1958,1217,3
1779264903.6455731,1967,1231,3
1779264903.645632,2011,1146,3
1779264903.6457531,1978,1104,3
1779264903.6486342,1942,1137,3
1779264903.6666932,1980,1139,3
1779264903.670188,2095,1174,3
1779264903.670294,2074,1300,3
1779264903.6703491,1986,1277,3
1779264903.670399,1930,1295,3
1779264903.6704488,1968,1255,3
1779264903.6704981,1977,1224,3
1779264903.670549,1906,1209,3
1779264903.670602,1932,1106,3
1779264903.670654,2048,1192,3
1779264903.670706,2092,1178,3
1779264903.673155,2019,1250,3
1779264903.689269,1958,1259,3
1779264903.6927528,1970,1209,3
1779264903.6928399,2011,1252,3
1779264903.6929128,1945,1221,3
1779264903.6929832,1942,1180,3
1779264903.693047,2010,1243,3
1779264903.693151,2110,1215,3
1779264903.69326,2076,1233,3
1779264903.693434,2000,1339,3
1779264903.6934998,1947,1327,3
1779264903.694844,1971,1214,3
1779264903.696182,1979,1248,3
1779264903.6990988,1939,1265,3
1779264903.7178519,1991,1184,3
1779264903.7189279,2114,1187,3
1779264903.71901,2109,1240,3
1779264903.719105,2043,1287,3
1779264903.7192152,1985,1337,3
1779264903.719289,2022,1309,3
1779264903.719404,2036,1345,3
1779264903.7195258,1970,1306,3
1779264903.7196832,1991,1374,3
1779264903.7197719,2070,1309,3
1779264903.719976,2130,1396,3
1779264903.7371788,2052,1403,3
1779264903.740751,2009,1451,3
1779264903.7408729,2004,1459,3
1779264903.741025,2053,1430,3
1779264903.741089,1988,1402,3
1779264903.74114,1968,1444,3
1779264903.741191,2022,1534,3
1779264903.74124,2152,1548,3
1779264903.741289,2107,1556,3
1779264903.741338,2037,1580,3
1779264903.742959,2016,1565,3
1779264903.7445571,2046,1421,3
1779264903.747128,1983,1480,3
1779264903.766599,1930,1513,3
1779264903.766973,2005,1553,3
1779264903.767062,2118,1498,3
1779264903.76718,2116,1571,3
1779264903.767257,2012,1666,3
1779264903.767369,1986,1569,3
1779264903.767443,2016,1585,3
1779264903.767575,2016,1565,3
1779264903.767639,1992,1477,3
1779264903.767772,2001,1489,3
1779264903.7678761,2066,1603,3
1779264903.788084,2150,1674,3
1779264903.788193,2075,1622,3
1779264903.7882738,1997,1606,3
1779264903.7883961,1994,1624,3
1779264903.788526,2052,1711,3
1779264903.788597,1977,1630,3
1779264903.7887082,1962,1582,3
1779264903.788772,2029,1607,3
1779264903.7888541,2119,1662,3
1779264903.788959,2105,1684,3
1779264903.7905102,2024,1666,3
1779264903.7919118,1974,1675,3
1779264903.809502,2042,1666,3
1779264903.813388,2040,1664,3
1779264903.8135831,1986,1663,3
1779264903.8136692,2013,1703,3
1779264903.8137689,2100,1734,3
1779264903.8139122,2127,1716,3
1779264903.814624,2040,1670,3
1779264903.814763,1998,1714,3
1779264903.814992,2023,1754,3
1779264903.815243,2048,1714,3
1779264903.815493,1960,1642,3
1779264903.833865,1981,1672,3
1779264903.836873,2057,1722,3
1779264903.8369548,2152,1806,3
1779264903.8370419,2060,1816,3
1779264903.8371441,1973,1786,3
1779264903.837277,2004,1674,3
1779264903.8374028,2046,1710,3
1779264903.837595,1986,1742,3
1779264903.8376682,1971,1689,3
1779264903.837781,2036,1752,3
1779264903.8378508,2128,1780,3
1779264903.83793,2108,1736,3
1779264903.84061,2021,1796,3
1779264903.841959,1983,1831,3
1779264903.861984,2044,1750,3
1779264903.86212,2004,1789,3
1779264903.86221,1974,1813,3
1779264903.862286,2022,1816,3
1779264903.862391,2147,1762,3
1779264903.8624809,2144,1843,3
1779264903.8625479,2068,1869,3
1779264903.862653,2006,1831,3
1779264903.8627672,2041,1807,3
1779264903.862831,2056,1880,3
1779264903.864413,1991,1805,3
1779264903.8770812,1988,1763,3
1779264903.881227,2092,1808,3
1779264903.8820322,2159,1878,3
1779264903.884437,2090,1811,3
1779264903.886176,2020,1716,3
1779264903.886241,2017,1691,3
1779264903.886293,2052,1810,3
1779264903.886343,2001,1800,3
1779264903.886391,1989,1797,3
1779264903.8864388,2056,1814,3
1779264903.886487,2143,1930,3
1779264903.888007,2115,1885,3
1779264903.8898282,2038,1869,3
1779264903.9070861,2006,1793,3
1779264903.9103732,2053,1934,3
1779264903.910465,2008,1944,3
1779264903.9106271,1967,1804,3
1779264903.910711,2016,1835,3
1779264903.910795,2105,1926,3
1779264903.9109051,2122,1845,3
1779264903.911127,2049,1868,3
1779264903.9112918,2004,1832,3
1779264903.911386,2027,1895,3
1779264903.931299,2022,1882,3
1779264903.9314182,1984,1819,3
1779264903.931582,1991,1855,3
1779264903.931656,2079,1807,3
1779264903.93172,2133,1909,3
1779264903.931781,2095,1885,3
1779264903.931844,2020,1881,3
1779264903.931904,2011,1842,3
1779264903.9319649,2046,1895,3
1779264903.9320261,2006,1858,3
1779264903.932087,1982,1868,3
1779264903.933627,2046,1902,3
1779264903.936744,2152,1944,3
1779264903.9905138,2117,1999,3
1779264903.990617,2032,1992,3
1779264903.990685,2029,1988,3
1779264903.990747,2077,1907,3
1779264903.9908092,2058,1859,3
1779264903.990869,1958,1876,3
1779264903.990929,2002,1857,3
1779264903.992116,2126,1976,3
1779264903.994581,2147,1969,3
1779264903.9946449,2067,1834,3
1779264903.994696,2002,1817,3
1779264903.994745,2010,1815,3
1779264903.994793,2043,1846,3
1779264903.994841,1986,1846,3
1779264903.9967208,2006,1791,3
1779264904.000135,2084,1842,3
1779264904.00074,2169,1900,3
1779264904.0008461,2094,1959,3
1779264904.0214121,2025,1849,3
1779264904.0214899,2011,1780,3
1779264904.021544,2055,1802,3
1779264904.021594,2013,1787,3
1779264904.021643,1998,1846,3
1779264904.0216908,2049,1867,3
1779264904.02174,2161,1906,3
1779264904.021787,2129,1877,3
1779264904.021836,2046,1821,3
1779264904.021885,1977,1805,3
1779264904.021933,2028,1929,3
1779264904.021982,2032,1933,3
1779264904.0220292,1992,1790,3
1779264904.022078,2012,1844,3
1779264904.022124,2115,1964,3
1779264904.022172,2143,1960,3
1779264904.022219,2069,1902,3
1779264904.0222652,2017,1846,3
1779264904.022312,2040,1839,3
1779264904.022358,2073,1864,3
1779264904.0224051,2000,1836,3
1779264904.022451,1994,1866,3
1779264904.022499,2084,1985,3
1779264904.0225449,2156,2021,3
1779264904.0225909,2119,1914,3
1779264904.065938,2046,1901,3
1779264904.066015,2015,1912,3
1779264904.066067,2063,1940,3
1779264904.066117,1998,1908,3
1779264904.066165,1992,1892,3
1779264904.0662131,2064,1986,3
1779264904.066261,2168,2035,3
1779264904.066308,2129,2026,3
1779264904.066356,2088,1928,3
1779264904.066404,2030,1927,3
1779264904.0664508,2080,1940,3
1779264904.066498,2046,1879,3
1779264904.066545,1983,1874,3
1779264904.066592,2028,1861,3
1779264904.0666392,2131,1863,3
1779264904.066686,2144,1937,3
1779264904.066732,2072,1897,3
1779264904.066779,2015,1858,3
1779264904.0668259,2028,1849,3
1779264904.0668721,2077,1903,3
1779264904.066918,2003,1916,3
1779264904.066965,2008,1894,3
1779264904.0809999,2111,1897,3
1779264904.0813801,2178,1938,3
1779264904.081564,2125,1896,3
1779264904.082498,2047,1933,3
1779264904.082557,2050,1952,3
1779264904.082606,2085,1990,3
1779264904.082653,2034,1919,3
1779264904.082787,1989,1763,3
1779264904.084621,2052,1845,3
1779264904.114635,2158,2000,3
1779264904.177999,2139,1940,3
1779264904.178106,2039,1867,3
1779264904.178164,2006,1836,3
1779264904.178218,2056,1894,3
1779264904.178268,2044,1881,3
1779264904.178316,2010,1871,3
1779264904.178365,2031,1943,3
1779264904.178412,2128,2055,3
1779264904.178459,2164,2040,3
1779264904.178507,2101,1910,3
1779264904.1785548,2047,1854,3
1779264904.178602,2045,1910,3
1779264904.1786501,2058,1862,3
1779264904.178696,1998,1831,3
1779264904.1787431,2010,1968,3
1779264904.1787899,2100,1975,3
1779264904.178837,2186,1942,3
1779264904.178884,2148,1901,3
1779264904.178931,2025,1810,3
1779264904.178978,2003,1994,3
1779264904.179025,2026,2061,3
1779264904.179072,2030,1933,3
1779264904.179119,1983,1916,3
1779264904.1791658,2059,2006,3
1779264904.179213,2157,2054,3
1779264904.179261,2140,1975,3
1779264904.1793091,2052,1919,3
1779264904.17936,2026,1784,3
1779264904.1794078,2081,1737,3
1779264904.186364,2065,1924,3
1779264904.20501,2022,1939,3
1779264904.2256489,2035,1900,3
1779264904.225725,2113,1845,3
1779264904.226064,2167,2009,3
1779264904.226124,2058,1963,3
1779264904.226175,2011,1950,3
1779264904.226223,2025,1969,3
1779264904.22627,2083,1893,3
1779264904.2263181,2040,1888,3
1779264904.2263649,2049,1801,3
1779264904.226412,2089,1909,3
1779264904.2264588,2186,1937,3
1779264904.226506,2098,2000,3
1779264904.2265532,2037,1978,3
1779264904.226599,2040,1961,3
1779264904.226645,2100,1889,3
1779264904.2266922,2037,1870,3
1779264904.226738,2028,1672,3
1779264904.226785,2059,1836,3
1779264904.226832,2166,2087,3
1779264904.226881,2114,2036,3
1779264904.2269309,2065,1893,3
1779264904.2269812,2046,1846,3
1779264904.227028,2039,1921,3
1779264904.2270741,1996,1882,3
1779264904.2271209,1992,1826,3
1779264904.227167,2059,1942,3
1779264904.227212,2148,2017,3
1779264904.2291589,2187,1997,3
1779264904.229235,2063,1919,3
1779264904.229285,2032,1893,3
1779264904.229337,2025,1936,3
1779264904.229388,2037,1923,3
1779264904.2294369,1963,1778,3
1779264904.2294888,1952,1944,3
1779264904.2295392,2045,2107,3
1779264904.229589,2100,2113,3
1779264904.22964,2068,1943,3
1779264904.22969,2030,1876,3
1779264904.229739,2033,1855,3
1779264904.229804,2083,1876,3
1779264904.229856,1997,1997,3
1779264904.231542,1982,1972,3
1779264904.234425,2034,1982,3
1779264904.235751,2122,2063,3
1779264904.238396,2121,2084,3
1779264904.239755,2039,1948,3
1779264904.242412,2049,2047,3
1779264904.243934,2041,2054,3
1779264904.245478,2030,1978,3
1779264904.268377,1970,1900,3
1779264904.26879,2032,1958,3
1779264904.2739258,2116,2087,3
1779264904.281863,2137,2069,3
1779264904.288844,2080,1952,3
1779264904.2889931,2031,1972,3
1779264904.289139,2009,1989,3
1779264904.289257,2030,1995,3
1779264904.289354,1975,1963,3
1779264904.28947,1978,1972,3
1779264904.289535,2061,2049,3
1779264904.289597,2135,2158,3
1779264904.289657,2141,2103,3
1779264904.289715,2067,1916,3
1779264904.2897751,2002,1895,3
1779264904.289834,2042,2124,3
1779264904.2898922,2026,1991,3
1779264904.289951,2002,1954,3
1779264904.290092,2033,2076,3
1779264904.290176,2209,2079,3
1779264904.290326,2153,2021,3
1779264904.290422,2055,1955,3
1779264904.291859,1962,1925,3
1779264904.294606,2016,1999,3
1779264904.311032,2064,2017,3
1779264904.315165,2012,1944,3
1779264904.315642,2036,2066,3
1779264904.3158221,2133,2230,3
1779264904.315933,2129,2082,3
1779264904.315993,2051,1963,3
1779264904.316222,1998,2011,3
1779264904.316283,2041,1975,3
1779264904.316399,2086,2051,3
1779264904.316451,2017,1905,3
1779264904.316502,1979,1957,3
1779264904.318062,2111,2038,3
1779264904.3351092,2149,2102,3
1779264904.33918,2131,2030,3
1779264904.339335,2053,1993,3
1779264904.3409312,1998,1985,3
1779264904.3410401,1997,1889,3
1779264904.34111,1957,2135,3
1779264904.3411741,1915,2176,3
1779264904.350322,2063,2035,3
1779264904.356554,2167,2168,3
1779264904.36272,2163,2259,3
1779264904.363219,2128,2054,3
1779264904.366304,2038,1888,3
1779264904.3673542,2077,2014,3
1779264904.3674188,2069,2055,3
1779264904.36748,2120,2038,3
1779264904.3678238,1995,1976,3
1779264904.368118,2027,2142,3
1779264904.3682728,2130,2173,3
1779264904.368478,2150,2064,3
1779264904.368709,1969,2016,3
1779264904.3688629,1938,2168,3
1779264904.36896,1989,2169,3
1779264904.369077,1959,2046,3
1779264904.369258,1994,1946,3
1779264904.3693929,2046,1923,3
1779264904.369524,2050,2142,3
1779264904.3793888,2031,2180,3
1779264904.390385,2037,2182,3
1779264904.39086,2076,1957,3
1779264904.391061,2095,1871,3
1779264904.391211,1929,2017,3
1779264904.391291,1941,2055,3
1779264904.391396,2044,2131,3
1779264904.3916008,2167,2099,3
1779264904.391676,2177,1968,3
1779264904.391742,2061,1984,3
1779264904.391805,1985,1993,3
1779264904.3944478,2005,2018,3
1779264904.4080472,2080,2065,3
1779264904.4169211,2009,2022,3
1779264904.4171362,2015,1996,3
1779264904.417275,2069,2011,3
1779264904.417407,2106,2231,3
1779264904.417558,2029,2088,3
1779264904.4176698,1940,1849,3
1779264904.4177432,2043,2032,3
1779264904.4178612,2046,2206,3
1779264904.417929,2001,2023,3
1779264904.418124,2032,2001,3
1779264904.4181912,2068,2049,3
1779264904.419608,2116,2132,3
1779264904.435274,2091,2007,3
1779264904.438337,2014,2079,3
1779264904.438422,2021,2151,3
1779264904.4385018,2033,2068,3
1779264904.438582,2013,2101,3
1779264904.438708,1975,2055,3
1779264904.4387798,1976,2181,3
1779264904.438878,2056,2580,3
1779264904.438955,2058,2422,3
1779264904.4402921,2105,2256,3
1779264904.44164,2037,2346,3
1779264904.4445171,2047,2320,3
1779264904.463441,2125,2609,3
1779264904.463551,2011,2558,3
1779264904.463667,2091,2486,3
1779264904.463746,2117,2536,3
1779264904.463925,2175,2660,3
1779264904.4640992,2037,2660,3
1779264904.464175,1994,2521,3
1779264904.464243,1990,2345,3
1779264904.4643111,1985,2581,3
1779264904.4643998,1910,2571,3
1779264904.465882,1979,2561,3
1779264904.482195,2123,2607,3
1779264904.482351,2283,2545,3
1779264904.48513,2088,2614,3
1779264904.485612,1987,2584,3
1779264904.48569,2041,2402,3
1779264904.485824,2045,2451,3
1779264904.485929,2064,2589,3
1779264904.485999,1951,2554,3
1779264904.486092,2039,2510,3
1779264904.486167,2153,2394,3
1779264904.487571,2149,2394,3
1779264904.4902542,2064,2478,3
1779264904.4922519,2022,2500,3
1779264904.5010629,2042,2772,3
1779264904.511759,2027,2718,3
1779264904.511858,1970,2579,3
1779264904.5119832,1993,2966,3
1779264904.512089,2062,3125,3
1779264904.5123022,2076,3167,3
1779264904.5125198,2014,3301,3
1779264904.5127318,1992,3102,3
1779264904.512844,1989,3101,3
1779264904.512948,2013,3255,3
1779264904.533522,1959,3572,3
1779264904.5336268,2004,3589,3
1779264904.5337431,2086,3448,3
1779264904.533807,2215,3201,3
1779264904.5339782,2111,3447,3
1779264904.534066,1983,3283,3
1779264904.534131,1941,3314,3
1779264904.534218,2070,3347,3
1779264904.534335,2088,3460,3
1779264904.5344121,2032,3521,3
1779264904.534517,2125,3434,3
1779264904.535966,2240,3385,3
1779264904.537707,2241,3431,3
1779264904.55154,2163,3495,3
1779264904.5559528,1993,3530,3
1779264904.5590348,1972,3364,3
1779264904.559808,1975,3558,3
1779264904.559999,1979,3564,3
1779264904.560052,2088,3512,3
1779264904.5602849,2161,3545,3
1779264904.5603552,2199,3361,3
1779264904.5604742,1792,2917,3
1779264904.5606132,1686,2800,3
1779264904.560708,2063,3274,3
1779264904.562112,2315,3270,3
1779264904.567856,1996,3148,3
1779264904.567992,1910,3111,3
1779264904.568744,2230,3174,3
1779264904.571094,2245,3015,3
1779264904.573652,2202,3075,3
1779264904.575115,2133,2982,3
1779264904.578146,2453,2419,3
1779264904.57901,2551,2847,3
1779264904.582047,2233,2920,3
1779264904.5822568,1789,2866,3
1779264904.58362,1693,2784,3
1779264904.586229,1786,2660,3
1779264904.5875578,2115,2517,3
1779264904.594879,2213,2770,3
1779264904.595484,1994,2744,3
1779264904.599881,1998,2626,3
1779264904.602294,2359,2519,3
1779264904.605957,2541,2929,3
1779264904.608217,2487,3012,3
1779264904.609087,2275,2604,3
1779264904.609181,1856,2751,3
1779264904.609313,1441,2239,3
1779264904.6094668,872,2851,3
1779264904.609587,1549,2590,3
1779264904.61695,2140,3307,3
1779264904.6185029,2797,3082,3
1779264904.620676,2741,3496,3
1779264904.620912,2473,3373,3
1779264904.623335,2253,3487,3
1779264904.628093,2651,3281,3
1779264904.6287959,2405,3727,3
1779264904.631916,1974,4038,3
1779264904.632489,1774,3922,3
1779264904.63269,1868,3725,3
1779264904.6327438,1377,3721,3
1779264904.6341581,1120,3677,3
1779264904.635537,1030,3486,3
1779264904.638193,1087,3811,3
1779264904.6587808,2943,3651,3
1779264904.658944,3555,3483,3
1779264904.65913,3041,3206,3
1779264904.659269,2360,3166,3
1779264904.6593978,1913,3753,3
1779264904.659515,2204,3432,3
1779264904.659636,2535,3479,3
1779264904.659783,2434,3042,3
1779264904.66028,2120,3210,3
1779264904.660336,1610,3320,3
1779264904.6603851,1163,3272,3
1779264904.674229,1349,3420,3
1779264904.677429,1731,3534,3
1779264904.677794,1566,3596,3
1779264904.678304,1499,3437,3
1779264904.678648,1856,3260,3
1779264904.678962,2473,3188,3
1779264904.681958,2421,3362,3
1779264904.68205,2136,3202,3
1779264904.6821911,1755,3035,3
1779264904.682318,1774,3274,3
1779264904.6824698,1926,3109,3
1779264904.683866,1972,2822,3
1779264904.685445,2108,2453,3
1779264904.688025,2141,2762,3
1779264904.695637,1915,2495,3
1779264904.70029,1673,2700,3
1779264904.706771,1609,2666,3
1779264904.71021,1677,2390,3
1779264904.7103949,1918,2488,3
1779264904.7105448,1992,2303,3
1779264904.710669,2023,2699,3
1779264904.7107809,2114,2371,3
1779264904.710877,2062,2427,3
1779264904.7109592,2100,2551,3
1779264904.711189,2158,2485,3
1779264904.711364,2045,2370,3
1779264904.718675,1794,2517,3
1779264904.720112,1804,2427,3
1779264904.722312,1876,2308,3
1779264904.722643,2079,2193,3
1779264904.722867,2156,2096,3
1779264904.727123,1841,2268,3
1779264904.7274392,1937,2461,3
1779264904.731304,2120,2488,3
1779264904.735327,2123,2478,3
1779264904.73646,1949,2285,3
1779264904.73664,1981,2345,3
1779264904.73698,2130,2005,3
1779264904.738496,2033,2267,3
1779264904.7400398,2008,2220,3
1779264904.741477,1875,2144,3
1779264904.7503302,1965,2106,3
1779264904.7505972,2049,2120,3
1779264904.7509172,2052,2479,3
1779264904.751223,1977,2289,3
1779264904.758935,2014,1935,3
1779264904.7592692,2066,1964,3
1779264904.7596438,2114,2216,3
1779264904.759878,2097,2161,3
1779264904.762251,2142,2124,3
1779264904.763351,1975,1975,3
1779264904.763521,1861,2366,3
1779264904.772146,2061,2186,3
1779264904.7748191,2155,2012,3
1779264904.7764962,2237,2014,3
1779264904.785573,2216,2309,3
1779264904.785801,2132,2219,3
1779264904.7859871,1945,2167,3
1779264904.7860422,1874,2093,3
1779264904.7861388,1857,2332,3
1779264904.786263,2004,2385,3
1779264904.786368,2127,2305,3
1779264904.786471,2183,2057,3
1779264904.787838,2100,2154,3
1779264904.792313,2050,2201,3
1779264904.8013382,1985,1976,3
1779264904.803228,1977,2214,3
1779264904.805623,1928,2007,3
1779264904.81276,1837,2168,3
1779264904.812895,1989,2215,3
1779264904.813128,2118,1828,3
1779264904.813205,2245,1749,3
1779264904.813271,2135,2100,3
1779264904.813332,1990,2278,3
1779264904.813392,2147,2142,3
1779264904.813453,2134,1970,3
1779264904.8135161,2165,2095,3
1779264904.828268,2002,2072,3
1779264904.828466,1921,1907,3
1779264904.83486,2063,1771,3
1779264904.8353012,2202,2071,3
1779264904.835435,2206,2225,3
1779264904.835608,2151,2010,3
1779264904.835684,2092,2158,3
1779264904.835876,2091,2219,3
1779264904.8359559,1964,2201,3
1779264904.836053,2120,1883,3
1779264904.836214,2053,1955,3
1779264904.838659,1960,1652,3
1779264904.840441,2022,2141,3
1779264904.8468852,2028,2283,3
1779264904.857963,2107,1876,3
1779264904.8619452,2092,2030,3
1779264904.8621042,1880,2173,3
1779264904.8622248,1811,2044,3
1779264904.862282,2053,2090,3
1779264904.8623319,2156,1858,3
1779264904.862381,2169,2154,3
1779264904.862433,2111,1965,3
1779264904.8624809,2064,1928,3
1779264904.862528,2046,1899,3
1779264904.863965,2093,1872,3
1779264904.8793511,2104,1855,3
1779264904.8801012,2275,1996,3
1779264904.880212,2273,1859,3
1779264904.880333,2025,1839,3
1779264904.880447,1856,2028,3
1779264904.880914,1901,2114,3
1779264904.8839161,1967,1902,3
1779264904.8839848,2038,2008,3
1779264904.884427,1913,1960,3
1779264904.88452,2065,1813,3
1779264904.885917,2281,1700,3
1779264904.887339,2271,1851,3
1779264904.890649,2063,1915,3
1779264904.909506,2005,1928,3
1779264904.909578,2114,1761,3
1779264904.909853,2158,1994,3
1779264904.9101,2012,2086,3
1779264904.9101582,1954,1868,3
1779264904.9104111,1963,1752,3
1779264904.91046,2092,1807,3
1779264904.910508,2107,1773,3
1779264904.9105558,1926,1721,3
1779264904.910604,2010,1860,3
1779264904.912382,2131,1877,3
1779264904.92082,2215,1775,3
1779264904.933861,2069,2076,3
1779264904.934161,2083,1586,3
1779264904.934369,2229,1636,3
1779264904.935031,2233,1915,3
1779264904.93519,2108,1947,3
1779264904.935471,2049,1925,3
1779264904.935592,2016,1956,3
1779264904.935647,1909,1946,3
1779264904.936256,1858,1983,3
1779264904.936519,1729,1709,3
1779264904.936598,1866,1746,3
1779264904.9386728,2174,1618,3
1779264904.939868,2154,1701,3
1779264904.9605188,2176,1849,3
1779264904.960691,2134,1766,3
1779264904.9608462,2119,1810,3
1779264904.96113,2147,1827,3
1779264904.9612448,2142,1974,3
1779264904.961399,2262,1786,3
1779264904.9614542,2298,1822,3
1779264904.961505,2113,1979,3
1779264904.9615529,1910,2005,3
1779264904.961601,1781,1955,3
1779264904.9616482,1966,1817,3
1779264904.96336,1972,1831,3
1779264904.974675,2011,1770,3
1779264904.980732,2039,1799,3
1779264904.983788,2215,1539,3
1779264904.984023,2331,1626,3
1779264904.984632,2250,1788,3
1779264904.984714,2116,1828,3
1779264904.984895,2074,1835,3
1779264904.985589,2051,1920,3
1779264904.985677,1962,1956,3
1779264904.985746,1993,1749,3
1779264904.9859772,2149,1648,3
1779264904.9874392,2154,1600,3
1779264904.994613,1882,1889,3
1779264905.007571,1847,2020,3
1779264905.010697,1948,1777,3
1779264905.0107598,2147,1862,3
1779264905.0108101,2089,1845,3
1779264905.011456,2087,2009,3
1779264905.011564,1864,1743,3
1779264905.011646,1967,1719,3
1779264905.011712,2151,1943,3
1779264905.011789,2186,2015,3
1779264905.012299,2075,1862,3
1779264905.012372,2132,1865,3
1779264905.0327291,2069,1934,3
1779264905.0334451,2129,1961,3
1779264905.03374,2175,1744,3
1779264905.033937,2191,1704,3
1779264905.034085,2123,1803,3
1779264905.0341492,2051,1848,3
1779264905.0342028,1979,1845,3
1779264905.034254,1948,1674,3
1779264905.034305,1987,1819,3
1779264905.034354,1943,1982,3
1779264905.0344052,2045,1852,3
1779264905.036195,2203,1680,3
1779264905.046031,2305,1835,3
1779264905.051824,2166,1823,3
1779264905.0570161,2071,2058,3
1779264905.0606878,2068,2042,3
1779264905.0609012,2122,1876,3
1779264905.0611231,2032,1886,3
1779264905.0612512,2003,1911,3
1779264905.0613198,2066,1811,3
1779264905.0613818,2037,1877,3
1779264905.0614421,1999,1880,3
1779264905.0615418,1924,1686,3
1779264905.061623,1958,2043,3
1779264905.061685,2072,2008,3
1779264905.0822358,2085,2113,3
1779264905.082474,2003,1951,3
1779264905.0826619,1930,1792,3
1779264905.082737,2080,1724,3
1779264905.0828779,2171,2042,3
1779264905.08296,2261,2220,3
1779264905.0830998,2122,1974,3
1779264905.0832481,2048,1855,3
1779264905.083317,1974,2111,3
1779264905.083442,2165,2053,3
1779264905.083602,2249,1964,3
1779264905.086348,2214,1780,3
1779264905.087714,2172,1794,3
1779264905.099651,2128,1858,3
1779264905.108424,2096,1876,3
1779264905.1085281,1983,1955,3
1779264905.108628,1971,2082,3
1779264905.1086972,1950,2097,3
1779264905.10879,1924,2075,3
1779264905.108851,2004,1899,3
1779264905.108961,2055,1898,3
1779264905.109031,2005,2145,3
1779264905.1091058,1999,2038,3
1779264905.1092129,1975,2095,3
1779264905.1308942,2095,2068,3
1779264905.130975,2065,2106,3
1779264905.13103,2006,2104,3
1779264905.131079,2073,1974,3
1779264905.131127,2238,1803,3
1779264905.13132,2249,2145,3
1779264905.13143,2080,1999,3
1779264905.13148,1958,2072,3
1779264905.1315289,1968,2019,3
1779264905.131576,2056,2256,3
1779264905.131623,2082,2183,3
1779264905.134445,2111,1988,3
1779264905.151668,2181,2023,3
1779264905.1548212,2214,2109,3
1779264905.156708,2130,2190,3
1779264905.1567712,2061,2198,3
1779264905.156821,2068,2279,3
1779264905.15687,2054,2262,3
1779264905.156918,1913,2149,3
1779264905.156966,1834,2234,3
1779264905.157013,1895,2153,3
1779264905.1570601,2082,2113,3
1779264905.157484,2107,2301,3
1779264905.1580641,2066,2235,3
1779264905.176492,2070,2276,3
1779264905.176956,2117,2182,3
1779264905.177245,2095,2268,3
1779264905.177315,2071,2286,3
1779264905.177417,2071,2066,3
1779264905.17754,2141,1918,3
1779264905.177634,2165,2085,3
1779264905.1776881,2048,2174,3
1779264905.177801,1996,2208,3
1779264905.177908,2084,2086,3
1779264905.179277,2099,2174,3
1779264905.182123,1987,2214,3
1779264905.203627,2066,2027,3
1779264905.2038138,2176,2011,3
1779264905.203889,2173,2085,3
1779264905.203954,2102,2087,3
1779264905.2040162,2016,2207,3
1779264905.204077,2015,2093,3
1779264905.2041368,2005,2218,3
1779264905.2041962,1957,2237,3
1779264905.2042549,2011,2113,3
1779264905.204314,2079,1993,3
1779264905.204375,2166,2005,3
1779264905.2057521,2090,2106,3
1779264905.227139,2032,2251,3
1779264905.227354,2050,2186,3
1779264905.227415,2087,2025,3
1779264905.227469,2000,2207,3
1779264905.2275221,1974,2165,3
1779264905.227573,1998,1958,3
1779264905.227623,2146,1980,3
1779264905.227675,2130,2138,3
1779264905.227735,2034,2182,3
1779264905.231531,1989,2179,3
1779264905.231622,2040,2155,3
1779264905.231689,2060,2182,3
1779264905.231752,1999,2182,3
1779264905.245992,2015,2065,3
1779264905.253739,2117,1948,3
1779264905.25387,2108,2014,3
1779264905.254025,2062,2134,3
1779264905.254097,2023,2187,3
1779264905.254207,2065,2132,3
1779264905.254279,2097,2083,3
1779264905.2543428,2049,2078,3
1779264905.254409,2042,1950,3
1779264905.254498,2132,2057,3
1779264905.2545578,2219,2075,3
1779264905.255917,2116,2059,3
1779264905.272911,2044,2024,3
1779264905.276341,2016,2184,3
1779264905.276435,2037,2215,3
1779264905.2765079,1981,2109,3
1779264905.2765791,1981,1993,3
1779264905.276682,2043,1992,3
1779264905.276761,2120,1902,3
1779264905.276879,2147,2006,3
1779264905.277001,2077,2034,3
1779264905.277066,2059,2082,3
1779264905.277216,2095,2039,3
1779264905.279867,2080,1852,3
1779264905.281239,1972,1964,3
1779264905.2998788,2008,1975,3
1779264905.302807,2129,1889,3
1779264905.3028932,2160,1773,3
1779264905.303013,2088,1922,3
1779264905.303194,1989,1983,3
1779264905.303276,2029,1862,3
1779264905.3034081,2079,1957,3
1779264905.303485,2006,2047,3
1779264905.303658,1994,1960,3
1779264905.3038259,2111,1891,3
1779264905.3039,2197,1962,3
1779264905.315109,2149,2066,3
1779264905.324717,2065,2013,3
1779264905.3249679,2034,1977,3
1779264905.3251321,2039,1847,3
1779264905.325206,2002,1854,3
1779264905.3253179,1951,1982,3
1779264905.325388,2040,1933,3
1779264905.3254652,2145,1874,3
1779264905.325533,2128,1861,3
1779264905.3255959,2028,2044,3
1779264905.3256881,2008,2037,3
1779264905.3270972,2107,1865,3
1779264905.3298612,2061,1812,3
1779264905.343297,1988,1868,3
1779264905.347832,2011,1709,3
1779264905.3510861,2096,1692,3
1779264905.351282,2113,1879,3
1779264905.3514261,2013,1944,3
1779264905.351529,2033,1868,3
1779264905.3516421,1994,1708,3
1779264905.351798,2009,1633,3
1779264905.351878,1955,1731,3
1779264905.3519459,1955,1660,3
1779264905.352012,2116,1579,3
1779264905.353305,2198,1663,3
1779264905.373237,2183,1770,3
1779264905.373346,2101,1850,3
1779264905.373439,2053,1869,3
1779264905.3735082,2113,1877,3
1779264905.373568,2062,1855,3
1779264905.373627,2028,1871,3
1779264905.373687,2066,1803,3
1779264905.373759,2138,1710,3
1779264905.3738399,2112,1916,3
1779264905.373997,2018,2020,3
1779264905.375454,1996,1920,3
1779264905.37793,2046,1771,3
1779264905.379682,2069,1791,3
1779264905.390916,1972,1703,3
1779264905.39593,2006,1695,3
1779264905.398735,2082,1726,3
1779264905.3988302,2176,1798,3
1779264905.398956,2103,1903,3
1779264905.3990898,2064,1947,3
1779264905.3992262,2072,1875,3
1779264905.399411,2023,1765,3
1779264905.399499,2037,1750,3
1779264905.3995478,2025,1708,3
1779264905.418787,2075,1752,3
1779264905.418922,2111,1746,3
1779264905.4191418,2066,1863,3
1779264905.419323,2049,1777,3
1779264905.419497,2034,1761,3
1779264905.419565,2073,1663,3
1779264905.4196942,2025,1667,3
1779264905.4197938,1967,1539,3
1779264905.419901,2055,1554,3
1779264905.41996,2197,1639,3
1779264905.4213948,2177,1696,3
1779264905.439712,2103,1533,3
1779264905.442869,2017,1409,3
1779264905.443104,2003,1558,3
1779264905.443192,2008,1682,3
1779264905.443331,1982,1352,3
1779264905.443458,2034,1371,3
1779264905.443528,2089,1428,3
1779264905.443638,2199,1332,3
1779264905.4438038,2065,1417,3
1779264905.443957,2020,1534,3
1779264905.444329,2022,1386,3
1779264905.461322,2077,1252,3
1779264905.462116,2028,1217,3
1779264905.4658072,1991,1162,3
1779264905.4660711,2039,1181,3
1779264905.466238,2164,1395,3
1779264905.4663491,2123,1299,3
1779264905.466481,2032,1162,3
1779264905.4666471,2017,1114,3
1779264905.466717,2037,1158,3
1779264905.4668102,1998,1221,3
1779264905.4668648,1969,1211,3
1779264905.467179,2046,1197,3
1779264905.470083,2139,1327,3
1779264905.471638,2158,1332,3
1779264905.482901,2080,1285,3
1779264905.490091,1998,1351,3
1779264905.4931352,2060,1262,3
1779264905.493252,2010,1165,3
1779264905.49333,1973,1080,3
1779264905.493435,1980,1092,3
1779264905.493505,2045,1191,3
1779264905.4936,2088,1314,3
1779264905.493762,2060,1304,3
1779264905.493841,1962,1300,3
1779264905.494035,1997,1283,3
1779264905.503365,2058,1284,3
1779264905.5143738,2025,1206,3
1779264905.514685,2025,1222,3
1779264905.514785,2038,1268,3
1779264905.514961,2107,1403,3
1779264905.515279,2109,1401,3
1779264905.515425,2029,1317,3
1779264905.516132,2022,1318,3
1779264905.516611,2086,1243,3
1779264905.5167649,1996,1363,3
1779264905.517005,1975,1254,3
1779264905.517215,2064,1247,3
1779264905.519994,2129,1365,3
1779264905.5329,2135,1467,3
1779264905.539648,2039,1367,3
1779264905.539844,2000,1319,3
1779264905.540139,2000,1372,3
1779264905.540245,2026,1428,3
1779264905.540412,1973,1243,3
1779264905.5404859,1996,1342,3
1779264905.54055,2059,1328,3
1779264905.540612,2154,1414,3
1779264905.540674,2101,1267,3
1779264905.542219,2013,1226,3
1779264905.558945,1965,1313,3
1779264905.5590541,2046,1305,3
1779264905.559131,1983,1223,3
1779264905.559253,1983,1184,3
1779264905.55939,2052,1335,3
1779264905.55953,2130,1469,3
1779264905.559598,2078,1395,3
1779264905.559674,1997,1339,3
1779264905.5597382,2012,1385,3
1779264905.56125,2068,1374,3
1779264905.564107,2051,1251,3
1779264905.57977,1987,1207,3
1779264905.583148,2026,1206,3
1779264905.583287,2148,1425,3
1779264905.583565,2143,1417,3
1779264905.583693,2099,1341,3
1779264905.583828,2007,1229,3
1779264905.5839,2034,1377,3
1779264905.5839648,2031,1418,3
1779264905.5840268,1943,1367,3
1779264905.5841222,1952,1321,3
1779264905.5857978,2034,1461,3
1779264905.604584,2094,1549,3
1779264905.605657,2081,1470,3
1779264905.605752,2004,1434,3
1779264905.6058292,2012,1515,3
1779264905.6059,2075,1558,3
1779264905.606028,2041,1465,3
1779264905.606123,2024,1451,3
1779264905.60624,2077,1572,3
1779264905.6063108,2169,1721,3
1779264905.606375,2139,1707,3
1779264905.607775,2064,1523,3
1779264905.609133,2004,1525,3
1779264905.611855,2042,1651,3
1779264905.618123,2027,1646,3
1779264905.628005,1990,1615,3
1779264905.631509,2013,1642,3
1779264905.6316428,2120,1736,3
1779264905.631707,2118,1727,3
1779264905.631964,2065,1672,3
1779264905.6320372,2001,1630,3
1779264905.6321542,1988,1660,3
1779264905.632231,2016,1618,3
1779264905.632308,1970,1580,3
1779264905.633653,2033,1668,3
1779264905.641027,2109,1814,3
1779264905.650975,2200,1916,3
1779264905.651078,2137,1868,3
1779264905.6511989,2067,1778,3
1779264905.65131,2080,1746,3
1779264905.651382,2088,1734,3
1779264905.651496,2050,1616,3
1779264905.651566,1980,1585,3
1779264905.651645,2034,1736,3
1779264905.65404,2133,1933,3
1779264905.655458,2126,1832,3
1779264905.663527,2075,1617,3
1779264905.668458,2016,1612,3
1779264905.671324,2077,1697,3
1779264905.6777668,2051,1717,3
1779264905.6788301,1992,1701,3
1779264905.678962,2028,1798,3
1779264905.6790621,2125,1932,3
1779264905.679141,2142,1848,3
1779264905.679206,2051,1781,3
1779264905.679276,1990,1788,3
1779264905.679351,2018,1896,3
1779264905.679413,2043,1854,3
1779264905.6920462,1978,1624,3
1779264905.6954792,2023,1694,3
1779264905.6959848,2094,1903,3
1779264905.696407,2136,2041,3
1779264905.699543,2063,1915,3
1779264905.6997151,2013,1772,3
1779264905.699897,2033,1728,3
1779264905.69998,2077,1842,3
1779264905.700046,2027,1735,3
1779264905.7001212,1983,1691,3
1779264905.701371,2064,1804,3
1779264905.704305,2174,1900,3
1779264905.7058492,2149,1830,3
1779264905.72315,2080,1805,3
1779264905.7268531,2041,1707,3
1779264905.727,2056,1808,3
1779264905.727104,2058,1849,3
1779264905.727169,2011,1647,3
1779264905.7272341,2038,1758,3
1779264905.727294,2145,1901,3
1779264905.727356,2165,1869,3
1779264905.727417,2090,1696,3
1779264905.7274811,2025,1728,3
1779264905.727541,2019,1741,3
1779264905.728959,2031,1759,3
1779264905.738115,1991,1629,3
1779264905.7406561,2006,1677,3
1779264905.7492101,2106,1802,3
1779264905.749426,2164,1972,3
1779264905.749514,2130,1855,3
1779264905.7495801,2040,1737,3
1779264905.749642,2026,1747,3
1779264905.749705,2065,1818,3
1779264905.749801,2030,1750,3
1779264905.749863,1981,1732,3
1779264905.751213,2054,1837,3
1779264905.7539442,2158,2022,3
1779264905.75532,2128,1911,3
1779264905.763291,2019,1779,3
1779264905.772663,2012,1861,3
1779264905.7763681,2048,1850,3
1779264905.776514,2049,1707,3
1779264905.776602,1991,1628,3
1779264905.776714,2041,1916,3
1779264905.7768161,2146,2092,3
1779264905.776962,2186,1985,3
1779264905.777063,2088,1773,3
1779264905.7771368,2023,1726,3
1779264905.777198,2036,1826,3
1779264905.7851331,2069,1880,3
1779264905.788054,2004,1731,3
1779264905.79574,2002,1836,3
1779264905.799484,2080,2033,3
1779264905.799623,2181,2108,3
1779264905.799734,2111,1968,3
1779264905.799825,2044,1870,3
1779264905.799893,2061,1891,3
1779264905.8000221,2084,1982,3
1779264905.800118,2023,1781,3
1779264905.800195,2005,1838,3
1779264905.801749,2060,2031,3
1779264905.803256,2149,2090,3
1779264905.815834,2132,1972,3
1779264905.820489,2045,1835,3
1779264905.824419,2008,1827,3
1779264905.827245,2055,1922,3
1779264905.828086,2027,1848,3
1779264905.828172,1978,1769,3
1779264905.8282812,2024,1844,3
1779264905.8284109,2127,2052,3
1779264905.828491,2162,2060,3
1779264905.828556,2101,1930,3
1779264905.8286169,2026,1769,3
1779264905.828767,2058,1869,3
1779264905.8288698,2083,1907,3
1779264905.838034,2011,1771,3
1779264905.8442628,1985,1827,3
1779264905.8519099,2094,1976,3
1779264905.852006,2152,2048,3
1779264905.852192,2107,1889,3
1779264905.8522618,2038,1827,3
1779264905.852365,2022,1856,3
1779264905.852416,2061,1865,3
1779264905.8524642,2020,1770,3
1779264905.852514,1994,1783,3
1779264905.852563,2054,1946,3
1779264905.855202,2158,2120,3
1779264905.8553011,2148,2013,3
1779264905.8568761,2078,1917,3
1779264905.865375,1994,1827,3
1779264905.874662,2078,1844,3
1779264905.878328,2038,1838,3
1779264905.878437,1981,1808,3
1779264905.878519,2043,1892,3
1779264905.878585,2114,1998,3
1779264905.8786519,2157,2050,3
1779264905.878844,2092,1901,3
1779264905.878913,2042,1856,3
1779264905.878978,2071,1942,3
1779264905.879037,2077,1923,3
1779264905.897682,2011,1748,3
1779264905.8982148,2006,1890,3
1779264905.9011881,2092,2087,3
1779264905.902167,2164,2218,3
1779264905.902339,2134,1919,3
1779264905.902494,2060,1828,3
1779264905.902636,2035,1823,3
1779264905.902797,2086,1956,3
1779264905.902975,2043,1842,3
1779264905.903033,2024,1851,3
1779264905.9031098,2075,2010,3
1779264905.903162,2165,2134,3
1779264905.905924,2172,2044,3
1779264905.9073868,2075,1893,3
1779264905.918178,2025,1842,3
1779264905.926455,2062,1990,3
1779264905.9275231,2076,1929,3
1779264905.930772,2017,1813,3
1779264905.930906,2059,1935,3
1779264905.930986,2179,2165,3
1779264905.93111,2211,2120,3
1779264905.931232,2112,1898,3
1779264905.9313579,2039,1847,3
1779264905.9314392,2094,1953,3
1779264905.931551,2083,1927,3
1779264905.9316669,2021,1803,3
1779264905.933014,2038,1860,3
1779264905.942247,2113,1993,3
1779264905.942823,2189,2150,3
1779264905.947435,2143,2001,3
1779264905.9509602,2045,1937,3
1779264905.9514081,2017,1871,3
1779264905.951969,2093,1989,3
1779264905.952553,2065,1811,3
1779264905.9559228,2023,1711,3
1779264905.956183,2084,1907,3
1779264905.956257,2166,2113,3
1779264905.956349,2129,1994,3
1779264905.9577549,2055,1805,3
1779264905.9591072,2039,1760,3
1779264905.961478,2052,1804,3
1779264905.972843,2040,1784,3
1779264905.976013,1994,1758,3
1779264905.9793391,2021,1810,3
1779264905.979987,2108,1964,3
1779264905.9838212,2142,1982,3
1779264905.9842649,2094,1750,3
1779264905.984402,2044,1805,3
1779264905.9845388,2063,1765,3
1779264905.98466,2097,1834,3
1779264905.984769,2039,1677,3
1779264905.9848819,2036,1628,3
1779264905.984959,2096,1898,3
1779264905.9932082,2180,2001,3
1779264905.996073,2105,1856,3
1779264905.99618,2030,1744,3
1779264905.996414,2014,1703,3
1779264905.9965508,2033,1785,3
1779264905.997778,2003,1815,3
1779264906.0031219,1975,1580,3
1779264906.0066812,2035,1867,3
1779264906.007156,2166,2221,3
1779264906.007506,2157,2030,3
1779264906.008137,2076,1662,3
1779264906.011401,2029,1663,3
1779264906.011563,2027,1814,3
1779264906.0129101,2041,1804,3
1779264906.0154932,1978,1615,3
1779264906.016916,1980,1599,3
1779264906.028691,2101,1871,3
1779264906.031338,2149,1986,3
1779264906.035053,2098,1733,3
1779264906.035981,2052,1676,3
1779264906.039024,2068,1773,3
1779264906.039458,2067,1786,3
1779264906.039577,2012,1689,3
1779264906.039693,2045,1653,3
1779264906.0397792,2049,1906,3
1779264906.039872,2140,2092,3
1779264906.0399392,2107,1792,3
1779264906.041327,1999,1411,3
1779264906.0514402,2007,1423,3
1779264906.0544,2062,2240,3
1779264906.056244,2075,1890,3
1779264906.059913,2024,1715,3
1779264906.060721,2070,1889,3
1779264906.0613189,2201,2181,3
1779264906.064379,2182,2020,3
1779264906.06481,2108,1819,3
1779264906.06493,2078,1769,3
1779264906.065046,2069,1807,3
1779264906.065172,2038,1761,3
1779264906.065293,1983,1640,3
1779264906.0680242,2016,1735,3
1779264906.06941,2071,2006,3
1779264906.07077,2109,2150,3
1779264906.077775,2000,1863,3
1779264906.083105,1962,1825,3
1779264906.083885,2003,1868,3
1779264906.089173,2000,1806,3
1779264906.0894809,1969,1682,3
1779264906.08976,2029,1625,3
1779264906.090128,2084,2001,3
1779264906.090633,2203,2133,3
1779264906.091038,2182,1905,3
1779264906.094348,2103,1740,3
1779264906.094676,2062,1880,3
1779264906.094878,2071,1927,3
1779264906.10539,2043,1785,3
1779264906.109039,2002,1777,3
1779264906.109515,2034,1955,3
1779264906.11287,2142,2131,3
1779264906.118386,2158,2080,3
1779264906.11884,2005,1822,3
1779264906.119286,1948,1765,3
1779264906.1197681,1988,1950,3
1779264906.1237829,2041,1884,3
1779264906.124029,2000,1666,3
1779264906.1242921,1974,1965,3
1779264906.124449,2110,2265,3
1779264906.1245492,2184,2206,3
1779264906.124907,2098,2022,3
1779264906.125139,1995,1941,3
1779264906.1279302,2014,2000,3
1779264906.129367,2056,2035,3
1779264906.139199,1966,1900,3
1779264906.1398022,1982,1948,3
1779264906.142781,2037,2152,3
1779264906.1480682,2098,2308,3
1779264906.148471,2077,2055,3
1779264906.152284,2027,1927,3
1779264906.1523998,2048,1917,3
1779264906.152479,2091,2021,3
1779264906.152572,2056,1941,3
1779264906.152677,2005,1964,3
1779264906.152829,2047,2044,3
1779264906.152917,2166,2210,3
1779264906.1602502,2163,2047,3
1779264906.161056,2107,1917,3
1779264906.161369,2030,1978,3
1779264906.1623292,2054,2087,3
1779264906.167975,2052,2015,3
1779264906.170659,1970,1934,3
1779264906.174113,1958,2074,3
1779264906.1747131,2045,2299,3
1779264906.175185,2132,2268,3
1779264906.1758022,2112,2052,3
1779264906.176255,2023,1917,3
1779264906.1790981,2015,2045,3
1779264906.179328,2136,2087,3
1779264906.1813178,2034,1897,3
1779264906.182843,2029,1879,3
1779264906.185859,2111,2197,3
1779264906.193162,2200,2377,3
1779264906.196913,2161,2133,3
1779264906.202781,2060,2027,3
1779264906.203527,2013,2007,3
1779264906.204231,2068,2083,3
1779264906.204782,2020,1971,3
1779264906.2081358,1987,1877,3
1779264906.208438,2045,2057,3
1779264906.208525,2146,2344,3
1779264906.2087018,2093,2206,3
1779264906.208906,1953,1988,3
1779264906.209103,1934,1906,3
1779264906.21621,2023,2093,3
1779264906.2240808,2039,2126,3
1779264906.229174,1948,1927,3
1779264906.23245,1974,2068,3
1779264906.232703,2078,2270,3
1779264906.232799,2211,2262,3
1779264906.2328682,2166,2022,3
1779264906.232948,2110,1952,3
1779264906.233015,2034,1990,3
1779264906.233268,2046,2107,3
1779264906.233393,1966,1948,3
1779264906.23357,1978,1982,3
1779264906.23505,2032,2193,3
1779264906.236705,2180,2410,3
1779264906.244101,2094,2118,3
1779264906.254999,2045,1952,3
1779264906.25548,1974,2007,3
1779264906.25927,2014,2130,3
1779264906.259399,1992,2109,3
1779264906.259465,1974,2024,3
1779264906.259518,1975,2196,3
1779264906.259604,2044,2501,3
1779264906.259658,2053,2382,3
1779264906.259707,1998,2228,3
1779264906.259756,1909,2226,3
1779264906.263768,1921,2394,3
1779264906.264319,1954,2437,3
1779264906.279003,1946,2321,3
1779264906.2828958,1957,2524,3
1779264906.283067,2063,2743,3
1779264906.2835011,2143,2710,3
1779264906.283673,2052,2542,3
1779264906.283751,2012,2441,3
1779264906.283802,1990,2545,3
1779264906.283853,2062,2613,3
1779264906.283951,1994,2455,3
1779264906.284109,2017,2530,3
1779264906.285759,2070,2744,3
1779264906.287245,2142,2913,3
1779264906.303778,2088,2696,3
1779264906.310508,1996,2547,3
1779264906.3108401,1954,2633,3
1779264906.310923,1978,2772,3
1779264906.310991,1942,2805,3
1779264906.311054,1850,2732,3
1779264906.3111548,1935,2889,3
1779264906.31124,2034,3129,3
1779264906.311305,2134,3038,3
1779264906.311392,2082,2753,3
1779264906.311522,2033,2780,3
1779264906.311677,2060,2851,3
1779264906.331823,2056,2835,3
1779264906.331895,1996,2766,3
1779264906.331948,1977,2871,3
1779264906.3319979,2075,3050,3
1779264906.332046,2167,3075,3
1779264906.332095,2035,2761,3
1779264906.332143,2006,2618,3
1779264906.33219,2006,2692,3
1779264906.3322399,2066,2830,3
1779264906.332288,2069,2768,3
1779264906.333866,2020,2720,3
1779264906.335348,2077,2787,3
1779264906.337312,2144,2877,3
1779264906.357395,2078,2751,3
1779264906.357598,1970,2676,3
1779264906.357652,1930,2619,3
1779264906.357701,2017,2766,3
1779264906.357749,2028,2752,3
1779264906.3577971,1994,2761,3
1779264906.357845,2032,2858,3
1779264906.3578932,2164,2938,3
1779264906.357944,2187,2793,3
1779264906.3580842,2086,2625,3
1779264906.359684,2019,2555,3
1779264906.374876,2036,2724,3
1779264906.378248,2034,2711,3
1779264906.37831,1999,2631,3
1779264906.378361,1993,2679,3
1779264906.378411,2094,2803,3
1779264906.378458,2177,2728,3
1779264906.378676,2053,2448,3
1779264906.378773,2001,2394,3
1779264906.379026,2019,2396,3
1779264906.379083,2107,2518,3
1779264906.381994,2072,2467,3
1779264906.383758,2000,2464,3
1779264906.385356,2040,2604,3
1779264906.399084,2204,2692,3
1779264906.4054132,2189,2518,3
1779264906.406646,2100,2300,3
1779264906.406822,2025,2273,3
1779264906.4074519,2077,2439,3
1779264906.4076002,2054,2386,3
1779264906.407766,1999,2351,3
1779264906.408177,2028,2416,3
1779264906.4083872,2119,2498,3
1779264906.4091551,2175,2436,3
1779264906.424501,2049,2286,3
1779264906.4309351,1964,2341,3
1779264906.431008,2025,2338,3
1779264906.43106,2088,2364,3
1779264906.4311092,2018,2325,3
1779264906.431158,2002,2272,3
1779264906.431206,2104,2374,3
1779264906.431253,2137,2402,3
1779264906.4313002,2125,2327,3
1779264906.431426,2038,2185,3
1779264906.431561,1984,2239,3
1779264906.431652,2069,2248,3
1779264906.431721,2014,2283,3
1779264906.433129,1937,2201,3
1779264906.451641,2005,2241,3
1779264906.45265,2171,2359,3
1779264906.4527638,2102,2357,3
1779264906.452831,2003,2181,3
1779264906.4528809,1954,2046,3
1779264906.4529762,2103,2151,3
1779264906.453119,2095,2232,3
1779264906.453254,1999,2292,3
1779264906.453322,2056,2225,3
1779264906.4533849,2156,2382,3
1779264906.455445,2165,2297,3
1779264906.470491,2054,2176,3
1779264906.474549,2022,2153,3
1779264906.474648,2061,2169,3
1779264906.4747179,2095,2119,3
1779264906.474782,1958,1988,3
1779264906.4749749,1916,2023,3
1779264906.475054,2053,2074,3
1779264906.4751182,2049,2089,3
1779264906.475178,1951,2065,3
1779264906.475661,2000,2311,3
1779264906.477056,2053,2338,3
1779264906.480011,2146,2177,3
1779264906.481589,2053,2218,3
1779264906.502068,1990,2184,3
1779264906.50218,2122,2176,3
1779264906.502232,2237,2279,3
1779264906.502746,2191,2050,3
1779264906.5101519,2054,1798,3
1779264906.5183759,1890,1850,3
1779264906.5207481,1963,2180,3
1779264906.521586,2094,2030,3
1779264906.522089,1967,1961,3
1779264906.522174,2027,2079,3
1779264906.52224,2115,2458,3
1779264906.522302,2134,2405,3
1779264906.522364,2145,2199,3
1779264906.5225222,2108,2071,3
1779264906.522594,2031,1940,3
1779264906.522654,2011,1952,3
1779264906.5227132,1864,2002,3
1779264906.522773,1977,2113,3
1779264906.522832,2066,2194,3
1779264906.522897,2143,2248,3
1779264906.522955,2117,2141,3
1779264906.525841,2026,2009,3
1779264906.5275788,2032,1942,3
1779264906.53917,2059,2051,3
1779264906.5414898,1963,2094,3
1779264906.54177,1970,2051,3
1779264906.545393,2001,2078,3
1779264906.545829,2125,2223,3
1779264906.546464,2150,2086,3
1779264906.5502772,2075,2038,3
1779264906.550378,1985,1882,3
1779264906.550445,1979,1932,3
1779264906.5505102,1983,2073,3
1779264906.550572,1993,1980,3
1779264906.5506308,2049,1952,3
1779264906.574642,2136,2130,3
1779264906.574827,2163,2054,3
1779264906.575047,2077,1981,3
1779264906.5751,1997,1990,3
1779264906.575182,2055,2157,3
1779264906.575233,2012,2078,3
1779264906.575335,1950,2065,3
1779264906.575436,2006,2003,3
1779264906.575924,2113,2000,3
1779264906.5759842,2118,1987,3
1779264906.576114,2034,2038,3
1779264906.5947158,1998,2243,3
1779264906.594816,2065,2011,3
1779264906.594887,2169,1947,3
1779264906.595005,2051,1930,3
1779264906.595083,1996,1983,3
1779264906.5951538,2016,2106,3
1779264906.5952551,2141,2149,3
1779264906.595319,2145,2091,3
1779264906.595455,2012,1908,3
1779264906.595507,1926,1980,3
1779264906.5956402,2010,2050,3
1779264906.596979,2031,2011,3
1779264906.6063612,2009,1951,3
1779264906.6122189,1959,2002,3
1779264906.618755,2016,2173,3
1779264906.619213,2190,2321,3
1779264906.619304,2173,2191,3
1779264906.6193779,2165,1934,3
1779264906.619481,2098,2019,3
1779264906.619551,2117,2112,3
1779264906.619613,2017,2036,3
1779264906.619673,1950,2066,3
1779264906.619735,2087,2164,3
1779264906.621106,2166,2170,3
1779264906.636949,2116,2089,3
1779264906.6407669,2008,2075,3
1779264906.640828,1954,2038,3
1779264906.640878,2058,2212,3
1779264906.640927,2049,2118,3
1779264906.640974,1988,2128,3
1779264906.6410198,2073,2260,3
1779264906.641067,2171,2387,3
1779264906.641112,2165,2343,3
1779264906.6411588,2094,2316,3
1779264906.644515,1956,2261,3
1779264906.644566,2026,2474,3
1779264906.65785,2070,2615,3
1779264906.6650822,2068,2545,3
1779264906.665272,2052,2525,3
1779264906.6653702,2137,2779,3
1779264906.665492,2188,2907,3
1779264906.6663811,2084,2764,3
1779264906.669845,2006,2708,3
1779264906.669953,2023,2790,3
1779264906.670062,2042,2863,3
1779264906.670173,2029,3033,3
1779264906.67024,2046,3146,3
1779264906.670451,2102,3120,3
1779264906.670582,2178,3314,3
1779264906.681702,2094,3251,3
1779264906.68924,2061,3117,3
1779264906.692805,2071,3211,3
1779264906.692891,2115,3342,3
1779264906.6929438,2004,3340,3
1779264906.692994,1941,3373,3
1779264906.6930418,2005,3365,3
1779264906.69309,2168,3194,3
1779264906.693137,2151,3100,3
1779264906.693184,2074,2876,3
1779264906.693231,1990,2930,3
1779264906.694504,2055,2880,3
1779264906.697515,2021,2892,3
1779264906.6992362,2013,3021,3
1779264906.7039921,2061,2936,3
1779264906.708089,2089,2850,3
1779264906.7164721,2167,2849,3
1779264906.721626,2052,2741,3
1779264906.7218208,2027,2721,3
1779264906.7218812,1991,2695,3
1779264906.721936,2022,2822,3
1779264906.7219882,1907,3026,3
1779264906.722071,2037,2941,3
1779264906.7221398,2092,2813,3
1779264906.722193,2249,2853,3
1779264906.7340832,2180,2751,3
1779264906.7421281,2061,2704,3
1779264906.7424939,2110,2823,3
1779264906.7425768,2196,2878,3
1779264906.7426481,2084,2711,3
1779264906.742762,2058,2632,3
1779264906.74288,2096,2613,3
1779264906.742947,2210,2558,3
1779264906.743048,2169,2546,3
1779264906.743113,1946,2561,3
1779264906.743165,1876,2562,3
1779264906.744805,1987,2573,3
1779264906.747902,1843,2535,3
1779264906.7567658,1688,2670,3
1779264906.760745,1947,2572,3
1779264906.763562,2313,2685,3
1779264906.7677171,2472,2740,3
1779264906.770441,2341,2642,3
1779264906.770972,2196,2579,3
1779264906.7710521,2055,2628,3
1779264906.77112,1834,2538,3
1779264906.771181,1954,2486,3
1779264906.771272,2042,2631,3
1779264906.77141,2168,2622,3
1779264906.771474,2275,2781,3
1779264906.773584,2016,2692,3
1779264906.786419,1847,2603,3
1779264906.790155,1901,2637,3
1779264906.790907,2046,2261,3
1779264906.794545,2224,2598,3
1779264906.794613,1747,2688,3
1779264906.794666,1730,2611,3
1779264906.794716,2020,2750,3
1779264906.794765,2396,2532,3
1779264906.794813,2247,2627,3
1779264906.794862,1837,2148,3
1779264906.79491,2028,2530,3
1779264906.7976792,2229,2953,3
1779264906.799041,1940,2663,3
1779264906.8087838,1775,2289,3
1779264906.8094752,1635,2480,3
1779264906.817795,2071,2635,3
1779264906.818507,2273,2665,3
1779264906.819272,2452,2655,3
1779264906.822557,2368,2605,3
1779264906.822877,2370,2514,3
1779264906.822955,2210,2367,3
1779264906.823102,2034,2571,3
1779264906.8234298,2182,2253,3
1779264906.823584,2231,2682,3
1779264906.8243918,2076,2811,3
1779264906.824469,1827,2642,3
1779264906.8341372,1280,2765,3
1779264906.841562,1478,2753,3
1779264906.842054,1964,3004,3
1779264906.842572,1525,3158,3
1779264906.8455281,1926,3102,3
1779264906.845624,2720,3005,3
1779264906.845711,2706,3405,3
1779264906.8457758,2116,3429,3
1779264906.845848,2012,3139,3
1779264906.84591,2022,3323,3
1779264906.847081,1769,3326,3
1779264906.848507,2125,3917,3
1779264906.8512151,2627,3933,3
1779264906.8589242,2536,3669,3
1779264906.861323,2062,3505,3
1779264906.8661,1748,3352,3
1779264906.8701818,1586,2994,3
1779264906.870966,1903,3493,3
1779264906.871418,2297,3372,3
1779264906.874433,2092,3610,3
1779264906.874603,1913,3589,3
1779264906.8747861,1942,3283,3
1779264906.87487,2069,3094,3
1779264906.874938,1788,3186,3
1779264906.8750038,1734,2862,3
1779264906.876398,2031,3374,3
1779264906.886847,2230,3402,3
1779264906.898166,2134,3225,3
1779264906.898666,1988,3231,3
1779264906.898803,1923,3159,3
1779264906.8988822,1856,3137,3
1779264906.898946,1864,2927,3
1779264906.899009,1876,2826,3
1779264906.899074,1942,3188,3
1779264906.899134,2113,3133,3
1779264906.8992069,2092,3098,3
1779264906.899267,1963,2803,3
1779264906.900629,1849,2774,3
1779264906.9032362,1784,2898,3
1779264906.90457,1854,2778,3
1779264906.9117792,2092,2518,3
1779264906.925308,2236,2558,3
1779264906.9254432,2119,2788,3
1779264906.925519,2192,2850,3
1779264906.9255831,2116,2862,3
1779264906.925644,2120,2763,3
1779264906.925705,2239,2770,3
1779264906.925764,2272,2675,3
1779264906.925824,1923,2699,3
1779264906.925885,1529,2609,3
1779264906.9278421,1717,2573,3
1779264906.9368162,1999,2552,3
1779264906.939519,2111,2626,3
1779264906.9489439,2055,2400,3
1779264906.949176,2001,1808,3
1779264906.949496,1941,2674,3
1779264906.949551,2015,2097,3
1779264906.949601,2263,1902,3
1779264906.949652,2043,2027,3
1779264906.949731,1808,1963,3
1779264906.949842,1705,2040,3
1779264906.950022,1870,2092,3
1779264906.951422,1823,2035,3
1779264906.952804,1652,2173,3
1779264906.9602408,2177,1825,3
1779264906.9633,2521,1584,3
1779264906.966528,2419,1650,3
1779264906.972168,2338,1655,3
1779264906.972778,2308,1874,3
1779264906.975617,2115,1835,3
1779264906.976137,1950,1647,3
1779264906.9762602,2005,1673,3
1779264906.9764102,2126,1479,3
1779264906.9764779,2058,1759,3
1779264906.9765399,1940,1788,3
1779264906.9766011,1851,1675,3
1779264906.9909341,1921,1545,3
1779264906.994996,1916,1949,3
1779264906.998398,1971,1824,3
1779264906.998546,1993,1595,3
1779264906.998605,2085,1636,3
1779264906.998656,2054,1817,3
1779264906.998707,1873,1815,3
1779264906.9987571,1919,1846,3
1779264906.998838,2047,1718,3
1779264906.998898,1936,1880,3
1779264906.998948,1891,1792,3
1779264907.000399,2128,1694,3
1779264907.003098,2252,1658,3
1779264907.004502,2321,1729,3
1779264907.014647,2146,1894,3
1779264907.026444,1749,1940,3
1779264907.0266361,1725,1801,3
1779264907.02672,2106,2004,3
1779264907.0267851,2264,1872,3
1779264907.026847,2121,1757,3
1779264907.026908,2072,1775,3
1779264907.0269701,2331,1903,3
1779264907.02703,2152,1806,3
1779264907.0270898,2091,1991,3
1779264907.027151,2127,1940,3
1779264907.028594,2184,1798,3
1779264907.035925,1824,1817,3
1779264907.045671,1778,1896,3
1779264907.046242,1932,1685,3
1779264907.049511,2125,1834,3
1779264907.049699,2068,1735,3
1779264907.0498078,1705,1766,3
1779264907.049917,1884,1998,3
1779264907.050164,2079,1835,3
1779264907.050267,2171,1814,3
1779264907.0503218,1961,2085,3
1779264907.050399,1968,1930,3
1779264907.053144,2285,1731,3
1779264907.054683,2569,1737,3
1779264907.0627499,2208,1709,3
1779264907.065175,1822,1840,3
1779264907.069379,1814,1745,3
1779264907.073117,1957,1785,3
1779264907.07621,2039,1640,3
1779264907.0763369,2057,1747,3
1779264907.0764139,2128,1738,3
1779264907.0764759,2299,1819,3
1779264907.0765371,2304,1848,3
1779264907.076597,2144,1768,3
1779264907.076656,2065,1823,3
1779264907.087289,2058,1944,3
1779264907.089598,1844,1893,3
1779264907.09555,1462,1797,3
1779264907.09864,1693,1777,3
1779264907.098741,2359,1736,3
1779264907.098818,2264,1770,3
1779264907.098922,2066,1808,3
1779264907.099008,2150,1934,3
1779264907.099199,2264,1809,3
1779264907.099375,2352,1810,3
1779264907.099468,2129,1968,3
1779264907.1009548,1949,1661,3
1779264907.102465,1925,1745,3
1779264907.109872,1842,1939,3
1779264907.1153972,1757,1885,3
1779264907.115854,2054,1627,3
1779264907.11802,2158,1536,3
1779264907.124044,2079,1789,3
1779264907.127614,1881,1795,3
1779264907.1279721,2076,1845,3
1779264907.128201,2219,1793,3
1779264907.128355,2295,1647,3
1779264907.1285,2106,1560,3
1779264907.128572,2018,1868,3
1779264907.128638,1964,1941,3
1779264907.128702,2016,2019,3
1779264907.136331,1682,1867,3
1779264907.139442,1943,1973,3
1779264907.140053,2097,1745,3
1779264907.150113,2268,1784,3
1779264907.151074,2180,1857,3
1779264907.151274,1951,1666,3
1779264907.151349,2125,1843,3
1779264907.151413,2266,1865,3
1779264907.1514812,2197,1751,3
1779264907.151597,2087,1975,3
1779264907.151671,2048,1881,3
1779264907.1530612,1939,1846,3
1779264907.15446,2079,1556,3
1779264907.157692,2297,1988,3
1779264907.16916,2179,2034,3
1779264907.1748521,2025,1897,3
1779264907.177506,1976,1982,3
1779264907.178615,1825,1968,3
1779264907.17871,1479,1821,3
1779264907.1788101,1895,1408,3
1779264907.178895,2427,2091,3
1779264907.1789608,2461,1840,3
1779264907.179022,2055,1903,3
1779264907.1790872,2018,1841,3
1779264907.1791701,1783,2010,3
1779264907.180552,2179,1658,3
1779264907.197422,2437,2002,3
1779264907.201288,2177,1938,3
1779264907.201466,2081,1773,3
1779264907.201531,2123,1687,3
1779264907.20164,1992,1724,3
1779264907.2017002,1626,2096,3
1779264907.2017741,1768,1903,3
1779264907.201837,2185,1946,3
1779264907.201924,2348,2119,3
1779264907.2019851,2197,2035,3
1779264907.203382,2130,2173,3
1779264907.2046862,2183,1716,3
1779264907.207563,2184,1940,3
1779264907.2166479,1987,2277,3
1779264907.224565,1972,2182,3
1779264907.227794,1950,2091,3
1779264907.2281668,2006,2126,3
1779264907.228277,1954,2141,3
1779264907.228361,1876,2247,3
1779264907.22843,2030,1694,3
1779264907.228576,2126,2165,3
1779264907.2286458,2136,2084,3
1779264907.2287092,2105,2127,3
1779264907.228888,2096,2118,3
1779264907.230401,2125,2188,3
1779264907.247152,1954,2318,3
1779264907.248631,1994,2111,3
1779264907.251829,2228,2159,3
1779264907.251926,2132,2010,3
1779264907.25207,1967,1958,3
1779264907.25228,1553,2141,3
1779264907.2525,1897,2296,3
1779264907.2527812,2182,2022,3
1779264907.252876,2239,2017,3
1779264907.252929,1999,2150,3
1779264907.253079,2127,1888,3
1779264907.254536,2391,2038,3
1779264907.256295,2327,2208,3
1779264907.269053,2172,2128,3
1779264907.274291,2129,2021,3
1779264907.278017,2144,2061,3
1779264907.27828,1936,2216,3
1779264907.2784262,1913,2045,3
1779264907.278548,1905,2048,3
1779264907.278624,1867,1831,3
1779264907.278691,1792,2063,3
1779264907.278782,1908,2213,3
1779264907.278854,2245,2126,3
1779264907.279119,2244,2000,3
1779264907.280751,2122,2204,3
1779264907.293557,2065,2005,3
1779264907.300707,2122,1989,3
1779264907.301219,2198,2051,3
1779264907.301301,2244,2122,3
1779264907.301375,2074,2073,3
1779264907.3014588,2000,2034,3
1779264907.301524,1935,1982,3
1779264907.301596,2018,2034,3
1779264907.301667,1913,2072,3
1779264907.301793,1934,2164,3
1779264907.3031511,2076,2039,3
1779264907.3044999,2182,1947,3
1779264907.307214,2078,2021,3
1779264907.3187149,1940,1903,3
1779264907.325608,1981,1996,3
1779264907.328846,2035,2106,3
1779264907.328995,1968,2232,3
1779264907.3291872,1936,2034,3
1779264907.3293052,2085,1867,3
1779264907.3294342,2301,1877,3
1779264907.329563,2241,2139,3
1779264907.329619,2084,2107,3
1779264907.3297532,2073,2050,3
1779264907.330018,2062,2060,3
1779264907.355031,2058,2127,3
1779264907.355103,1969,2180,3
1779264907.355154,2040,1992,3
1779264907.3552032,2202,1741,3
1779264907.35525,2171,1968,3
1779264907.355297,2096,2110,3
1779264907.3553438,1929,2131,3
1779264907.355391,1888,2011,3
1779264907.355582,1984,2009,3
1779264907.355642,1965,2282,3
1779264907.3556921,1989,2182,3
1779264907.3557398,2133,1931,3
1779264907.355788,2270,1963,3
1779264907.375593,2174,2332,3
1779264907.397703,2046,2264,3
1779264907.3983061,2084,2387,3
1779264907.3984609,2148,2328,3
1779264907.398558,2065,2334,3
1779264907.398634,1979,2375,3
1779264907.398698,2064,2245,3
1779264907.398762,2123,2138,3
1779264907.398912,2057,2349,3
1779264907.3989792,1910,2428,3
1779264907.3990452,2015,2449,3
1779264907.3990972,2186,2369,3
1779264907.399145,2146,2361,3
1779264907.399194,2036,2334,3
1779264907.399461,1948,2412,3
1779264907.39955,2041,2220,3
1779264907.39963,2133,2246,3
1779264907.399692,2026,2317,3
1779264907.3999,2001,2279,3
1779264907.399953,2033,2306,3
1779264907.40012,2042,2331,3
1779264907.400364,2006,2300,3
1779264907.4004228,2038,2318,3
1779264907.411936,2117,2268,3
1779264907.4150531,2143,2235,3
1779264907.4178472,2091,2314,3
1779264907.424685,2001,2320,3
1779264907.4257112,1975,2190,3
1779264907.425843,2034,2255,3
1779264907.426406,1952,2289,3
1779264907.4265118,1926,2165,3
1779264907.426566,2000,2132,3
1779264907.426616,2166,2111,3
1779264907.426796,2128,2203,3
1779264907.426902,2027,2280,3
1779264907.4269838,1972,2182,3
1779264907.4285839,1976,2208,3
1779264907.4392772,2001,2266,3
1779264907.441476,1939,2261,3
1779264907.445257,1970,2075,3
1779264907.4455428,2072,1896,3
1779264907.445847,2133,2086,3
1779264907.446008,2043,2199,3
1779264907.446184,2010,2165,3
1779264907.4501,2036,2040,3
1779264907.4502091,2088,2148,3
1779264907.450283,1987,2156,3
1779264907.4505138,1968,2075,3
1779264907.4531672,2061,2018,3
1779264907.454519,2118,2111,3
1779264907.462674,2147,2100,3
1779264907.462873,2065,2025,3
1779264907.4701629,2028,1998,3
1779264907.4783611,2062,2002,3
1779264907.478977,2037,1979,3
1779264907.479102,1994,2050,3
1779264907.479191,2087,2064,3
1779264907.479258,2236,2065,3
1779264907.479323,2204,2148,3
1779264907.479384,2077,2152,3
1779264907.479445,2054,2191,3
1779264907.479689,2088,2035,3
1779264907.500853,2077,1988,3
1779264907.502105,2026,1998,3
1779264907.502244,2050,1891,3
1779264907.5024698,2140,1786,3
1779264907.50287,2119,1827,3
1779264907.5032918,1990,1865,3
1779264907.503427,1972,1870,3
1779264907.503704,1959,1896,3
1779264907.503818,1998,1910,3
1779264907.504041,2008,1815,3
1779264907.504261,2009,1759,3
1779264907.504349,2093,1796,3
1779264907.504422,2207,1852,3
1779264907.508123,2122,1826,3
1779264907.518199,2070,1859,3
1779264907.522683,2059,1758,3
1779264907.526361,2126,1756,3
1779264907.526742,2031,1782,3
1779264907.5270221,2019,1645,3
1779264907.5294259,2083,1597,3
1779264907.530255,2152,1516,3
1779264907.5307672,2115,1585,3
1779264907.53087,2021,1745,3
1779264907.530968,1992,1823,3
1779264907.531036,2062,1628,3
1779264907.531317,2060,1650,3
1779264907.532813,2011,1589,3
1779264907.5383701,2013,1655,3
1779264907.538572,2119,1740,3
1779264907.539686,2160,1775,3
1779264907.541974,2069,1794,3
1779264907.5493681,2013,1818,3
1779264907.549772,2053,1685,3
1779264907.550671,2082,1721,3
1779264907.553521,2032,1698,3
1779264907.553788,2010,1326,3
1779264907.5538418,2074,1265,3
1779264907.555161,2110,1942,3
1779264907.55649,2130,2088,3
1779264907.559119,2173,1691,3
1779264907.565102,2101,1554,3
1779264907.56593,2081,1724,3
1779264907.56883,1990,1927,3
1779264907.57292,2018,1869,3
1779264907.5765078,2097,1811,3
1779264907.576869,2225,1723,3
1779264907.577417,2149,1715,3
1779264907.5803561,2034,1683,3
1779264907.5804732,1928,1560,3
1779264907.580844,2019,1854,3
1779264907.581036,2030,2060,3
1779264907.5826051,2033,1808,3
1779264907.5878599,2135,1662,3
1779264907.5900018,2218,1662,3
1779264907.59213,2193,1593,3
1779264907.594222,2076,1592,3
1779264907.596437,1977,1812,3
1779264907.596631,2002,1867,3
1779264907.596792,2085,1796,3
1779264907.600887,2020,1622,3
1779264907.6010711,1997,1732,3
1779264907.604353,2094,1754,3
1779264907.6044931,2152,1817,3
1779264907.6072261,2088,1943,3
1779264907.608712,2066,1889,3
1779264907.6102479,2074,1781,3
1779264907.629568,2088,1757,3
1779264907.629636,2022,1667,3
1779264907.629687,1966,1770,3
1779264907.629735,2062,1781,3
1779264907.6297832,2140,1832,3
1779264907.6298308,2131,1905,3
1779264907.62988,2094,1886,3
1779264907.629927,2002,1850,3
1779264907.629975,1962,1881,3
1779264907.630562,1980,1867,3
1779264907.647815,2026,1828,3
1779264907.651364,2029,1757,3
1779264907.652666,2090,1904,3
1779264907.6527529,2156,1791,3
1779264907.6528609,2119,1878,3
1779264907.652941,2032,2028,3
1779264907.653006,2085,1898,3
1779264907.653069,2109,1702,3
1779264907.653171,2022,1545,3
1779264907.6532521,2002,1590,3
1779264907.653408,2115,1591,3
1779264907.6546628,2189,1678,3
1779264907.6561751,2125,1658,3
1779264907.65912,2063,1617,3
1779264907.664952,2046,1572,3
1779264907.66727,2053,1429,3
1779264907.6698282,2019,1440,3
1779264907.672277,1962,1736,3
1779264907.675225,2054,1715,3
1779264907.679167,2188,1645,3
1779264907.6799629,2098,1309,3
1779264907.680616,1983,1378,3
1779264907.681421,2015,1834,3
1779264907.6848462,2135,1623,3
1779264907.6849642,2143,1345,3
1779264907.685185,2047,1313,3
1779264907.68526,2022,1355,3
1779264907.686665,2122,1414,3
1779264907.694004,2162,1483,3
1779264907.698229,2105,1520,3
1779264907.698635,2034,1536,3
1779264907.698897,2042,1441,3
1779264907.7097878,2057,1424,3
1779264907.710012,1990,1415,3
1779264907.7101262,1989,1467,3
1779264907.71024,2094,1446,3
1779264907.710311,2180,1538,3
1779264907.710464,2125,1523,3
1779264907.710628,2046,1479,3
1779264907.7106922,2022,1472,3
1779264907.7121122,2076,1438,3
1779264907.71525,2025,1388,3
1779264907.721077,1981,1340,3
1779264907.722253,2058,1427,3
1779264907.725638,2141,1592,3
1779264907.728725,2143,1569,3
1779264907.7345788,2073,1414,3
1779264907.734907,2039,1340,3
1779264907.736117,2056,1361,3
1779264907.739553,2049,1335,3
1779264907.7398632,1992,1234,3
1779264907.74002,2017,1246,3
1779264907.74014,2134,1355,3
1779264907.740205,2162,1498,3
1779264907.740257,2104,1461,3
1779264907.7510579,2055,1428,3
1779264907.7517571,2052,1486,3
1779264907.7589471,2097,1378,3
1779264907.7594838,2031,1285,3
1779264907.760332,2004,1376,3
1779264907.7628958,2093,1475,3
1779264907.7637,2171,1563,3
1779264907.76385,2111,1495,3
1779264907.763967,2055,1454,3
1779264907.764183,2036,1463,3
1779264907.764255,2078,1529,3
1779264907.764318,2027,1397,3
1779264907.766932,1997,1361,3
1779264907.768279,2052,1422,3
1779264907.7760289,2165,1601,3
1779264907.780287,2146,1528,3
1779264907.788585,2056,1543,3
1779264907.791671,2040,1447,3
1779264907.792901,2082,1508,3
1779264907.7929878,2043,1467,3
1779264907.7931032,1993,1371,3
1779264907.79326,2000,1466,3
1779264907.793356,2121,1581,3
1779264907.79344,2172,1657,3
1779264907.793531,2091,1587,3
1779264907.793687,2019,1515,3
1779264907.795207,2039,1562,3
1779264907.80418,2081,1645,3
1779264907.812323,2022,1530,3
1779264907.8152761,2021,1550,3
1779264907.815381,2032,1699,3
1779264907.815564,2172,1800,3
1779264907.8157609,2116,1723,3
1779264907.8158479,2033,1635,3
1779264907.815985,1996,1556,3
1779264907.816154,2066,1598,3
1779264907.8162298,2021,1563,3
1779264907.8163369,1996,1534,3
1779264907.818762,2057,1589,3
1779264907.8201659,2154,1792,3
1779264907.832937,2159,1734,3
1779264907.8419158,2061,1624,3
1779264907.842029,2021,1626,3
1779264907.8423092,2058,1635,3
1779264907.842394,2035,1597,3
1779264907.842458,1985,1550,3
1779264907.8426082,2024,1583,3
1779264907.842676,2114,1677,3
1779264907.8427851,2158,1717,3
1779264907.842849,2088,1649,3
1779264907.8430028,2015,1647,3
1779264907.844676,2040,1731,3
1779264907.8609211,2058,1730,3
1779264907.864095,2007,1560,3
1779264907.864165,2016,1609,3
1779264907.864217,2097,1767,3
1779264907.864267,2186,1862,3
1779264907.864317,2125,1725,3
1779264907.864365,2051,1632,3
1779264907.864415,2029,1595,3
1779264907.864465,2080,1698,3
1779264907.864515,2040,1604,3
1779264907.8672519,1997,1616,3
1779264907.8687181,2064,1705,3
1779264907.8703501,2158,1830,3
1779264907.880884,2136,1732,3
1779264907.886749,2084,1597,3
1779264907.887149,2031,1582,3
1779264907.890283,2061,1661,3
1779264907.890419,2065,1652,3
1779264907.890603,1994,1565,3
1779264907.890656,2043,1626,3
1779264907.8907058,2124,1826,3
1779264907.890885,2166,1768,3
1779264907.89094,2107,1667,3
1779264907.892388,2025,1705,3
1779264907.900797,2046,1710,3
1779264907.9083111,2067,1732,3
1779264907.912287,2002,1619,3
1779264907.912373,2017,1627,3
1779264907.9124281,2101,1812,3
1779264907.912478,2196,1977,3
1779264907.9125278,2143,1787,3
1779264907.912578,2075,1659,3
1779264907.912626,2044,1668,3
1779264907.912674,2076,1790,3
1779264907.91435,2047,1679,3
1779264907.917093,2000,1677,3
1779264907.930646,2044,1817,3
1779264907.9313128,2146,1905,3
1779264907.952332,2156,1840,3
1779264907.959233,2085,1706,3
1779264907.959626,2033,1713,3
1779264907.95971,2070,1699,3
1779264907.959778,2067,1613,3
1779264907.959842,2008,1552,3
1779264907.959904,2028,1575,3
1779264907.9600089,2122,1730,3
1779264907.960112,2170,1795,3
1779264907.960175,2098,1729,3
1779264907.960236,2018,1659,3
1779264907.960387,2046,1625,3
1779264907.9604568,2084,1682,3
1779264907.9607759,2020,1515,3
1779264907.960885,2017,1596,3
1779264907.9609559,2085,1739,3
1779264907.96102,2181,1845,3
1779264907.9610822,2143,1650,3
1779264907.961857,2056,1619,3
1779264907.962098,2057,1674,3
1779264907.962201,2109,1694,3
1779264907.96496,2035,1515,3
1779264907.972521,2017,1465,3
1779264907.977629,2068,1590,3
1779264907.98458,2154,1806,3
1779264907.987482,2154,1688,3
1779264907.987576,2063,1613,3
1779264907.987699,2012,1611,3
1779264907.987851,2042,1719,3
1779264907.987988,2040,1656,3
1779264907.9880698,1997,1579,3
1779264907.988134,2018,1623,3
1779264907.9882681,2104,1828,3
1779264907.988384,2171,1870,3
1779264908.00263,2106,1753,3
1779264908.0092318,2033,1691,3
1779264908.0097,2027,1749,3
1779264908.009784,2057,1752,3
1779264908.009869,2029,1568,3
1779264908.0099359,2019,1641,3
1779264908.01007,2077,1822,3
1779264908.010227,2153,2026,3
1779264908.0103,2127,1818,3
1779264908.010379,2041,1680,3
1779264908.01047,2024,1622,3
1779264908.030546,2065,1749,3
1779264908.038668,1994,1741,3
1779264908.042473,1990,1708,3
1779264908.042573,2073,1851,3
1779264908.042711,2151,2031,3
1779264908.042807,2158,1953,3
1779264908.042888,2071,1805,3
1779264908.0430021,2023,1734,3
1779264908.043238,2059,1824,3
1779264908.0433369,2063,1755,3
1779264908.043392,1999,1636,3
1779264908.043468,2016,1719,3
1779264908.043593,2118,1951,3
1779264908.043678,2153,2008,3
1779264908.04376,2092,1876,3
1779264908.043916,2028,1751,3
1779264908.045254,2025,1805,3
1779264908.06407,2081,1834,3
1779264908.064149,2009,1661,3
1779264908.064203,1990,1722,3
1779264908.064254,2075,1956,3
1779264908.064304,2178,2089,3
1779264908.0643551,2138,1885,3
1779264908.064405,2058,1749,3
1779264908.064457,2038,1704,3
1779264908.0646179,2051,1862,3
1779264908.064706,2029,1783,3
1779264908.066064,1994,1692,3
1779264908.068697,2044,1905,3
1779264908.0700648,2146,2148,3
1779264908.0860832,2160,1983,3
1779264908.089317,2072,1752,3
1779264908.089439,2008,1746,3
1779264908.089514,2024,1901,3
1779264908.089587,2052,1929,3
1779264908.0896482,2012,1731,3
1779264908.0897112,2032,1816,3
1779264908.089773,2103,2122,3
1779264908.089834,2154,2080,3
1779264908.090006,2100,1907,3
1779264908.1089401,2015,1723,3
1779264908.112162,2036,1796,3
1779264908.112392,2079,1936,3
1779264908.112525,2010,1773,3
1779264908.112695,2018,1745,3
1779264908.1127622,2079,1969,3
1779264908.112816,2170,2120,3
1779264908.112867,2129,1979,3
1779264908.112918,2026,1869,3
1779264908.112968,2024,1866,3
1779264908.113333,2064,1958,3
1779264908.1149812,2034,1812,3
1779264908.1165571,1998,1730,3
1779264908.123806,2054,1844,3
1779264908.126105,2142,2078,3
1779264908.1362119,2155,1996,3
1779264908.1368241,2064,1823,3
1779264908.139966,2039,1796,3
1779264908.140363,2047,1937,3
1779264908.140512,2068,1931,3
1779264908.140631,2002,1708,3
1779264908.140785,2006,1823,3
1779264908.1408849,2109,2086,3
1779264908.141023,2159,2120,3
1779264908.141309,2097,1897,3
1779264908.142991,2050,1783,3
1779264908.151974,2038,1877,3
1779264908.154112,2075,1970,3
1779264908.1548438,2007,1808,3
1779264908.156518,2012,1772,3
1779264908.159966,2099,1965,3
1779264908.160511,2173,2196,3
1779264908.1629062,2136,1999,3
1779264908.16382,2056,1784,3
1779264908.164072,2040,1784,3
1779264908.16429,2085,1947,3
1779264908.1643798,2064,1874,3
1779264908.166992,2004,1812,3
1779264908.168331,2054,1926,3
1779264908.175223,2148,2133,3
1779264908.175489,2164,2052,3
1779264908.1788101,2078,1877,3
1779264908.181081,2032,1835,3
1779264908.183342,2044,1941,3
1779264908.1865191,2062,1905,3
1779264908.186868,1989,1741,3
1779264908.187314,2020,1858,3
1779264908.187476,2110,2086,3
1779264908.190411,2158,2188,3
1779264908.190689,2102,1974,3
1779264908.192018,2026,1806,3
1779264908.201473,2033,1881,3
1779264908.201719,2070,1984,3
1779264908.211895,2016,1848,3
1779264908.2120562,1985,1897,3
1779264908.212286,2046,2097,3
1779264908.212596,2160,2236,3
1779264908.212731,2130,1988,3
1779264908.212831,2046,1854,3
1779264908.2131252,2002,1858,3
1779264908.2132769,2064,1929,3
1779264908.215057,2033,1885,3
1779264908.2165918,2004,1753,3
1779264908.21855,2034,1934,3
1779264908.239126,2139,2207,3
1779264908.2392051,2166,2092,3
1779264908.2392588,2063,1890,3
1779264908.239309,2010,1840,3
1779264908.239358,2043,1918,3
1779264908.239406,2047,1857,3
1779264908.239454,1978,1754,3
1779264908.239501,2012,1886,3
1779264908.240439,2097,2109,3
1779264908.2404952,2170,2169,3
1779264908.241228,2097,1978,3
1779264908.2596889,2030,1892,3
1779264908.2598531,2020,1968,3
1779264908.260052,2078,1939,3
1779264908.26019,2046,1755,3
1779264908.260308,1993,1766,3
1779264908.260401,2056,2010,3
1779264908.260622,2163,2224,3
1779264908.260753,2136,2042,3
1779264908.261174,2052,1898,3
1779264908.261236,2000,1876,3
1779264908.262623,2065,1955,3
1779264908.26421,2034,1886,3
1779264908.275122,1991,1815,3
1779264908.2771761,2040,1971,3
1779264908.277909,2145,2217,3
1779264908.279455,2162,2132,3
1779264908.282788,2068,1929,3
1779264908.283264,2030,1840,3
1779264908.283639,2053,2011,3
1779264908.286937,2066,1983,3
1779264908.287029,2004,1833,3
1779264908.287102,2019,1931,3
1779264908.287298,2100,2156,3
1779264908.2887812,2188,2204,3
1779264908.293768,2110,2052,3
1779264908.297697,2025,1824,3
1779264908.299553,2051,1817,3
1779264908.302235,2067,1808,3
1779264908.3056588,2019,1692,3
1779264908.305928,1988,1691,3
1779264908.306302,2068,1894,3
1779264908.3092852,2156,2116,3
1779264908.3094149,2122,1871,3
1779264908.3094988,2032,1694,3
1779264908.311599,2001,1701,3
1779264908.3130739,2056,1840,3
1779264908.314636,2049,1851,3
1779264908.334189,1981,1787,3
1779264908.335202,2031,1890,3
1779264908.3353658,2126,2086,3
1779264908.3354828,2145,2028,3
1779264908.3356118,2063,1755,3
1779264908.33568,2009,1671,3
1779264908.335731,2048,1867,3
1779264908.3357792,2063,1733,3
1779264908.335829,2000,1608,3
1779264908.335996,2001,1670,3
1779264908.336086,2083,2098,3
1779264908.34703,2184,2094,3
1779264908.355232,2100,1834,3
1779264908.358271,2027,1654,3
1779264908.3584058,2000,1812,3
1779264908.358508,2044,2096,3
1779264908.3585851,1991,1776,3
1779264908.358656,1979,1722,3
1779264908.3587599,2040,2058,3
1779264908.358927,2147,2125,3
1779264908.358997,2122,1952,3
1779264908.359086,2042,1657,3
1779264908.36047,2025,1625,3
1779264908.363179,2075,2101,3
1779264908.379573,2098,1915,3
1779264908.3806322,2020,1715,3
1779264908.383915,2050,1813,3
1779264908.384011,2114,2116,3
1779264908.384085,2182,2165,3
1779264908.384334,2080,1867,3
1779264908.3844962,1977,1796,3
1779264908.384615,2080,1757,3
1779264908.384703,2080,1837,3
1779264908.38483,1974,1693,3
1779264908.385015,1980,1520,3
1779264908.3865001,2075,2251,3
1779264908.405641,2206,2271,3
1779264908.406517,2153,1937,3
1779264908.4065971,2086,1766,3
1779264908.4066749,2044,1692,3
1779264908.406816,2046,1870,3
1779264908.406888,2002,1864,3
1779264908.40703,2006,1851,3
1779264908.407094,2084,1945,3
1779264908.4071732,2144,2125,3
1779264908.407281,2092,1945,3
1779264908.4086342,2026,1708,3
1779264908.409972,2015,1900,3
1779264908.419049,2079,1965,3
1779264908.431208,2047,1874,3
1779264908.4314508,2014,1737,3
1779264908.4315321,2049,1746,3
1779264908.4316401,2129,2211,3
1779264908.431732,2094,2136,3
1779264908.431902,2125,1909,3
1779264908.432045,2035,1882,3
1779264908.4321651,2012,1962,3
1779264908.432239,2045,1972,3
1779264908.4323158,1977,1785,3
1779264908.449248,1983,1870,3
1779264908.452641,2105,2053,3
1779264908.4528341,2162,2278,3
1779264908.4529889,2132,1953,3
1779264908.453064,1998,1870,3
1779264908.453262,1932,1830,3
1779264908.453407,1998,1974,3
1779264908.4536161,1984,1907,3
1779264908.453672,1993,1715,3
1779264908.4538162,2073,2247,3
1779264908.4539351,2225,2316,3
1779264908.457938,2211,2067,3
1779264908.4582982,2096,1885,3
1779264908.475211,2037,1778,3
1779264908.479245,2071,2052,3
1779264908.479546,2065,1890,3
1779264908.4799948,1986,1853,3
1779264908.4800682,2007,1991,3
1779264908.480532,2151,2247,3
1779264908.480918,2148,2227,3
1779264908.481007,2059,1997,3
1779264908.481107,1990,2006,3
1779264908.48118,2055,2042,3
1779264908.481251,2095,2100,3
1779264908.500767,2015,1765,3
1779264908.500875,2019,2026,3
1779264908.5011468,2105,2264,3
1779264908.5012538,2138,2318,3
1779264908.501326,2112,2146,3
1779264908.501468,2051,1938,3
1779264908.5015318,2042,2028,3
1779264908.5016708,2117,2164,3
1779264908.5018728,2038,1982,3
1779264908.502031,1984,2044,3
1779264908.502122,2059,2200,3
1779264908.504756,2155,2363,3
1779264908.506119,2134,2188,3
1779264908.516632,2075,1987,3
1779264908.5190542,2021,1952,3
1779264908.5228229,2056,2160,3
1779264908.527652,2068,2062,3
1779264908.528416,2040,1968,3
1779264908.531584,2053,2118,3
1779264908.532198,2136,2358,3
1779264908.53228,2153,2292,3
1779264908.5325491,2038,2082,3
1779264908.532671,2003,1975,3
1779264908.532746,2016,2132,3
1779264908.532812,2046,2230,3
1779264908.532969,1994,2056,3
1779264908.534327,2006,2147,3
1779264908.54164,2124,2389,3
1779264908.54397,2188,2623,3
1779264908.548984,2173,2254,3
1779264908.553489,2114,2202,3
1779264908.554113,2101,2206,3
1779264908.5572171,2054,2279,3
1779264908.557573,1950,2132,3
1779264908.557652,1964,2156,3
1779264908.557759,2099,2425,3
1779264908.5578518,2146,2689,3
1779264908.557944,2111,2482,3
1779264908.558035,2049,2251,3
1779264908.560694,2023,2214,3
1779264908.562195,2012,2399,3
1779264908.583337,2051,2324,3
1779264908.583769,2015,2223,3
1779264908.583909,2017,2515,3
1779264908.584022,2049,2692,3
1779264908.584198,2088,2549,3
1779264908.584337,2110,2280,3
1779264908.5843892,2033,2265,3
1779264908.584539,1999,2430,3
1779264908.584715,2076,2493,3
1779264908.584822,2087,2191,3
1779264908.5849001,2021,2234,3
1779264908.586496,2059,2439,3
1779264908.5925262,2133,2517,3
1779264908.5949829,2078,2480,3
1779264908.599936,2070,2133,3
1779264908.603146,1994,2043,3
1779264908.603507,2019,2342,3
1779264908.603976,2035,2281,3
1779264908.6044018,2032,2258,3
1779264908.606713,2092,2286,3
1779264908.6075552,2137,2529,3
1779264908.607744,2080,2361,3
1779264908.607903,2083,2190,3
1779264908.610493,2002,2273,3
1779264908.61221,2039,2497,3
1779264908.6185331,2048,2305,3
1779264908.6196742,2026,2098,3
1779264908.6207302,2058,2298,3
1779264908.623308,2185,2654,3
1779264908.623708,2240,2461,3
1779264908.626339,2042,2224,3
1779264908.628038,1999,2141,3
1779264908.6312351,2037,2320,3
1779264908.631543,2090,2443,3
1779264908.6348412,2050,2417,3
1779264908.635016,2079,2462,3
1779264908.636349,2114,2689,3
1779264908.6459908,2151,2789,3
1779264908.6538072,2028,2559,3
1779264908.6541162,2039,2455,3
1779264908.654592,2092,2482,3
1779264908.654885,2048,2919,3
1779264908.655234,1919,3040,3
1779264908.658101,1933,3141,3
1779264908.658464,2057,3447,3
1779264908.658665,2215,3323,3
1779264908.658716,2228,3319,3
1779264908.658794,1943,3369,3
1779264908.660116,1942,3262,3
1779264908.662716,2111,3199,3
1779264908.664219,2020,3514,3
1779264908.669757,1962,3475,3
1779264908.671624,2025,3690,3
1779264908.674077,2165,3804,3
1779264908.674314,2210,3826,3
1779264908.6746051,2093,3518,3
1779264908.682264,1995,3507,3
1779264908.68297,2128,3772,3
1779264908.683226,2115,4095,3
1779264908.686362,1956,4095,3
1779264908.6865,1956,4095,3
1779264908.686638,2112,4095,3
1779264908.6879601,2029,4095,3
1779264908.695199,2117,3865,3
1779264908.6958342,2035,3771,3
1779264908.702218,2122,3839,3
1779264908.7053409,2189,4014,3
1779264908.70556,2280,4095,3
1779264908.7058911,2133,4095,3
1779264908.7064571,2095,4095,3
1779264908.70681,1923,4095,3
1779264908.709737,1934,4021,3
1779264908.709836,2094,3938,3
1779264908.709962,2043,3931,3
1779264908.7126138,2048,3999,3
1779264908.714048,1953,4092,3
1779264908.722048,1886,4095,3
1779264908.726437,1979,4095,3
1779264908.7325618,2476,4095,3
1779264908.7327769,2172,4084,3
1779264908.733112,1917,4024,3
1779264908.733367,2135,4000,3
1779264908.733721,2126,4017,3
1779264908.736863,1965,4059,3
1779264908.737086,1857,4095,3
1779264908.737217,1874,4095,3
1779264908.737269,2014,4095,3
1779264908.738602,2129,4095,3
1779264908.744239,2210,4064,3
1779264908.745394,1935,4041,3
1779264908.748377,2050,4022,3
1779264908.751182,2046,4055,3
1779264908.755935,1913,4078,3
1779264908.75657,2194,4095,3
1779264908.756785,2272,4073,3
1779264908.7601979,2254,3907,3
1779264908.7602718,2143,3621,3
1779264908.7603252,2079,3472,3
1779264908.760376,1974,3475,3
1779264908.76304,1994,3425,3
1779264908.764385,1985,3524,3
1779264908.775286,1984,3505,3
1779264908.785573,1995,3400,3
1779264908.785716,2114,3111,3
1779264908.785782,2177,2951,3
1779264908.785992,2149,2933,3
1779264908.786182,2106,2818,3
1779264908.786289,2119,2779,3
1779264908.786377,2084,2679,3
1779264908.7864928,2024,2946,3
1779264908.786551,1984,3053,3
1779264908.7865999,1980,2746,3
1779264908.807144,2077,2498,3
1779264908.807256,2034,2672,3
1779264908.807334,1993,2720,3
1779264908.807412,2082,2406,3
1779264908.807473,2144,2619,3
1779264908.8075452,2003,2965,3
1779264908.8077078,1994,2905,3
1779264908.8078258,1975,2851,3
1779264908.807879,2149,2578,3
1779264908.807929,2123,2323,3
1779264908.807976,2085,2624,3
1779264908.810766,2012,2661,3
1779264908.812124,1967,2494,3
1779264908.8287418,2017,2602,3
1779264908.832101,2036,2794,3
1779264908.8331032,2071,2711,3
1779264908.833196,2124,2449,3
1779264908.833341,2216,2366,3
1779264908.833623,2179,2414,3
1779264908.8337438,2074,2274,3
1779264908.833813,2075,2409,3
1779264908.8340101,2276,2324,3
1779264908.834112,2091,2506,3
1779264908.834267,2069,2561,3
1779264908.851246,2110,2343,3
1779264908.854701,2232,2184,3
1779264908.854808,2099,2260,3
1779264908.854891,1989,2355,3
1779264908.854958,1990,2359,3
1779264908.855077,2034,2364,3
1779264908.855325,2001,2322,3
1779264908.855382,1874,2300,3
1779264908.8555672,1987,2094,3
1779264908.855647,2220,1912,3
1779264908.855892,2245,2134,3
1779264908.858953,2123,2168,3
1779264908.860513,2082,2230,3
1779264908.8745081,2052,1969,3
1779264908.882853,2043,2000,3
1779264908.882925,1990,2256,3
1779264908.882977,1977,2229,3
1779264908.883026,2115,1844,3
1779264908.883235,2048,1606,3
1779264908.883286,2077,2185,3
1779264908.8833332,2103,2126,3
1779264908.883455,1992,1856,3
1779264908.8835032,1959,2017,3
1779264908.88367,2077,2264,3
1779264908.88412,2182,2001,3
1779264908.904431,2210,1598,3
1779264908.904641,2173,1858,3
1779264908.9048169,2081,2115,3
1779264908.905088,2195,1962,3
1779264908.905216,2189,1905,3
1779264908.905407,2148,1775,3
1779264908.905471,1965,1745,3
1779264908.90556,1970,1718,3
1779264908.905643,1984,1829,3
1779264908.9056919,2028,1897,3
1779264908.9057422,2097,1762,3
1779264908.90867,2125,1780,3
1779264908.910074,1953,1831,3
1779264908.91743,1921,1873,3
1779264908.919829,1975,1909,3
1779264908.921887,2092,1884,3
1779264908.923926,2204,1985,3
1779264908.927191,2247,1643,3
1779264908.927673,2184,1871,3
1779264908.9282491,1839,1211,3
1779264908.928614,1024,1736,3
1779264908.931482,1651,2122,3
1779264908.931583,2112,1707,3
1779264908.931799,2379,2176,3
1779264908.942328,2260,2076,3
1779264908.9443269,2228,1941,3
1779264908.9496498,2340,1861,3
1779264908.950125,2307,1909,3
1779264908.950515,2347,2015,3
1779264908.9534369,2312,2126,3
1779264908.953661,2008,1939,3
1779264908.953769,1683,1896,3
1779264908.953836,1606,2015,3
1779264908.9539351,1824,1909,3
1779264908.954018,2003,1669,3
1779264908.956637,2089,1873,3
1779264908.957982,2188,1715,3
1779264908.9665012,2019,2016,3
1779264908.969308,2014,2080,3
1779264908.9695628,1864,2193,3
1779264908.9717162,1923,2129,3
1779264908.974006,2017,1944,3
1779264908.9773061,2071,2003,3
1779264908.978102,2176,1934,3
1779264908.9785962,2179,1828,3
1779264908.981696,1976,2189,3
1779264908.981795,2044,2170,3
1779264908.98194,2233,2231,3
1779264908.982114,2066,2178,3
1779264908.988717,1880,2076,3
1779264908.989865,2021,1987,3
1779264908.9908822,1993,2022,3
1779264908.9943612,1771,2313,3
1779264908.9949892,1862,2091,3
1779264908.99734,2219,2000,3
1779264909.001076,2311,2140,3
1779264909.001377,1984,2310,3
1779264909.0017998,1666,2283,3
1779264909.0040672,1852,1978,3
1779264909.0047219,2165,1909,3
1779264909.0061388,2162,2033,3
1779264909.0087302,1938,2145,3
1779264909.0100951,2038,2269,3
1779264909.021505,1914,2018,3
1779264909.023802,1945,2286,3
1779264909.0275378,1985,2551,3
1779264909.028039,2074,2049,3
1779264909.028502,1986,1883,3
1779264909.031586,2074,2198,3
1779264909.031699,2305,2336,3
1779264909.031821,2335,2255,3
1779264909.031969,2217,2168,3
1779264909.032237,2001,2580,3
1779264909.032287,1811,2479,3
1779264909.038995,1878,2346,3
1779264909.0424051,2122,2011,3
1779264909.04442,2152,2089,3
1779264909.046591,1714,2281,3
1779264909.0468638,1683,2517,3
1779264909.050177,1981,2306,3
1779264909.050619,2321,2104,3
1779264909.050999,2365,2409,3
1779264909.051274,2263,2506,3
1779264909.0579982,2097,2129,3
1779264909.058075,2117,1930,3
1779264909.0581279,2192,2143,3
1779264909.058178,2101,2334,3
1779264909.0597918,2058,2295,3
1779264909.081301,2001,2082,3
1779264909.081672,1874,2094,3
1779264909.08176,1782,2224,3
1779264909.0819619,1922,2111,3
1779264909.08206,2020,1813,3
1779264909.082131,2067,1871,3
1779264909.0821939,1876,2079,3
1779264909.0822558,1758,2235,3
1779264909.0823739,1979,2143,3
1779264909.0824928,1998,1728,3
1779264909.082625,1761,1960,3
1779264909.084246,1757,2046,3
1779264909.10234,2234,1642,3
1779264909.102556,2480,1853,3
1779264909.1027021,2243,1796,3
1779264909.1027682,1971,1875,3
1779264909.102849,2001,1657,3
1779264909.103019,2068,1565,3
1779264909.103095,1986,1825,3
1779264909.103169,2106,1962,3
1779264909.103343,2015,1793,3
1779264909.10467,1878,1351,3
1779264909.106081,2101,1424,3
1779264909.1081111,2077,1779,3
1779264909.127564,2064,1600,3
1779264909.127878,1923,1838,3
1779264909.1281679,1981,1794,3
1779264909.128355,2062,1927,3
1779264909.1284428,1841,1801,3
1779264909.12851,1946,1562,3
1779264909.128618,1829,1480,3
1779264909.128693,1986,1750,3
1779264909.128784,2081,1836,3
1779264909.1288478,2264,1843,3
1779264909.130486,2157,1781,3
1779264909.149365,2215,1715,3
1779264909.149535,2186,1820,3
1779264909.149636,2085,1675,3
1779264909.149716,2157,1435,3
1779264909.149786,2109,1868,3
1779264909.149912,2036,1592,3
1779264909.149982,1936,2024,3
1779264909.150084,1789,1581,3
1779264909.150151,1536,1568,3
1779264909.1502259,1861,1642,3
1779264909.151659,2310,1576,3
1779264909.1543128,2498,1669,3
1779264909.164897,2296,1497,3
1779264909.175703,2121,1717,3
1779264909.1758149,2114,1885,3
1779264909.175929,2115,1831,3
1779264909.176072,2021,1628,3
1779264909.176144,1876,1679,3
1779264909.1763608,1537,1670,3
1779264909.176459,1676,1653,3
1779264909.1765718,2092,1564,3
1779264909.176645,2245,1721,3
1779264909.176749,2221,1745,3
1779264909.178238,2041,1824,3
1779264909.1945899,2154,1826,3
1779264909.19781,2177,1874,3
1779264909.197899,2159,2017,3
1779264909.197973,2228,1649,3
1779264909.198038,2108,1591,3
1779264909.1981492,2000,1926,3
1779264909.198288,1872,1869,3
1779264909.1983519,1853,1739,3
1779264909.198476,1700,1632,3
1779264909.198598,1245,2029,3
1779264909.200026,1627,1836,3
1779264909.202486,2315,1799,3
1779264909.208435,2596,1397,3
1779264909.217031,2477,1735,3
1779264909.224391,2262,1732,3
1779264909.2245362,2073,1809,3
1779264909.2246232,2171,1876,3
1779264909.224693,2257,1917,3
1779264909.224755,2268,1854,3
1779264909.2248142,2096,1740,3
1779264909.225641,1767,1519,3
1779264909.225773,1862,1765,3
1779264909.225863,1948,1939,3
1779264909.2259572,1847,1881,3
1779264909.239594,2094,1889,3
1779264909.2461178,2270,1622,3
1779264909.246926,2196,2054,3
1779264909.247007,2149,2052,3
1779264909.247086,2120,1646,3
1779264909.247235,2012,1531,3
1779264909.247472,1900,1775,3
1779264909.2475362,1862,2018,3
1779264909.2475882,1871,1984,3
1779264909.247638,2039,1857,3
1779264909.247689,2102,2103,3
1779264909.2504041,2066,2093,3
1779264909.251816,2076,1833,3
1779264909.272587,2139,1667,3
1779264909.2727182,2238,1890,3
1779264909.272795,2171,1951,3
1779264909.272888,1990,1994,3
1779264909.2729778,1943,1837,3
1779264909.273121,2048,2079,3
1779264909.273327,1831,2134,3
1779264909.27345,1690,1843,3
1779264909.2735841,2093,1701,3
1779264909.273723,2432,1791,3
1779264909.2738361,2174,1999,3
1779264909.294572,2025,2070,3
1779264909.294716,1819,2015,3
1779264909.294833,1961,1790,3
1779264909.2950091,2039,1696,3
1779264909.295082,2236,1698,3
1779264909.2952168,2128,2267,3
