timestamp,ch1,ch2,label
1779264963.3333702,2095,2159,3_S
1779264963.3334541,2065,2151,3_S
1779264963.339484,2085,2013,3_S
1779264963.3426461,2079,2123,3_S
1779264963.345282,2031,2200,3_S
1779264963.348138,2035,1988,3_S
1779264963.3487759,2158,1695,3_S
1779264963.3510542,2190,1819,3_S
1779264963.351867,2128,2073,3_S
1779264963.3519769,2056,2175,3_S
1779264963.352055,2070,2070,3_S
1779264963.352119,2081,2092,3_S
1779264963.354811,2037,2282,3_S
1779264963.3563101,2044,2108,3_S
1779264963.370309,2113,1823,3_S
1779264963.373518,2200,1732,3_S
1779264963.373575,2131,2031,3_S
1779264963.373615,2060,2151,3_S
1779264963.3736541,2061,2100,3_S
1779264963.374298,2106,2019,3_S
1779264963.374408,2069,2172,3_S
1779264963.3744798,2058,2133,3_S
1779264963.3746,2111,1820,3_S
1779264963.3759959,2210,1614,3_S
1779264963.388418,2181,1907,3_S
1779264963.3914309,2092,2120,3_S
1779264963.391742,2061,2148,3_S
1779264963.391871,2099,2016,3_S
1779264963.392016,2089,2124,3_S
1779264963.3921149,2040,2192,3_S
1779264963.3922298,2072,1944,3_S
1779264963.392334,2189,1637,3_S
1779264963.395078,2199,1789,3_S
1779264963.396508,2112,2072,3_S
1779264963.3979158,2075,2187,3_S
1779264963.4033332,2086,2063,3_S
1779264963.4056928,2101,2127,3_S
1779264963.4098592,2041,2319,3_S
1779264963.410538,2045,2143,3_S
1779264963.413242,2152,1821,3_S
1779264963.413294,2212,1721,3_S
1779264963.413437,2134,2012,3_S
1779264963.41457,2086,2091,3_S
1779264963.41678,2082,2082,3_S
1779264963.4181602,2115,2015,3_S
1779264963.4258418,2077,2176,3_S
1779264963.426392,2046,2138,3_S
1779264963.430739,2119,1846,3_S
1779264963.4312599,2224,1648,3_S
1779264963.431805,2198,1951,3_S
1779264963.434108,2120,2129,3_S
1779264963.434192,2083,2147,3_S
1779264963.4342778,2116,1954,3_S
1779264963.4370618,2104,2100,3_S
1779264963.438389,2043,2174,3_S
1779264963.445916,2082,1991,3_S
1779264963.448277,2182,1730,3_S
1779264963.4508932,2201,1794,3_S
1779264963.451503,2124,2095,3_S
1779264963.452189,2083,2114,3_S
1779264963.4543738,2087,1946,3_S
1779264963.455174,2092,2011,3_S
1779264963.455295,2047,2234,3_S
1779264963.456779,2022,2014,3_S
1779264963.458359,2127,1681,3_S
1779264963.461341,2223,1625,3_S
1779264963.475966,2149,1984,3_S
1779264963.4760692,2060,2162,3_S
1779264963.4761379,2035,2094,3_S
1779264963.476201,2072,1976,3_S
1779264963.4762628,2053,2198,3_S
1779264963.476325,2051,2099,3_S
1779264963.476387,2099,1812,3_S
1779264963.4764469,2197,1606,3_S
1779264963.4786282,2154,1937,3_S
1779264963.4800692,2067,2150,3_S
1779264963.4983401,2046,2162,3_S
1779264963.4984488,2097,1999,3_S
1779264963.498516,2078,2095,3_S
1779264963.498579,2028,2195,3_S
1779264963.4986398,2063,1937,3_S
1779264963.498699,2178,1631,3_S
1779264963.4987578,2212,1720,3_S
1779264963.498817,2117,1984,3_S
1779264963.4988768,2068,2122,3_S
1779264963.500316,2094,1994,3_S
1779264963.530991,2113,2048,3_S
1779264963.531049,2056,2230,3_S
1779264963.531094,2063,2135,3_S
1779264963.531136,2147,1836,3_S
1779264963.531179,2221,1746,3_S
1779264963.531221,2166,1998,3_S
1779264963.531262,2102,2104,3_S
1779264963.531307,2084,2057,3_S
1779264963.531348,2128,1977,3_S
1779264963.53139,2080,2142,3_S
1779264963.53143,2065,2115,3_S
1779264963.531471,2140,1816,3_S
1779264963.531512,2227,1581,3_S
1779264963.531553,2212,1871,3_S
1779264963.531594,2124,2085,3_S
1779264963.579509,2070,2114,3_S
1779264963.5795882,2143,1961,3_S
1779264963.579637,2122,2030,3_S
1779264963.57968,2075,2156,3_S
1779264963.5797231,2112,1891,3_S
1779264963.619023,2218,1590,3_S
1779264963.619123,2239,1732,3_S
1779264963.619189,2145,2013,3_S
1779264963.619254,2110,2149,3_S
1779264963.619314,2137,2011,3_S
1779264963.619842,2125,2013,3_S
1779264963.61991,2071,2242,3_S
1779264963.62002,2079,2021,3_S
1779264963.6201081,2173,1775,3_S
1779264963.620169,2233,1702,3_S
1779264963.620241,2151,1959,3_S
1779264963.620439,2105,2108,3_S
1779264963.620509,2090,2089,3_S
1779264963.620571,2141,1918,3_S
1779264963.620631,2068,2089,3_S
1779264963.6206899,2044,2095,3_S
1779264963.620748,2137,1819,3_S
1779264963.620807,2251,1586,3_S
1779264963.620865,2224,1868,3_S
1779264963.620924,2152,2086,3_S
1779264963.620982,2095,2138,3_S
1779264963.62104,2142,1998,3_S
1779264963.621098,2136,2075,3_S
1779264963.62116,2082,2085,3_S
1779264963.6212192,2118,1927,3_S
1779264963.622236,2246,1702,3_S
1779264963.6223218,2244,1860,3_S
1779264963.622369,2137,2068,3_S
1779264963.6224132,2080,2156,3_S
1779264963.622454,2104,1971,3_S
1779264963.622496,2132,2022,3_S
1779264963.622537,2070,2206,3_S
1779264963.622578,2072,2030,3_S
1779264963.622619,2155,1714,3_S
1779264963.6226602,2233,1627,3_S
1779264963.6227,2155,1961,3_S
1779264963.62274,2103,2150,3_S
1779264963.622783,2090,2104,3_S
1779264963.622824,2153,1990,3_S
1779264963.622865,2071,2272,3_S
1779264963.622905,2068,2207,3_S
1779264963.6259289,2132,1866,3_S
1779264963.6260748,2252,1629,3_S
1779264963.628719,2209,1825,3_S
1779264963.6301188,2094,2102,3_S
1779264963.638962,2075,2097,3_S
1779264963.640821,2134,1970,3_S
1779264963.643021,2139,2045,3_S
1779264963.646934,2065,2107,3_S
1779264963.650557,2103,1857,3_S
1779264963.6506612,2216,1611,3_S
1779264963.650785,2239,1800,3_S
1779264963.6508968,2153,2069,3_S
1779264963.6510222,2091,2078,3_S
1779264963.6511528,2089,1962,3_S
1779264963.6526139,2118,2086,3_S
1779264963.6604888,2074,2276,3_S
1779264963.662522,2070,2105,3_S
1779264963.665202,2163,1765,3_S
1779264963.668015,2240,1638,3_S
1779264963.6687858,2183,1999,3_S
1779264963.671496,2099,2172,3_S
1779264963.671649,2110,2094,3_S
1779264963.671791,2148,2002,3_S
1779264963.671934,2106,2164,3_S
1779264963.6720588,2077,2074,3_S
1779264963.674846,2130,1757,3_S
1779264963.6762261,2233,1581,3_S
1779264963.683708,2188,1916,3_S
1779264963.685923,2108,2138,3_S
1779264963.691566,2100,2093,3_S
1779264963.692159,2126,1961,3_S
1779264963.6939478,2105,2172,3_S
1779264963.696202,2050,2213,3_S
1779264963.697073,2091,1962,3_S
1779264963.697166,2212,1649,3_S
1779264963.69749,2230,1863,3_S
1779264963.697649,2148,2052,3_S
1779264963.699025,2084,2119,3_S
1779264963.707268,2102,1956,3_S
1779264963.713151,2130,2043,3_S
1779264963.7140858,2068,2254,3_S
1779264963.714457,2064,2111,3_S
1779264963.7146811,2148,1780,3_S
1779264963.716819,2217,1737,3_S
1779264963.717772,2132,2047,3_S
1779264963.717859,2098,2154,3_S
1779264963.7180622,2121,2085,3_S
1779264963.718133,2149,1945,3_S
1779264963.720907,2101,2099,3_S
1779264963.722267,2066,2067,3_S
1779264963.729496,2124,1804,3_S
1779264963.7368598,2294,1512,3_S
1779264963.737622,2239,1915,3_S
1779264963.7382169,2130,2104,3_S
1779264963.741046,2075,2179,3_S
1779264963.741188,2143,2001,3_S
1779264963.741313,2139,2203,3_S
1779264963.741428,2088,2248,3_S
1779264963.741538,2114,2028,3_S
1779264963.74295,2217,1711,3_S
1779264963.7444081,2242,1847,3_S
1779264963.7457962,2159,2106,3_S
1779264963.752534,2104,2192,3_S
1779264963.754551,2098,2076,3_S
1779264963.7597911,2116,2117,3_S
1779264963.760704,2068,2267,3_S
1779264963.7636118,2062,2036,3_S
1779264963.7637918,2172,1758,3_S
1779264963.763936,2228,1743,3_S
1779264963.7641249,2150,2032,3_S
1779264963.7643661,2089,2179,3_S
1779264963.766908,2086,2089,3_S
1779264963.768296,2124,1974,3_S
1779264963.7767391,2055,2225,3_S
1779264963.782909,2022,2131,3_S
1779264963.7836852,2102,1821,3_S
1779264963.786426,2226,1614,3_S
1779264963.7865548,2171,1911,3_S
1779264963.786697,2091,2161,3_S
1779264963.786771,2072,2176,3_S
1779264963.786836,2122,1982,3_S
1779264963.786942,2114,2149,3_S
1779264963.788327,2056,2243,3_S
1779264963.791043,2067,1999,3_S
1779264963.7996411,2196,1740,3_S
1779264963.8022459,2192,1892,3_S
1779264963.8058739,2121,2132,3_S
1779264963.809124,2047,2202,3_S
1779264963.809391,2068,1974,3_S
1779264963.8095329,2090,2059,3_S
1779264963.809651,2044,2249,3_S
1779264963.8097951,2048,2135,3_S
1779264963.809896,2150,1761,3_S
1779264963.810034,2234,1718,3_S
1779264963.812715,2128,1985,3_S
1779264963.814073,2068,2141,3_S
1779264963.82268,2079,2144,3_S
1779264963.8266811,2130,2033,3_S
1779264963.8289962,2056,2254,3_S
1779264963.829477,2047,2179,3_S
1779264963.830059,2097,1843,3_S
1779264963.832841,2175,1713,3_S
1779264963.8331468,2176,1981,3_S
1779264963.833279,2114,2115,3_S
1779264963.8333938,2062,2138,3_S
1779264963.834789,2094,2012,3_S
1779264963.84108,2057,2148,3_S
1779264963.846133,2002,2235,3_S
1779264963.8465931,2059,1989,3_S
1779264963.851507,2190,1655,3_S
1779264963.8516119,2219,1830,3_S
1779264963.8519459,2140,2126,3_S
1779264963.852001,2063,2210,3_S
1779264963.852045,2086,2045,3_S
1779264963.852088,2106,2091,3_S
1779264963.854743,2040,2290,3_S
1779264963.8562481,2051,2200,3_S
1779264963.86477,2130,1800,3_S
1779264963.869053,2160,1791,3_S
1779264963.874196,2130,2111,3_S
1779264963.874301,2040,2228,3_S
1779264963.8743849,2065,2091,3_S
1779264963.874453,2109,2018,3_S
1779264963.874516,2061,2268,3_S
1779264963.874578,2034,2153,3_S
1779264963.87464,2111,1866,3_S
1779264963.876029,2207,1640,3_S
1779264963.878856,2188,1909,3_S
1779264963.884508,2086,2111,3_S
1779264963.885567,2063,2195,3_S
1779264963.894112,2040,2074,3_S
1779264963.897994,2041,2177,3_S
1779264963.898085,2030,2179,3_S
1779264963.898134,2042,1951,3_S
1779264963.898178,2149,1626,3_S
1779264963.898221,2199,1817,3_S
1779264963.898262,2085,2000,3_S
1779264963.898305,2016,2215,3_S
1779264963.899861,2050,2046,3_S
1779264963.9020312,2092,2119,3_S
1779264963.916822,2035,2287,3_S
1779264963.919637,2044,2097,3_S
1779264963.919722,2119,1805,3_S
1779264963.919787,2194,1767,3_S
1779264963.9198499,2128,2077,3_S
1779264963.91991,2073,2174,3_S
1779264963.919969,2053,2106,3_S
1779264963.9200299,2108,1999,3_S
1779264963.920097,2069,2201,3_S
1779264963.921907,2020,2186,3_S
1779264963.924808,2084,1911,3_S
1779264963.934291,2195,1687,3_S
1779264963.934798,2156,1994,3_S
1779264963.941578,2054,2195,3_S
1779264963.942407,2040,2200,3_S
1779264963.9435148,2059,2051,3_S
1779264963.9464462,2068,2180,3_S
1779264963.947337,2045,2279,3_S
1779264963.947646,2129,2061,3_S
1779264963.947745,2192,1716,3_S
1779264963.947812,2173,1923,3_S
1779264963.947874,2084,2183,3_S
1779264963.9479392,2051,2320,3_S
1779264963.960513,2039,2151,3_S
1779264963.9629009,2073,2118,3_S
1779264963.968284,1996,2320,3_S
1779264963.969297,2001,2090,3_S
1779264963.9694002,2111,1911,3_S
1779264963.969578,2192,1835,3_S
1779264963.969738,2110,2207,3_S
1779264963.969812,2045,2261,3_S
1779264963.9699452,2088,2236,3_S
1779264963.970023,2145,2136,3_S
1779264963.9700952,2077,2355,3_S
1779264963.9727628,2009,2318,3_S
1779264963.974157,2070,1968,3_S
1779264963.9821591,2208,1703,3_S
1779264963.984939,2121,2022,3_S
1779264963.992109,2019,2196,3_S
1779264963.992639,1993,2288,3_S
1779264963.993144,2060,2142,3_S
1779264963.99359,2030,2280,3_S
1779264963.996662,1986,2377,3_S
1779264963.9970071,2013,2151,3_S
1779264963.997074,2163,1880,3_S
1779264963.997281,2147,2024,3_S
1779264963.997351,2066,2319,3_S
1779264963.998883,2027,2372,3_S
1779264964.00558,2079,2286,3_S
1779264964.011379,2125,2358,3_S
1779264964.016026,1994,2428,3_S
1779264964.016834,1982,2361,3_S
1779264964.017185,2100,2148,3_S
1779264964.02051,2171,2036,3_S
1779264964.0206091,2123,2423,3_S
1779264964.020698,2032,2589,3_S
1779264964.0207858,2004,2546,3_S
1779264964.02085,2022,2519,3_S
1779264964.020919,1989,2850,3_S
1779264964.022284,1957,2766,3_S
1779264964.0236642,2047,2460,3_S
1779264964.02639,2160,2227,3_S
1779264964.0357819,2143,2549,3_S
1779264964.03637,2071,2689,3_S
1779264964.0384798,1989,2705,3_S
1779264964.040811,2044,2525,3_S
1779264964.043957,1990,2657,3_S
1779264964.044522,1983,2833,3_S
1779264964.045129,2010,2533,3_S
1779264964.0488682,2094,2220,3_S
1779264964.049207,2132,2289,3_S
1779264964.04934,2035,2559,3_S
1779264964.049398,2018,2712,3_S
1779264964.050742,2036,2575,3_S
1779264964.060513,2036,2594,3_S
1779264964.0679622,1966,2762,3_S
1779264964.068664,1969,2527,3_S
1779264964.0719008,2084,2351,3_S
1779264964.071996,2157,2255,3_S
1779264964.0720708,2109,2461,3_S
1779264964.07214,2031,2600,3_S
1779264964.072204,2018,2545,3_S
1779264964.072266,2089,2493,3_S
1779264964.072326,2027,2801,3_S
1779264964.072385,2000,2683,3_S
1779264964.0737438,2089,2310,3_S
1779264964.076402,2166,2040,3_S
1779264964.077894,2154,2407,3_S
1779264964.0869892,2062,2611,3_S
1779264964.087432,2003,2630,3_S
1779264964.09174,2012,2552,3_S
1779264964.0953238,2022,2702,3_S
1779264964.0958312,2004,2751,3_S
1779264964.0965178,2044,2375,3_S
1779264964.0993721,2088,2087,3_S
1779264964.0997708,2119,2244,3_S
1779264964.099901,2075,2515,3_S
1779264964.099989,2010,2609,3_S
1779264964.100064,2030,2365,3_S
1779264964.108059,2049,2417,3_S
1779264964.1083698,1968,2657,3_S
1779264964.1115992,1972,2420,3_S
1779264964.112167,2045,2129,3_S
1779264964.116506,2119,2101,3_S
1779264964.119933,2064,2384,3_S
1779264964.1204429,2007,2464,3_S
1779264964.1209972,1994,2446,3_S
1779264964.121669,2001,2368,3_S
1779264964.124762,1994,2642,3_S
1779264964.1248782,1993,2587,3_S
1779264964.124983,2052,2299,3_S
1779264964.126337,2183,1954,3_S
1779264964.1276999,2110,2181,3_S
1779264964.1303139,2000,2397,3_S
1779264964.138357,1985,2533,3_S
1779264964.1410291,2038,2339,3_S
1779264964.143323,2034,2454,3_S
1779264964.145764,1968,2445,3_S
1779264964.146312,2003,2141,3_S
1779264964.14657,2119,1796,3_S
1779264964.149794,2133,1893,3_S
1779264964.150294,2030,2352,3_S
1779264964.1507142,1977,2375,3_S
1779264964.151123,2021,2082,3_S
1779264964.153515,2046,2120,3_S
1779264964.154506,1935,2398,3_S
1779264964.155884,1894,2302,3_S
1779264964.1659222,2002,1954,3_S
1779264964.166622,2101,1900,3_S
1779264964.171314,2047,2110,3_S
1779264964.1748219,2004,2305,3_S
1779264964.175445,1983,2189,3_S
1779264964.176068,2076,2081,3_S
1779264964.1763341,2017,2332,3_S
1779264964.176672,1955,2272,3_S
1779264964.179203,2079,1916,3_S
1779264964.179994,2160,1678,3_S
1779264964.180126,2115,2039,3_S
1779264964.180397,1991,2168,3_S
1779264964.181855,1956,2138,3_S
1779264964.184534,1979,2075,3_S
1779264964.1859431,2004,2290,3_S
1779264964.192788,1964,2317,3_S
1779264964.196141,2013,2046,3_S
1779264964.198637,2133,1681,3_S
1779264964.201287,2136,1952,3_S
1779264964.2048068,2040,2204,3_S
1779264964.205327,2043,2233,3_S
1779264964.20596,2058,2066,3_S
1779264964.2093241,2054,2023,3_S
1779264964.2094321,1992,2238,3_S
1779264964.209544,1999,2055,3_S
1779264964.209623,2104,1700,3_S
1779264964.209687,2174,1638,3_S
1779264964.21766,2133,2091,3_S
1779264964.220549,2034,2278,3_S
1779264964.220813,2016,2138,3_S
1779264964.223525,2097,2001,3_S
1779264964.223779,2006,2215,3_S
1779264964.225495,1973,2147,3_S
1779264964.2288268,2058,1932,3_S
1779264964.229586,2127,1635,3_S
1779264964.229996,2121,1922,3_S
1779264964.232893,2033,2124,3_S
1779264964.233726,2039,2150,3_S
1779264964.233859,2134,1998,3_S
1779264964.236485,1998,2163,3_S
1779264964.237623,1927,2247,3_S
1779264964.2396622,2039,2031,3_S
1779264964.248994,2121,1665,3_S
1779264964.24966,2160,1775,3_S
1779264964.251848,2046,2143,3_S
1779264964.252649,1959,2145,3_S
1779264964.257875,1958,1992,3_S
1779264964.258595,2017,2271,3_S
1779264964.261858,1966,2409,3_S
1779264964.262003,2066,1991,3_S
1779264964.262086,2075,1645,3_S
1779264964.262151,2134,1616,3_S
1779264964.2622159,2051,1937,3_S
1779264964.2709498,1984,2351,3_S
1779264964.2758179,2015,2277,3_S
1779264964.283787,2080,2104,3_S
1779264964.284221,1988,2174,3_S
1779264964.284361,1998,2129,3_S
1779264964.284451,2086,1913,3_S
1779264964.284518,2137,1628,3_S
1779264964.2845829,2101,1922,3_S
1779264964.2847,2029,2121,3_S
1779264964.284777,2032,2138,3_S
1779264964.284847,2106,2025,3_S
1779264964.286211,2085,2097,3_S
1779264964.28756,1933,2188,3_S
1779264964.290524,1955,2182,3_S
1779264964.299115,2151,1855,3_S
1779264964.301555,2106,1808,3_S
1779264964.303807,2077,2037,3_S
1779264964.3076348,2010,2256,3_S
1779264964.3082938,2041,2153,3_S
1779264964.309134,1962,2245,3_S
1779264964.312143,1969,2420,3_S
1779264964.3124638,2003,2010,3_S
1779264964.312544,2157,1632,3_S
1779264964.312621,2200,1859,3_S
1779264964.312692,2152,2290,3_S
1779264964.3143492,2068,2248,3_S
1779264964.320653,2024,2185,3_S
1779264964.322329,2023,2053,3_S
1779264964.324699,1937,2376,3_S
1779264964.3319108,1951,2240,3_S
1779264964.335026,2057,1865,3_S
1779264964.336032,2179,1511,3_S
1779264964.336166,2090,1958,3_S
1779264964.336232,2064,2119,3_S
1779264964.3362932,1988,2162,3_S
1779264964.336353,2050,2051,3_S
1779264964.336412,2039,2217,3_S
1779264964.337761,2015,2269,3_S
1779264964.341037,2037,1956,3_S
1779264964.342452,2070,1663,3_S
1779264964.348822,2028,1996,3_S
1779264964.3522098,2011,2498,3_S
1779264964.352725,1953,2309,3_S
1779264964.354172,2053,2049,3_S
1779264964.365257,2010,1956,3_S
1779264964.365369,1987,2576,3_S
1779264964.365432,2114,2258,3_S
1779264964.365483,2206,1875,3_S
1779264964.365543,2273,1765,3_S
1779264964.3655932,2103,2279,3_S
1779264964.36564,1908,2299,3_S
1779264964.365688,1980,2337,3_S
1779264964.377792,2037,2300,3_S
1779264964.3816462,1954,2530,3_S
1779264964.3842208,1951,2379,3_S
1779264964.385078,2042,2021,3_S
1779264964.385159,2191,1896,3_S
1779264964.385225,2152,2259,3_S
1779264964.385289,2085,2471,3_S
1779264964.385408,2059,2502,3_S
1779264964.385553,2052,2404,3_S
1779264964.3856158,1931,2615,3_S
1779264964.388465,1921,2775,3_S
1779264964.389827,1879,2530,3_S
1779264964.3993979,1944,2197,3_S
1779264964.403639,2026,2464,3_S
1779264964.4107509,2187,2856,3_S
1779264964.4109461,2151,2991,3_S
1779264964.411078,2169,2848,3_S
1779264964.411145,2171,2972,3_S
1779264964.411207,2036,2925,3_S
1779264964.4112709,1929,2779,3_S
1779264964.411346,2058,2821,3_S
1779264964.411485,2001,2669,3_S
1779264964.411592,2074,2972,3_S
1779264964.424733,2004,3109,3_S
1779264964.437757,2065,3056,3_S
1779264964.438751,2094,3013,3_S
1779264964.438835,2115,3121,3_S
1779264964.438905,2061,2915,3_S
1779264964.438972,2167,2697,3_S
1779264964.439038,2180,2476,3_S
1779264964.4390972,2011,2844,3_S
1779264964.4391549,2058,2945,3_S
1779264964.439213,2102,2992,3_S
1779264964.439363,2036,2764,3_S
1779264964.439445,1537,2741,3_S
1779264964.43954,1598,2975,3_S
1779264964.439604,2017,2870,3_S
1779264964.4423249,2545,2262,3_S
1779264964.443702,2345,2374,3_S
1779264964.452823,2017,2831,3_S
1779264964.454853,1845,2635,3_S
1779264964.455251,1579,2490,3_S
1779264964.459446,1750,1894,3_S
1779264964.463331,1917,3019,3_S
1779264964.463726,2307,2772,3_S
1779264964.4643672,2234,2100,3_S
1779264964.46517,2121,1796,3_S
1779264964.468261,2222,2186,3_S
1779264964.4683561,2430,2374,3_S
1779264964.478004,2454,2333,3_S
1779264964.488811,2343,2365,3_S
1779264964.489532,2250,2543,3_S
1779264964.490078,2223,2457,3_S
1779264964.4930072,2014,2021,3_S
1779264964.493366,1840,1762,3_S
1779264964.493492,1858,1565,3_S
1779264964.493576,1854,2183,3_S
1779264964.493647,2003,2377,3_S
1779264964.493711,1979,1965,3_S
1779264964.493804,1830,1989,3_S
1779264964.4938781,1799,2290,3_S
1779264964.493998,1932,1324,3_S
1779264964.494074,1513,1342,3_S
1779264964.4941351,1842,2364,3_S
1779264964.495528,2309,1884,3_S
1779264964.498247,2353,2059,3_S
1779264964.506012,2222,2089,3_S
1779264964.508949,2180,2056,3_S
1779264964.5133288,2172,2317,3_S
1779264964.516973,2213,2169,3_S
1779264964.517636,2340,1705,3_S
1779264964.5184278,2348,1559,3_S
1779264964.521067,2096,1891,3_S
1779264964.5219789,1865,1938,3_S
1779264964.5221472,1710,1938,3_S
1779264964.5222468,1863,1709,3_S
1779264964.522316,1942,2080,3_S
1779264964.522379,2008,2076,3_S
1779264964.523815,2055,1767,3_S
1779264964.533186,2135,1265,3_S
1779264964.5338838,2045,1619,3_S
1779264964.537791,1911,2127,3_S
1779264964.5416808,1912,2038,3_S
1779264964.542015,1856,1801,3_S
1779264964.542481,1888,1927,3_S
1779264964.543045,1939,2054,3_S
1779264964.543377,2008,1790,3_S
1779264964.546525,2255,1585,3_S
1779264964.5468109,2189,1761,3_S
1779264964.546894,2001,2040,3_S
1779264964.54837,1906,2056,3_S
1779264964.549728,1947,1905,3_S
1779264964.55234,2063,1882,3_S
1779264964.559885,2020,2185,3_S
1779264964.5619268,2007,2227,3_S
1779264964.562273,2012,1725,3_S
1779264964.564956,2065,1366,3_S
1779264964.5668638,2116,1982,3_S
1779264964.57112,1943,1955,3_S
1779264964.571758,2034,2129,3_S
1779264964.572144,2201,2070,3_S
1779264964.57451,2080,2275,3_S
1779264964.575517,2043,2181,3_S
1779264964.57571,2116,1911,3_S
1779264964.575854,2048,1503,3_S
1779264964.586803,1902,1827,3_S
1779264964.589131,1840,2079,3_S
1779264964.594809,2115,2086,3_S
1779264964.595337,2145,1733,3_S
1779264964.596212,1879,1942,3_S
1779264964.599637,1754,2308,3_S
1779264964.599752,2038,1974,3_S
1779264964.5998342,2396,1566,3_S
1779264964.599915,2363,1898,3_S
1779264964.6000352,2252,2042,3_S
1779264964.6001542,2083,2368,3_S
1779264964.600256,2053,2158,3_S
1779264964.601629,1926,2078,3_S
1779264964.60433,1828,2331,3_S
1779264964.6055648,1959,1948,3_S
1779264964.612662,2079,1663,3_S
1779264964.61548,2066,1729,3_S
1779264964.618036,2054,2083,3_S
1779264964.624021,1905,2216,3_S
1779264964.627125,2023,2150,3_S
1779264964.627449,1938,1880,3_S
1779264964.62755,1914,2114,3_S
1779264964.627637,2028,2185,3_S
1779264964.627719,2269,1753,3_S
1779264964.6277912,2280,1395,3_S
1779264964.6278641,2128,1765,3_S
1779264964.635757,2090,2074,3_S
1779264964.636875,2039,2280,3_S
1779264964.63906,2072,1920,3_S
1779264964.64365,2017,2004,3_S
1779264964.6474502,1917,2072,3_S
1779264964.648001,1763,1670,3_S
1779264964.6486342,1660,1504,3_S
1779264964.6518478,1804,1572,3_S
1779264964.651964,2043,1908,3_S
1779264964.652043,2152,2060,3_S
1779264964.652118,2223,1724,3_S
1779264964.65219,2174,1681,3_S
1779264964.6535301,1885,1939,3_S
1779264964.656163,2016,1755,3_S
1779264964.6575239,2298,1455,3_S
1779264964.6637619,2398,1301,3_S
1779264964.666879,2130,1676,3_S
1779264964.6714408,1897,1780,3_S
1779264964.675101,1795,1894,3_S
1779264964.675879,1960,1591,3_S
1779264964.676646,1986,1947,3_S
1779264964.67705,2107,2051,3_S
1779264964.680353,2223,1757,3_S
1779264964.680449,2182,1310,3_S
1779264964.6805792,2065,1652,3_S
1779264964.6806972,1958,1958,3_S
1779264964.6821609,1968,1915,3_S
1779264964.691664,1966,1669,3_S
1779264964.694616,1937,1908,3_S
1779264964.696456,1843,1945,3_S
1779264964.700565,1883,1765,3_S
1779264964.700877,2035,1369,3_S
1779264964.701492,2266,1368,3_S
1779264964.7019641,2193,2101,3_S
1779264964.704451,1957,1973,3_S
1779264964.705486,1943,1805,3_S
1779264964.7056,2040,1892,3_S
1779264964.705751,2168,2067,3_S
1779264964.705823,2044,1780,3_S
1779264964.7084749,1937,1368,3_S
1779264964.709843,1931,1632,3_S
1779264964.722326,2022,1740,3_S
1779264964.731161,2040,2035,3_S
1779264964.735187,1862,1831,3_S
1779264964.7356539,1867,1726,3_S
1779264964.7360158,1937,2099,3_S
1779264964.7361228,2159,1965,3_S
1779264964.73631,2159,1701,3_S
1779264964.736407,2177,1536,3_S
1779264964.736507,2265,1857,3_S
1779264964.73668,2234,2053,3_S
1779264964.737,2122,2025,3_S
1779264964.737473,2189,1919,3_S
1779264964.737775,2168,2090,3_S
1779264964.7460291,2023,2046,3_S
1779264964.746976,1810,1758,3_S
1779264964.752334,1897,1439,3_S
1779264964.754997,2068,1545,3_S
1779264964.759425,2047,1986,3_S
1779264964.7601862,1985,2157,3_S
1779264964.7634728,1714,1767,3_S
1779264964.763579,1696,1810,3_S
1779264964.7636569,1925,2097,3_S
1779264964.763733,2355,1978,3_S
1779264964.763802,2364,1581,3_S
1779264964.7639391,2334,1605,3_S
1779264964.764083,2169,1959,3_S
1779264964.764203,2086,2075,3_S
1779264964.76561,2136,1925,3_S
1779264964.768246,2076,1817,3_S
1779264964.774626,2013,2160,3_S
1779264964.777067,1864,2181,3_S
1779264964.779566,1725,1654,3_S
1779264964.7817988,1847,1410,3_S
1779264964.7827132,1934,1823,3_S
1779264964.784906,2003,2166,3_S
1779264964.788925,1871,2057,3_S
1779264964.792408,1934,1816,3_S
1779264964.792784,1869,2053,3_S
1779264964.792863,1693,2204,3_S
1779264964.7929852,1817,1855,3_S
1779264964.793065,2298,1486,3_S
1779264964.794209,2576,1759,3_S
1779264964.795579,2225,1996,3_S
1779264964.8020961,2062,2283,3_S
1779264964.802297,2166,2016,3_S
1779264964.804932,1967,1750,3_S
1779264964.8072991,1984,1849,3_S
1779264964.8095272,2112,2233,3_S
1779264964.809922,2308,1786,3_S
1779264964.813973,2179,1552,3_S
1779264964.814707,1941,1850,3_S
1779264964.815134,1787,2067,3_S
1779264964.818291,1576,2127,3_S
1779264964.818371,2030,1942,3_S
1779264964.819742,2407,2347,3_S
1779264964.822359,2317,2201,3_S
1779264964.823759,2143,1790,3_S
1779264964.83138,2181,1605,3_S
1779264964.836139,2212,1926,3_S
1779264964.836454,2129,2051,3_S
1779264964.838835,2126,2305,3_S
1779264964.842887,2199,2115,3_S
1779264964.843596,2019,2165,3_S
1779264964.844128,1968,2148,3_S
1779264964.844625,1928,1912,3_S
1779264964.847571,1936,1448,3_S
1779264964.84797,1916,1641,3_S
1779264964.848215,1862,2101,3_S
1779264964.848334,1856,2145,3_S
1779264964.849751,1893,2077,3_S
1779264964.856538,1752,2127,3_S
1779264964.85981,1796,2206,3_S
1779264964.861936,1930,2019,3_S
1779264964.862239,2027,1769,3_S
1779264964.864576,2066,1727,3_S
1779264964.865094,2043,2052,3_S
1779264964.868741,2105,2095,3_S
1779264964.869187,2280,2071,3_S
1779264964.8697758,2289,2052,3_S
1779264964.8703418,2170,2330,3_S
1779264964.873622,2087,2143,3_S
1779264964.873787,2150,1840,3_S
1779264964.8764281,2033,1447,3_S
1779264964.877868,1894,1942,3_S
1779264964.8859031,2040,2285,3_S
1779264964.8889441,1973,2104,3_S
1779264964.891547,2005,1766,3_S
1779264964.8940191,2048,2038,3_S
1779264964.897951,2064,2110,3_S
1779264964.898518,2045,2052,3_S
1779264964.898848,2085,1657,3_S
1779264964.899246,2035,1863,3_S
1779264964.899831,1955,2227,3_S
1779264964.902879,1897,2277,3_S
1779264964.903022,1893,2135,3_S
1779264964.9031081,1983,2154,3_S
1779264964.903312,1816,2308,3_S
1779264964.911874,2018,2142,3_S
1779264964.91267,2150,1948,3_S
1779264964.917342,2298,1763,3_S
1779264964.9191418,2107,2047,3_S
1779264964.9231842,1976,2242,3_S
1779264964.923599,2041,2166,3_S
1779264964.924085,2083,1840,3_S
1779264964.924473,1960,2298,3_S
1779264964.925057,1951,2309,3_S
1779264964.928294,2047,1870,3_S
1779264964.928371,2049,1607,3_S
1779264964.928499,1970,2006,3_S
1779264964.9298072,2017,2160,3_S
1779264964.932288,2135,2079,3_S
1779264964.9336379,2098,1982,3_S
1779264964.940553,2081,2168,3_S
1779264964.943595,2020,2263,3_S
1779264964.944275,2072,2118,3_S
1779264964.949107,2140,1850,3_S
1779264964.9534059,2159,1930,3_S
1779264964.9539368,2139,2174,3_S
1779264964.954402,1980,2255,3_S
1779264964.95472,1958,2196,3_S
1779264964.9579048,1926,2062,3_S
1779264964.958087,1964,2220,3_S
1779264964.958226,2048,2230,3_S
1779264964.958294,2182,1822,3_S
1779264964.959695,2110,1865,3_S
1779264964.966201,2048,2025,3_S
1779264964.969614,2041,2221,3_S
1779264964.974779,2207,2166,3_S
1779264964.978993,2145,2159,3_S
1779264964.979655,1977,2445,3_S
1779264964.9801972,1957,2349,3_S
1779264964.9835799,2029,1923,3_S
1779264964.983797,2170,1731,3_S
1779264964.983922,2173,2121,3_S
1779264964.9840379,2073,2269,3_S
1779264964.9841769,2020,2335,3_S
1779264964.9842901,2005,2145,3_S
1779264964.9856489,1999,2256,3_S
1779264964.988275,2001,2247,3_S
1779264964.9899971,1965,2059,3_S
1779264964.998917,2096,1826,3_S
1779264965.0013819,2146,1964,3_S
1779264965.0037582,2072,2240,3_S
1779264965.008147,2064,2358,3_S
1779264965.011125,2098,2232,3_S
1779264965.0120351,2086,2228,3_S
1779264965.0121212,2018,2385,3_S
1779264965.012204,2011,2224,3_S
1779264965.012327,2142,1875,3_S
1779264965.0124748,2207,1866,3_S
1779264965.0125408,2126,2162,3_S
1779264965.014039,2036,2349,3_S
1779264965.023041,2008,2297,3_S
1779264965.025433,2063,2184,3_S
1779264965.027782,2035,2408,3_S
1779264965.03197,1980,2272,3_S
1779264965.0324109,2040,1976,3_S
1779264965.032701,2127,1726,3_S
1779264965.0334918,2100,2049,3_S
1779264965.036436,1993,2275,3_S
1779264965.036801,1955,2238,3_S
1779264965.036881,2018,2076,3_S
1779264965.036951,2004,2142,3_S
1779264965.038333,1947,2229,3_S
1779264965.0396721,2019,2019,3_S
1779264965.042288,2087,1750,3_S
1779264965.051889,2170,1969,3_S
1779264965.056289,2077,2160,3_S
1779264965.060349,2038,2335,3_S
1779264965.06074,2022,2116,3_S
1779264965.061426,2024,2037,3_S
1779264965.06176,1898,2143,3_S
1779264965.0624058,1899,2336,3_S
1779264965.0654202,2177,2116,3_S
1779264965.065578,2336,1805,3_S
1779264965.065697,2208,2110,3_S
1779264965.0657868,1935,2030,3_S
1779264965.065892,1987,1973,3_S
1779264965.067364,2134,2234,3_S
1779264965.073787,2134,2439,3_S
1779264965.077037,2121,2204,3_S
1779264965.079148,2049,1743,3_S
1779264965.081749,2153,1491,3_S
1779264965.0860019,2137,2106,3_S
1779264965.0870368,2008,2343,3_S
1779264965.090423,2034,2219,3_S
1779264965.090561,2028,2033,3_S
1779264965.09077,2016,2135,3_S
1779264965.090899,1982,2235,3_S
1779264965.090998,2012,2028,3_S
1779264965.09242,2107,1673,3_S
1779264965.0937831,2118,1809,3_S
1779264965.0969129,2003,2152,3_S
1779264965.105437,1982,2280,3_S
1779264965.110175,2016,2086,3_S
1779264965.1145668,2044,2098,3_S
1779264965.118539,1943,2265,3_S
1779264965.118693,1960,2186,3_S
1779264965.1188412,2079,1800,3_S
1779264965.118939,2156,1737,3_S
1779264965.1190689,2033,1976,3_S
1779264965.119188,1993,2129,3_S
1779264965.119311,2001,1985,3_S
1779264965.119412,2000,1920,3_S
1779264965.119482,1948,2209,3_S
1779264965.131745,1921,2188,3_S
1779264965.1343281,2004,1834,3_S
1779264965.138551,2111,1550,3_S
1779264965.139403,2058,1902,3_S
1779264965.142564,1977,2264,3_S
1779264965.14271,1995,2250,3_S
1779264965.142835,2050,2107,3_S
1779264965.142949,2035,2244,3_S
1779264965.143075,1964,2300,3_S
1779264965.1432068,1983,2098,3_S
1779264965.143317,2118,1662,3_S
1779264965.143424,2140,1869,3_S
1779264965.146039,2046,2154,3_S
1779264965.147466,1980,2242,3_S
1779264965.158168,2003,2119,3_S
1779264965.1663628,2048,2205,3_S
1779264965.167045,2015,2342,3_S
1779264965.167619,2062,2094,3_S
1779264965.167994,2126,1816,3_S
1779264965.1713228,2111,1736,3_S
1779264965.171544,1969,2000,3_S
1779264965.17171,1947,2174,3_S
1779264965.171784,1952,2269,3_S
1779264965.1719081,2022,2128,3_S
1779264965.172035,1976,2282,3_S
1779264965.1722,1934,2206,3_S
1779264965.1737971,1969,2110,3_S
1779264965.182212,2116,1883,3_S
1779264965.1867259,2188,2092,3_S
1779264965.190829,2112,2164,3_S
1779264965.1915798,2057,2261,3_S
1779264965.194859,2028,2073,3_S
1779264965.195315,1993,2161,3_S
1779264965.195429,1978,2252,3_S
1779264965.195498,2016,2085,3_S
1779264965.19556,2095,1805,3_S
1779264965.195625,2113,1990,3_S
1779264965.195701,2009,2237,3_S
1779264965.1984088,1978,2373,3_S
1779264965.1998239,1995,2187,3_S
1779264965.201823,2051,2063,3_S
1779264965.2173471,1951,2254,3_S
1779264965.2184021,1971,2184,3_S
1779264965.222165,2053,1867,3_S
1779264965.222264,2145,1661,3_S
1779264965.2223392,2059,2123,3_S
1779264965.222462,1981,2350,3_S
1779264965.222537,2019,2291,3_S
1779264965.222783,2042,2080,3_S
1779264965.222861,1933,2207,3_S
1779264965.222931,1872,2198,3_S
1779264965.224334,1971,2139,3_S
1779264965.230083,2097,2099,3_S
1779264965.233883,2109,2070,3_S
1779264965.236632,2039,2116,3_S
1779264965.238695,1963,2236,3_S
1779264965.242978,2041,2155,3_S
1779264965.243566,1999,2239,3_S
1779264965.2438998,1960,2418,3_S
1779264965.244425,1985,2031,3_S
1779264965.2468312,2085,1692,3_S
1779264965.250881,2108,1923,3_S
1779264965.25138,1992,2227,3_S
1779264965.2515311,1934,2308,3_S
1779264965.2516239,1951,2232,3_S
1779264965.251734,1988,2219,3_S
1779264965.2531788,1931,2411,3_S
1779264965.26021,1971,2249,3_S
1779264965.2647538,2055,1916,3_S
1779264965.265273,2125,1885,3_S
1779264965.26993,2036,2158,3_S
1779264965.274705,1929,2200,3_S
1779264965.2751591,1963,2282,3_S
1779264965.275599,2026,2236,3_S
1779264965.278711,1981,2390,3_S
1779264965.278851,1924,2324,3_S
1779264965.279,1976,1984,3_S
1779264965.279145,2082,1701,3_S
1779264965.279257,2108,2055,3_S
1779264965.279357,2070,2283,3_S
1779264965.285939,1989,2307,3_S
1779264965.29003,2009,2081,3_S
1779264965.293216,2006,2119,3_S
1779264965.299305,1954,2263,3_S
1779264965.30001,1975,2073,3_S
1779264965.30322,2094,1801,3_S
1779264965.303516,2112,1929,3_S
1779264965.303593,2017,2186,3_S
1779264965.3036642,1913,2245,3_S
1779264965.3038,1961,2127,3_S
1779264965.303924,1976,2178,3_S
1779264965.303995,1956,2336,3_S
1779264965.305368,1980,2177,3_S
1779264965.3080451,2096,1820,3_S
1779264965.30947,2179,1787,3_S
1779264965.315708,2075,2037,3_S
1779264965.3192031,1982,2222,3_S
1779264965.323717,1977,2165,3_S
1779264965.328094,2025,2082,3_S
1779264965.328773,1987,2279,3_S
1779264965.332101,1918,2223,3_S
1779264965.3322098,2017,1942,3_S
1779264965.332413,2104,1696,3_S
1779264965.3325582,2072,2023,3_S
1779264965.3326862,1977,2219,3_S
1779264965.3328378,1966,2269,3_S
1779264965.3341818,2016,2067,3_S
1779264965.341395,1986,2194,3_S
1779264965.34365,1932,2189,3_S
1779264965.348093,1980,1984,3_S
1779264965.352287,2103,1827,3_S
1779264965.353204,2094,1992,3_S
1779264965.355794,2023,2168,3_S
1779264965.356797,1986,2253,3_S
1779264965.35693,1987,2134,3_S
1779264965.357034,2003,2145,3_S
1779264965.3571782,1967,2301,3_S
1779264965.3572469,1965,2154,3_S
1779264965.357311,2072,1861,3_S
1779264965.359937,2138,1824,3_S
1779264965.361324,2081,2085,3_S
1779264965.373245,2004,2232,3_S
1779264965.376,1979,2179,3_S
1779264965.3764548,2038,1967,3_S
1779264965.381034,1970,2158,3_S
1779264965.383907,1956,2131,3_S
1779264965.3849201,2025,1884,3_S
1779264965.385073,2121,1638,3_S
1779264965.3851871,2086,1983,3_S
1779264965.3853388,2002,2141,3_S
1779264965.385441,1959,2180,3_S
1779264965.385505,2016,1976,3_S
1779264965.385569,2004,2150,3_S
1779264965.393816,1960,2200,3_S
1779264965.398721,1994,1947,3_S
1779264965.399756,2100,1715,3_S
1779264965.405067,2123,1805,3_S
1779264965.405824,2049,2009,3_S
1779264965.406421,1988,2151,3_S
1779264965.406868,1998,2079,3_S
1779264965.407286,2030,2155,3_S
1779264965.410219,1985,2222,3_S
1779264965.4108632,1970,2080,3_S
1779264965.4110122,2056,1809,3_S
1779264965.411135,2142,1754,3_S
1779264965.411262,2057,1988,3_S
1779264965.413931,1987,2193,3_S
1779264965.4153512,1984,2136,3_S
1779264965.424441,2029,2018,3_S
1779264965.426923,1991,2178,3_S
1779264965.429186,1968,2142,3_S
1779264965.4355662,2021,1895,3_S
1779264965.436358,2156,1703,3_S
1779264965.437122,2110,2005,3_S
1779264965.4401531,2027,2152,3_S
1779264965.4402492,2003,2086,3_S
1779264965.440321,2035,1953,3_S
1779264965.440394,2011,2119,3_S
1779264965.44046,1957,2201,3_S
1779264965.440532,2009,1925,3_S
1779264965.441888,2113,1664,3_S
1779264965.4494588,2153,1772,3_S
1779264965.452467,2054,2054,3_S
1779264965.4566212,1990,2147,3_S
1779264965.460989,2025,2027,3_S
1779264965.461616,2060,2180,3_S
1779264965.4624681,1992,2227,3_S
1779264965.4629078,1977,2060,3_S
1779264965.4663649,2082,1794,3_S
1779264965.466579,2150,1737,3_S
1779264965.466662,2080,2051,3_S
1779264965.46677,1998,2170,3_S
1779264965.4668381,2003,2074,3_S
1779264965.468269,2055,1971,3_S
1779264965.469881,1990,2200,3_S
1779264965.471381,1958,2180,3_S
1779264965.480143,2043,1857,3_S
1779264965.4824362,2158,1702,3_S
1779264965.4830358,2113,2011,3_S
1779264965.4852748,2034,2182,3_S
1779264965.487721,2000,2169,3_S
1779264965.491795,2047,1956,3_S
1779264965.492346,2036,2055,3_S
1779264965.493176,1986,2131,3_S
1779264965.496344,2009,1957,3_S
1779264965.496432,2129,1687,3_S
1779264965.496553,2166,1808,3_S
1779264965.4966872,2067,2083,3_S
1779264965.498233,2005,2121,3_S
1779264965.504668,2028,1944,3_S
1779264965.5100641,2051,2040,3_S
1779264965.516532,1994,2211,3_S
1779264965.5200331,2001,2027,3_S
1779264965.5201879,2090,1796,3_S
1779264965.5203369,2160,1733,3_S
1779264965.520462,2091,2000,3_S
1779264965.52056,2022,2152,3_S
1779264965.52069,2019,2123,3_S
1779264965.520813,2068,2002,3_S
1779264965.5209432,2012,2210,3_S
1779264965.521112,2004,2065,3_S
1779264965.523772,2068,1857,3_S
1779264965.525137,2152,1673,3_S
1779264965.5352058,2121,1929,3_S
1779264965.537243,2026,2169,3_S
1779264965.543906,2023,2140,3_S
1779264965.5446699,2065,1970,3_S
1779264965.5475898,2010,2176,3_S
1779264965.548311,1979,2221,3_S
1779264965.5484679,2029,2014,3_S
1779264965.548542,2128,1734,3_S
1779264965.548674,2144,1804,3_S
1779264965.548789,2064,2006,3_S
1779264965.548877,2004,2154,3_S
1779264965.549203,2008,2036,3_S
1779264965.555546,2061,2038,3_S
1779264965.55697,2016,2219,3_S
1779264965.558282,1998,2099,3_S
1779264965.560292,2090,1789,3_S
1779264965.560769,2183,1758,3_S
1779264965.563562,2093,2013,3_S
1779264965.5656488,2055,2151,3_S
1779264965.569775,2015,2093,3_S
1779264965.570302,2064,2008,3_S
1779264965.5710258,1994,2194,3_S
1779264965.571672,1988,2092,3_S
1779264965.574738,2066,1870,3_S
1779264965.576146,2162,1663,3_S
1779264965.577513,2157,1966,3_S
1779264965.5801752,2036,2131,3_S
1779264965.5817862,2024,2164,3_S
1779264965.590524,2049,2007,3_S
1779264965.591291,2047,2132,3_S
1779264965.595436,2003,2207,3_S
1779264965.599703,2037,1991,3_S
1779264965.600329,2164,1716,3_S
1779264965.600666,2154,1859,3_S
1779264965.601443,2077,2072,3_S
1779264965.604633,2037,2162,3_S
1779264965.604789,2062,2023,3_S
1779264965.6050339,2065,2082,3_S
1779264965.6051068,2006,2243,3_S
1779264965.6051872,2020,2083,3_S
1779264965.6141598,2112,1781,3_S
1779264965.621113,2192,1741,3_S
1779264965.625283,2105,1978,3_S
1779264965.6261172,2035,2097,3_S
1779264965.6268318,2037,2072,3_S
1779264965.629972,2066,2015,3_S
1779264965.6300879,2033,2196,3_S
1779264965.6301482,1994,2100,3_S
1779264965.630272,2067,1858,3_S
1779264965.630355,2165,1727,3_S
1779264965.63042,2132,1997,3_S
1779264965.630495,2059,2138,3_S
1779264965.631854,2035,2155,3_S
1779264965.633198,2068,2036,3_S
1779264965.635723,2047,2185,3_S
1779264965.6436071,1991,2184,3_S
1779264965.648919,2045,1982,3_S
1779264965.655287,2152,1727,3_S
1779264965.656162,2170,1868,3_S
1779264965.6586611,2089,2071,3_S
1779264965.659719,1998,2208,3_S
1779264965.659808,2050,2075,3_S
1779264965.659883,2048,2096,3_S
1779264965.6599848,2008,2239,3_S
1779264965.660146,1986,2120,3_S
1779264965.660303,2065,1855,3_S
1779264965.660418,2170,1780,3_S
1779264965.661782,2116,2006,3_S
1779264965.671044,2075,2145,3_S
1779264965.671678,2049,2116,3_S
1779264965.679772,2075,2036,3_S
1779264965.683064,2042,2230,3_S
1779264965.684009,2032,2153,3_S
1779264965.684215,2071,1885,3_S
1779264965.684343,2194,1730,3_S
1779264965.6844642,2141,1977,3_S
1779264965.684578,2060,2167,3_S
1779264965.68469,2028,2188,3_S
1779264965.684791,2076,2070,3_S
1779264965.686254,2036,2208,3_S
1779264965.687687,2002,2187,3_S
1779264965.689049,2046,1980,3_S
1779264965.699538,2157,1741,3_S
1779264965.702684,2172,1930,3_S
1779264965.704882,2072,2145,3_S
1779264965.708964,2028,2196,3_S
1779264965.710101,2060,2042,3_S
1779264965.7131279,2069,2107,3_S
1779264965.713274,2027,2225,3_S
1779264965.713407,2018,2090,3_S
1779264965.713566,2117,1858,3_S
1779264965.713652,2178,1820,3_S
1779264965.71377,2084,2093,3_S
1779264965.713929,2009,2162,3_S
1779264965.7155688,2006,2045,3_S
1779264965.722208,2048,1998,3_S
1779264965.725678,2025,2290,3_S
1779264965.730465,1990,2190,3_S
1779264965.7347682,2078,1893,3_S
1779264965.73528,2231,1714,3_S
1779264965.7386591,2179,2033,3_S
1779264965.73881,2095,2196,3_S
1779264965.738948,2062,2168,3_S
1779264965.7390678,2092,1955,3_S
1779264965.7392051,2058,2192,3_S
1779264965.7393448,1993,2270,3_S
1779264965.739462,2029,1992,3_S
1779264965.7421188,2135,1776,3_S
1779264965.743503,2155,1830,3_S
1779264965.7527711,2037,2043,3_S
1779264965.755212,1976,2243,3_S
1779264965.7628002,2043,2050,3_S
1779264965.763099,2045,2229,3_S
1779264965.763793,1955,2369,3_S
1779264965.7669172,1936,2054,3_S
1779264965.767021,2069,1783,3_S
1779264965.7670789,2196,2045,3_S
1779264965.7671292,2139,2184,3_S
1779264965.7672331,2099,2066,3_S
1779264965.767353,2081,1966,3_S
1779264965.767406,2096,2115,3_S
1779264965.774603,2064,2336,3_S
1779264965.777482,2087,2228,3_S
1779264965.778273,2080,1964,3_S
1779264965.782753,2159,1655,3_S
1779264965.786345,2118,1930,3_S
1779264965.7865942,2011,2111,3_S
1779264965.787039,1968,2343,3_S
1779264965.7895749,2067,1978,3_S
1779264965.790384,2019,2278,3_S
1779264965.7904441,2029,2186,3_S
1779264965.790539,2021,2015,3_S
1779264965.791873,2141,1880,3_S
1779264965.793202,2158,2013,3_S
1779264965.795821,2114,2269,3_S
1779264965.801882,2024,2216,3_S
1779264965.802479,1999,2114,3_S
1779264965.8035011,1980,2291,3_S
1779264965.803843,1989,2402,3_S
1779264965.805942,1998,2178,3_S
1779264965.808491,2091,1866,3_S
1779264965.810446,2141,1897,3_S
1779264965.813975,2084,2149,3_S
1779264965.814977,2053,2203,3_S
1779264965.817966,2043,2346,3_S
1779264965.8182778,2104,2228,3_S
1779264965.8196218,2079,2386,3_S
1779264965.8265789,2048,2353,3_S
1779264965.827691,2095,1946,3_S
1779264965.829698,2194,1802,3_S
1779264965.831286,2110,2152,3_S
1779264965.8325918,1993,2278,3_S
1779264965.8343208,1922,2276,3_S
1779264965.837863,2041,2122,3_S
1779264965.838461,2001,2193,3_S
1779264965.841491,1933,2286,3_S
1779264965.8417752,1997,2067,3_S
1779264965.8419049,2140,1784,3_S
1779264965.843233,2179,1928,3_S
1779264965.845829,2155,2168,3_S
1779264965.8472672,2107,2317,3_S
1779264965.853468,2097,2123,3_S
1779264965.856915,2069,2150,3_S
1779264965.857249,1950,2381,3_S
1779264965.859112,1992,2255,3_S
1779264965.866753,2104,1951,3_S
1779264965.8671439,2212,1838,3_S
1779264965.867234,2060,2072,3_S
1779264965.8673038,1985,2360,3_S
1779264965.867448,2074,2383,3_S
1779264965.867619,2112,2236,3_S
1779264965.8691661,2021,2242,3_S
1779264965.87391,1955,2284,3_S
1779264965.877101,2096,2096,3_S
1779264965.877441,2254,1753,3_S
1779264965.879775,2172,2097,3_S
1779264965.8843992,2015,2408,3_S
1779264965.8847628,2031,2374,3_S
1779264965.884952,2052,2088,3_S
1779264965.8851619,2093,2115,3_S
1779264965.888007,2053,2181,3_S
1779264965.889357,2032,2076,3_S
1779264965.891945,2087,1924,3_S
1779264965.893274,2138,1906,3_S
1779264965.899394,2057,2141,3_S
1779264965.899928,2029,2234,3_S
1779264965.901867,2043,2054,3_S
1779264965.902188,2006,2154,3_S
1779264965.90571,1991,2365,3_S
1779264965.908739,2043,2263,3_S
1779264965.909085,2138,1854,3_S
1779264965.9095879,2160,1881,3_S
1779264965.9121978,2074,2153,3_S
1779264965.9135349,1964,2336,3_S
1779264965.9188511,1913,2114,3_S
1779264965.922519,1978,2010,3_S
1779264965.923011,2000,2461,3_S
1779264965.9271019,2033,2313,3_S
1779264965.93045,2007,1945,3_S
1779264965.9310138,2152,1740,3_S
1779264965.931488,2063,2135,3_S
1779264965.933876,2103,2325,3_S
1779264965.934678,2051,2105,3_S
1779264965.9347992,2054,2002,3_S
1779264965.934957,2028,2302,3_S
1779264965.9376588,1962,2322,3_S
1779264965.9390411,2094,2129,3_S
1779264965.94682,2139,1727,3_S
1779264965.948632,2221,1839,3_S
1779264965.950932,2082,2066,3_S
1779264965.956464,1984,2149,3_S
1779264965.957242,1961,2083,3_S
1779264965.960365,2018,2055,3_S
1779264965.960504,1969,2203,3_S
1779264965.9606452,1993,2048,3_S
1779264965.960781,2045,1944,3_S
1779264965.960914,2112,1905,3_S
1779264965.9610581,2016,2067,3_S
1779264965.9704762,2043,2206,3_S
1779264965.974387,1973,2099,3_S
1779264965.977995,2017,2096,3_S
1779264965.9783838,2092,2200,3_S
1779264965.9786172,2037,2082,3_S
1779264965.9791832,2025,1877,3_S
1779264965.982202,2120,1872,3_S
1779264965.982344,2080,2189,3_S
1779264965.982435,2025,2056,3_S
1779264965.982583,2048,2180,3_S
1779264965.984066,2034,1947,3_S
1779264965.9854631,2001,2346,3_S
1779264965.986909,1930,2551,3_S
1779264965.993122,2000,1920,3_S
1779264965.998016,2155,1537,3_S
1779264966.0001438,2119,1735,3_S
1779264966.003648,2053,2073,3_S
1779264966.0042381,2027,2157,3_S
1779264966.0069828,2006,2086,3_S
1779264966.0074098,2082,2123,3_S
1779264966.007541,1937,2116,3_S
1779264966.0076559,1870,2010,3_S
1779264966.007773,2013,1748,3_S
1779264966.009133,2171,1746,3_S
1779264966.018869,2085,1906,3_S
1779264966.0255291,1955,2092,3_S
1779264966.0262752,1968,2057,3_S
1779264966.026976,2114,1962,3_S
1779264966.0297139,1960,1861,3_S
1779264966.029985,1944,1553,3_S
1779264966.0301151,2056,1526,3_S
1779264966.030195,2088,1481,3_S
1779264966.0302951,2132,1548,3_S
1779264966.030418,2179,1915,3_S
1779264966.031788,2123,1976,3_S
1779264966.0331478,2032,1779,3_S
1779264966.041045,2002,1886,3_S
1779264966.043417,2087,1990,3_S
1779264966.045357,2016,1640,3_S
1779264966.050555,2156,1594,3_S
1779264966.051049,2218,1788,3_S
1779264966.0516212,1959,1940,3_S
1779264966.052192,1785,2017,3_S
1779264966.054869,1916,1840,3_S
1779264966.055321,1885,1757,3_S
1779264966.0554502,1932,2189,3_S
1779264966.055596,2003,2258,3_S
1779264966.056968,2150,1675,3_S
1779264966.062376,2176,1660,3_S
1779264966.06539,2123,2151,3_S
1779264966.0659451,1941,2002,3_S
1779264966.072883,2163,1838,3_S
1779264966.073358,2308,1773,3_S
1779264966.0739179,2022,2277,3_S
1779264966.074442,2212,2271,3_S
1779264966.0747259,2121,1594,3_S
1779264966.077539,2080,1598,3_S
1779264966.077697,2175,2005,3_S
1779264966.079057,2164,2011,3_S
1779264966.0815449,1981,1831,3_S
1779264966.087679,1753,1814,3_S
1779264966.089293,1768,2018,3_S
1779264966.09306,1881,1794,3_S
1779264966.098363,2198,1615,3_S
1779264966.099033,2158,1601,3_S
1779264966.101516,2006,1502,3_S
1779264966.102327,1911,1876,3_S
1779264966.102409,2013,1861,3_S
1779264966.1024861,2095,1729,3_S
1779264966.10256,2166,1703,3_S
1779264966.104001,2031,1650,3_S
1779264966.111889,1975,1369,3_S
1779264966.112414,1852,1006,3_S
1779264966.119328,1933,1057,3_S
1779264966.119946,1960,1387,3_S
1779264966.1205802,2163,1445,3_S
1779264966.123282,2271,1340,3_S
1779264966.1236649,2206,1009,3_S
1779264966.123821,2033,1285,3_S
1779264966.124029,1983,1487,3_S
1779264966.1241422,2141,1001,3_S
1779264966.125532,2084,622,3_S
1779264966.126951,1924,891,3_S
1779264966.136786,1913,1750,3_S
1779264966.138506,2156,1934,3_S
1779264966.143538,2183,1050,3_S
1779264966.1444328,2126,1412,3_S
1779264966.1473532,2148,1570,3_S
1779264966.14741,2060,1432,3_S
1779264966.147455,2137,1347,3_S
1779264966.147498,2198,1389,3_S
1779264966.147548,2095,1528,3_S
1779264966.14759,1953,1589,3_S
1779264966.148983,1867,1574,3_S
1779264966.1568599,1935,1871,3_S
1779264966.160821,1886,1857,3_S
1779264966.1642659,1897,1684,3_S
1779264966.1648939,2113,1634,3_S
1779264966.168007,2281,1570,3_S
1779264966.168163,2219,1839,3_S
1779264966.1683211,2039,1994,3_S
1779264966.16841,1927,1884,3_S
1779264966.1684842,1915,1877,3_S
1779264966.1701481,1902,2117,3_S
1779264966.171624,1841,2165,3_S
1779264966.173005,2018,2033,3_S
1779264966.179486,2164,1859,3_S
1779264966.190537,2093,2111,3_S
1779264966.191285,1957,2368,3_S
1779264966.191859,1923,2224,3_S
1779264966.191995,2114,2234,3_S
1779264966.1921332,2137,2606,3_S
1779264966.1922848,2037,2473,3_S
1779264966.192414,1961,2440,3_S
1779264966.192536,1891,1996,3_S
1779264966.194227,2141,2240,3_S
1779264966.2021492,2084,2657,3_S
1779264966.206013,1706,2750,3_S
1779264966.209675,2076,2585,3_S
1779264966.2101219,2362,2600,3_S
1779264966.2108202,2127,2890,3_S
1779264966.2133088,1781,2670,3_S
1779264966.2134452,2028,2598,3_S
1779264966.2136152,2519,2466,3_S
1779264966.213709,2437,2828,3_S
1779264966.2138329,2180,2840,3_S
1779264966.215362,1492,2587,3_S
1779264966.217988,1782,2978,3_S
1779264966.22524,2042,3192,3_S
1779264966.230954,2298,3041,3_S
1779264966.2342122,2184,2934,3_S
1779264966.234983,2281,2612,3_S
1779264966.235713,1964,2863,3_S
1779264966.238252,1632,2962,3_S
1779264966.238369,2079,2941,3_S
1779264966.238477,2497,3132,3_S
1779264966.2386072,2541,2970,3_S
1779264966.2387252,1887,2978,3_S
1779264966.240126,1892,2835,3_S
1779264966.246376,1820,2542,3_S
1779264966.2505212,1796,2851,3_S
1779264966.255415,1178,2884,3_S
1779264966.256311,842,2568,3_S
1779264966.2592242,1247,3029,3_S
1779264966.259329,2030,2547,3_S
1779264966.259459,2014,2581,3_S
1779264966.2595682,2034,2655,3_S
1779264966.259671,2892,3222,3_S
1779264966.259779,3517,2671,3_S
1779264966.2613702,3155,2748,3_S
1779264966.2640378,2954,2755,3_S
1779264966.271082,2557,2921,3_S
1779264966.273586,1859,2714,3_S
1779264966.2806468,1252,2834,3_S
1779264966.284149,1280,2536,3_S
1779264966.2842948,1631,2224,3_S
1779264966.28442,2118,2029,3_S
1779264966.284534,1597,2579,3_S
1779264966.2846432,1568,2521,3_S
1779264966.284767,2029,2580,3_S
1779264966.2848692,2072,2426,3_S
1779264966.284977,2017,2799,3_S
1779264966.2917461,1860,2915,3_S
1779264966.2943392,2147,2257,3_S
1779264966.301218,2528,1750,3_S
1779264966.30181,1853,2217,3_S
1779264966.304199,1504,2288,3_S
1779264966.305035,2317,2214,3_S
1779264966.305171,2671,2181,3_S
1779264966.305287,1971,2852,3_S
1779264966.305396,1603,2496,3_S
1779264966.305459,1844,2519,3_S
1779264966.306819,2360,2105,3_S
1779264966.3094451,2182,2150,3_S
1779264966.320501,1482,2392,3_S
1779264966.325276,1708,2389,3_S
1779264966.3259,2259,2207,3_S
1779264966.3288279,2175,2212,3_S
1779264966.3291771,1740,2346,3_S
1779264966.329333,1504,2258,3_S
1779264966.329473,1259,1818,3_S
1779264966.329586,2285,1673,3_S
1779264966.329706,2784,2035,3_S
1779264966.3298209,2082,2195,3_S
1779264966.3312378,1736,2019,3_S
1779264966.339028,1969,1935,3_S
1779264966.341417,1908,2180,3_S
1779264966.346089,1607,2304,3_S
1779264966.346422,2050,1834,3_S
1779264966.34714,2295,1515,3_S
1779264966.347751,1689,1652,3_S
1779264966.350705,1751,1879,3_S
1779264966.350815,2048,2022,3_S
1779264966.351062,2065,1613,3_S
1779264966.351187,1936,1624,3_S
1779264966.353886,1666,1805,3_S
1779264966.355018,1859,1673,3_S
1779264966.361758,1695,1340,3_S
1779264966.364511,1547,1252,3_S
1779264966.368642,1892,1652,3_S
1779264966.372365,2131,1587,3_S
1779264966.3731651,2038,1862,3_S
1779264966.375642,2148,1683,3_S
1779264966.375808,2265,1745,3_S
1779264966.375923,2320,1701,3_S
1779264966.376035,2221,1687,3_S
1779264966.376171,2035,1345,3_S
1779264966.377561,1768,1770,3_S
1779264966.382109,1682,1840,3_S
1779264966.3838022,1762,1851,3_S
1779264966.387818,1819,1798,3_S
1779264966.389872,1913,1848,3_S
1779264966.393645,1781,1948,3_S
1779264966.394329,1597,1873,3_S
1779264966.39822,1947,1536,3_S
1779264966.398426,2088,1696,3_S
1779264966.398533,1887,1857,3_S
1779264966.3986712,1791,1911,3_S
1779264966.3988411,2174,1840,3_S
1779264966.401464,2534,1741,3_S
1779264966.40288,2353,1839,3_S
1779264966.411217,2322,1954,3_S
1779264966.415141,2318,1895,3_S
1779264966.41545,2174,1505,3_S
1779264966.4196439,1945,1869,3_S
1779264966.420137,2033,2060,3_S
1779264966.422695,1992,2135,3_S
1779264966.422843,1815,1967,3_S
1779264966.422925,1799,2124,3_S
1779264966.42298,1913,2239,3_S
1779264966.4230242,2180,1872,3_S
1779264966.432437,2095,1564,3_S
1779264966.436448,2120,2049,3_S
1779264966.440182,2214,2175,3_S
1779264966.4408782,2382,2203,3_S
1779264966.443541,2223,2006,3_S
1779264966.443646,2108,2112,3_S
1779264966.44374,1998,2211,3_S
1779264966.44385,1850,2005,3_S
1779264966.44396,2203,1698,3_S
1779264966.4440582,2353,1913,3_S
1779264966.445415,2119,2160,3_S
1779264966.4467928,1971,2037,3_S
1779264966.4572759,1958,2046,3_S
1779264966.4593868,1881,2178,3_S
1779264966.461455,1453,2232,3_S
1779264966.465272,1519,2149,3_S
1779264966.465675,2390,1708,3_S
1779264966.4664059,2634,1877,3_S
1779264966.4693508,2389,2070,3_S
1779264966.469856,2091,2203,3_S
1779264966.470089,2023,2165,3_S
1779264966.4702258,2247,2059,3_S
1779264966.470356,2345,2331,3_S
1779264966.4753861,2194,2152,3_S
1779264966.4795442,2142,1977,3_S
1779264966.4822028,2113,1723,3_S
1779264966.4872582,1724,1903,3_S
1779264966.487631,1570,2100,3_S
1779264966.490761,1887,2140,3_S
1779264966.4909198,2048,2029,3_S
1779264966.4910378,2136,2167,3_S
1779264966.4911768,2219,2052,3_S
1779264966.4912782,2124,1904,3_S
1779264966.491412,2070,1577,3_S
1779264966.49281,2122,1920,3_S
1779264966.4954371,2184,2245,3_S
1779264966.5021162,1829,2211,3_S
1779264966.506285,1867,2017,3_S
1779264966.50842,1984,2164,3_S
1779264966.5120482,2021,2283,3_S
1779264966.512867,2095,2048,3_S
1779264966.513251,2040,1899,3_S
1779264966.51359,2230,1767,3_S
1779264966.5140429,2272,2321,3_S
1779264966.516778,2158,2092,3_S
1779264966.5168371,1972,2249,3_S
1779264966.516882,1796,2154,3_S
1779264966.525006,1410,2227,3_S
1779264966.530725,1887,2295,3_S
1779264966.534761,2370,2031,3_S
1779264966.537926,2327,1700,3_S
1779264966.538141,2069,2083,3_S
1779264966.53824,1917,2273,3_S
1779264966.538382,1902,2195,3_S
1779264966.5384881,2352,2016,3_S
1779264966.538605,2371,2339,3_S
1779264966.5387578,2118,2317,3_S
1779264966.5389068,1966,2089,3_S
1779264966.541551,1870,1750,3_S
1779264966.542929,1786,1877,3_S
1779264966.552649,1820,2106,3_S
1779264966.557855,1692,2172,3_S
1779264966.5585449,1430,2030,3_S
1779264966.55916,2124,2153,3_S
1779264966.5622048,2732,2404,3_S
1779264966.56231,2545,2086,3_S
1779264966.5624251,2361,1850,3_S
1779264966.562565,2270,1926,3_S
1779264966.5626938,2102,2110,3_S
1779264966.56278,2381,2263,3_S
1779264966.572405,2359,2217,3_S
1779264966.576055,2022,2296,3_S
1779264966.579978,1796,2311,3_S
1779264966.583078,1722,2104,3_S
1779264966.584171,1879,1884,3_S
1779264966.584306,1976,1686,3_S
1779264966.5844522,1870,2024,3_S
1779264966.584524,1745,2111,3_S
1779264966.5846772,1959,2161,3_S
1779264966.584745,2122,1853,3_S
1779264966.5848231,2090,2096,3_S
1779264966.587477,1892,2325,3_S
1779264966.588823,1911,2069,3_S
1779264966.595629,2140,1803,3_S
1779264966.597465,2431,1930,3_S
1779264966.6000588,1665,2147,3_S
1779264966.6053262,1557,2197,3_S
1779264966.6060119,2468,2040,3_S
1779264966.608601,2655,2308,3_S
1779264966.608758,2028,2380,3_S
1779264966.608873,1618,2106,3_S
1779264966.609014,1968,1786,3_S
1779264966.609117,2499,1855,3_S
1779264966.6187499,2462,2166,3_S
1779264966.622624,2209,2422,3_S
1779264966.626692,1931,2254,3_S
1779264966.627326,1810,2124,3_S
1779264966.629649,1703,2282,3_S
1779264966.630344,1693,2062,3_S
1779264966.6305048,1950,1980,3_S
1779264966.630692,2251,1808,3_S
1779264966.63087,2328,2026,3_S
1779264966.6309628,2200,2422,3_S
1779264966.631016,2123,2283,3_S
1779264966.633718,2152,2047,3_S
1779264966.6351402,2092,2283,3_S
1779264966.6413739,1968,2378,3_S
1779264966.646115,1964,2172,3_S
1779264966.6478841,2092,1827,3_S
1779264966.651562,1958,1925,3_S
1779264966.652184,1958,1966,3_S
1779264966.653096,1718,2157,3_S
1779264966.655744,1699,1937,3_S
1779264966.6558871,1982,2244,3_S
1779264966.6560059,2334,2300,3_S
1779264966.656118,2368,2096,3_S
1779264966.657482,2176,1837,3_S
1779264966.665162,2064,1875,3_S
1779264966.6656399,2015,2205,3_S
1779264966.668203,2222,2266,3_S
1779264966.673221,2277,2183,3_S
1779264966.673813,2088,2041,3_S
1779264966.6742241,1894,2180,3_S
1779264966.676985,1676,2177,3_S
1779264966.6772768,1631,1931,3_S
1779264966.677404,1897,1806,3_S
1779264966.6774762,1912,1973,3_S
1779264966.678825,1845,2173,3_S
1779264966.681491,2153,2319,3_S
1779264966.687039,2662,2154,3_S
1779264966.688185,2458,2225,3_S
1779264966.691179,2128,2177,3_S
1779264966.695195,2201,2077,3_S
1779264966.6989272,2383,1821,3_S
1779264966.6994948,2344,1920,3_S
1779264966.702485,2129,2082,3_S
1779264966.70303,1896,2300,3_S
1779264966.703116,1773,2113,3_S
1779264966.7032378,1341,2117,3_S
1779264966.703359,1647,2280,3_S
1779264966.704789,2020,2113,3_S
1779264966.71063,2152,1863,3_S
1779264966.713069,2273,1791,3_S
1779264966.7206452,2184,2189,3_S
1779264966.7214038,2126,2333,3_S
1779264966.724094,2179,2173,3_S
1779264966.7244742,2179,2125,3_S
1779264966.724608,2025,2348,3_S
1779264966.7247381,1841,2243,3_S
1779264966.724839,1785,1945,3_S
1779264966.724951,2000,1840,3_S
1779264966.727434,2135,2077,3_S
1779264966.7287989,1960,2137,3_S
1779264966.737178,1668,2006,3_S
1779264966.7394,1929,2189,3_S
1779264966.741632,2334,2257,3_S
1779264966.745273,2300,2433,3_S
1779264966.7459671,2295,2161,3_S
1779264966.7466161,2118,1855,3_S
1779264966.749453,2235,2079,3_S
1779264966.749577,2280,2317,3_S
1779264966.749701,2049,2347,3_S
1779264966.7498481,1859,2153,3_S
1779264966.751219,2064,2213,3_S
1779264966.757472,2131,2376,3_S
1779264966.7688088,2002,2165,3_S
1779264966.768873,2001,1831,3_S
1779264966.768919,2023,1851,3_S
1779264966.768963,2038,2220,3_S
1779264966.769005,1681,2188,3_S
1779264966.769048,1929,2112,3_S
1779264966.76909,2290,2031,3_S
1779264966.7691321,2203,2292,3_S
1779264966.7721899,1918,2183,3_S
1779264966.779575,2033,1970,3_S
1779264966.780242,2178,1730,3_S
1779264966.7897222,2173,2071,3_S
1779264966.792635,2228,2252,3_S
1779264966.7927392,2188,2233,3_S
1779264966.79284,2105,2190,3_S
1779264966.792964,1987,2271,3_S
1779264966.793102,1915,2320,3_S
1779264966.793175,1920,2111,3_S
1779264966.7932658,1847,1868,3_S
1779264966.7933922,1953,2049,3_S
1779264966.794837,2270,2287,3_S
1779264966.801854,2086,2355,3_S
1779264966.8086631,2108,2223,3_S
1779264966.8089359,2149,2253,3_S
1779264966.8132858,2032,2434,3_S
1779264966.813885,2052,2287,3_S
1779264966.814427,2153,1970,3_S
1779264966.81811,2241,1935,3_S
1779264966.818421,2155,2171,3_S
1779264966.8185432,2065,2323,3_S
1779264966.8186722,2007,2295,3_S
1779264966.818799,1996,2192,3_S
1779264966.818871,1962,2397,3_S
1779264966.821545,1930,2315,3_S
1779264966.8229032,2015,2052,3_S
1779264966.8419242,2140,1855,3_S
1779264966.8420968,2133,2159,3_S
1779264966.842221,2051,2306,3_S
1779264966.8423512,1998,2329,3_S
1779264966.8424351,2026,2226,3_S
1779264966.8425071,2021,2301,3_S
1779264966.8425758,1919,2358,3_S
1779264966.842643,1941,2226,3_S
1779264966.842735,1974,1901,3_S
1779264966.842889,2122,2057,3_S
1779264966.8457239,2159,2279,3_S
1779264966.846982,2092,2403,3_S
1779264966.855392,2053,2234,3_S
1779264966.856854,2074,2315,3_S
1779264966.861857,2016,2527,3_S
1779264966.86762,2037,2326,3_S
1779264966.8683038,2161,2064,3_S
1779264966.8688798,2230,2007,3_S
1779264966.86941,2154,2298,3_S
1779264966.872593,2066,2403,3_S
1779264966.872679,2043,2309,3_S
1779264966.872842,2070,2237,3_S
1779264966.872912,2030,2468,3_S
1779264966.8729758,1982,2390,3_S
1779264966.873038,2066,2115,3_S
1779264966.8838542,2162,1934,3_S
1779264966.884536,2131,2295,3_S
1779264966.88489,2017,2469,3_S
1779264966.887533,1938,2491,3_S
1779264966.8892632,2044,2379,3_S
1779264966.893566,2043,2531,3_S
1779264966.8947442,2012,2585,3_S
1779264966.898357,1995,2227,3_S
1779264966.898517,2101,1968,3_S
1779264966.898606,2141,2239,3_S
1779264966.898678,2071,2438,3_S
1779264966.89874,2046,2431,3_S
1779264966.8988008,2061,2251,3_S
1779264966.901437,2031,2334,3_S
1779264966.902797,1958,2424,3_S
1779264966.9120572,2000,2308,3_S
1779264966.916167,2094,2082,3_S
1779264966.9185998,2189,1992,3_S
1779264966.923203,2138,2329,3_S
1779264966.9265049,2013,2446,3_S
1779264966.9266298,1981,2381,3_S
1779264966.926742,2017,2213,3_S
1779264966.9268212,1980,2535,3_S
1779264966.926941,1915,2530,3_S
1779264966.927073,1996,2166,3_S
1779264966.927191,2120,1941,3_S
1779264966.927265,2100,2259,3_S
1779264966.929047,2014,2424,3_S
1779264966.938051,1976,2517,3_S
1779264966.942229,2013,2360,3_S
1779264966.946878,2040,2495,3_S
1779264966.9474912,1960,2496,3_S
1779264966.9480078,1988,2363,3_S
1779264966.948513,2080,2263,3_S
1779264966.951382,2109,2303,3_S
1779264966.951562,2077,2339,3_S
1779264966.951654,1997,2487,3_S
1779264966.951724,1945,2332,3_S
1779264966.9518552,1964,2420,3_S
1779264966.953247,1950,2568,3_S
1779264966.954622,1987,2409,3_S
1779264966.957865,2050,2157,3_S
1779264966.966652,2114,2082,3_S
1779264966.977977,2055,2264,3_S
1779264966.978081,2002,2369,3_S
1779264966.978153,2003,2414,3_S
1779264966.978219,2041,2324,3_S
1779264966.978283,1993,2564,3_S
1779264966.9783502,1971,2375,3_S
1779264966.9784708,2019,2049,3_S
1779264966.978594,2114,1913,3_S
1779264966.9786618,2071,2282,3_S
1779264966.9787252,1971,2359,3_S
1779264966.990109,1950,2357,3_S
1779264966.992744,1997,2223,3_S
1779264966.9952881,1934,2396,3_S
1779264966.9998379,1925,2555,3_S
1779264967.0002759,1950,2246,3_S
1779264967.003329,2065,1892,3_S
1779264967.003645,2075,2124,3_S
1779264967.003756,2056,2438,3_S
1779264967.003864,2030,2459,3_S
1779264967.0039449,2033,2212,3_S
1779264967.00401,2083,2214,3_S
1779264967.004074,1986,2419,3_S
1779264967.005227,1994,2299,3_S
1779264967.006602,2070,2001,3_S
1779264967.009294,2151,1981,3_S
1779264967.0216892,2072,2232,3_S
1779264967.028524,1990,2363,3_S
1779264967.031549,1969,2300,3_S
1779264967.032716,2008,2255,3_S
1779264967.032875,1971,2464,3_S
1779264967.032956,1970,2321,3_S
1779264967.033172,2047,2009,3_S
1779264967.033241,2121,1822,3_S
1779264967.033304,2076,2148,3_S
1779264967.0334048,2009,2282,3_S
1779264967.033739,1972,2236,3_S
1779264967.033813,1997,2078,3_S
1779264967.0354948,2012,2304,3_S
1779264967.041287,1973,2282,3_S
1779264967.042094,2029,2046,3_S
1779264967.043405,2136,1843,3_S
1779264967.049576,2154,1955,3_S
1779264967.054228,2058,2165,3_S
1779264967.057575,2021,2257,3_S
1779264967.057868,2018,2181,3_S
1779264967.057944,2034,2294,3_S
1779264967.058008,1964,2423,3_S
1779264967.058069,1963,2174,3_S
1779264967.0581288,2025,1845,3_S
1779264967.059495,2096,1902,3_S
1779264967.060862,2044,2241,3_S
1779264967.0637472,2020,2373,3_S
1779264967.071085,2004,2281,3_S
1779264967.0761201,2046,2138,3_S
1779264967.078026,1992,2303,3_S
1779264967.082319,1985,2281,3_S
1779264967.0831501,2018,1991,3_S
1779264967.0862029,2143,1890,3_S
1779264967.086294,2095,2094,3_S
1779264967.086384,2008,2179,3_S
1779264967.086487,1989,2236,3_S
1779264967.0865622,2032,2171,3_S
1779264967.086627,2004,2343,3_S
1779264967.086694,1996,2368,3_S
1779264967.097435,2016,2054,3_S
1779264967.0996292,2107,1838,3_S
1779264967.10566,2124,2030,3_S
1779264967.106286,2036,2298,3_S
1779264967.107135,1969,2284,3_S
1779264967.107383,1950,2188,3_S
1779264967.107626,1981,2260,3_S
1779264967.110973,2010,2402,3_S
1779264967.1110568,2008,2233,3_S
1779264967.111113,2057,1894,3_S
1779264967.1111639,2148,1840,3_S
1779264967.1112142,2082,2125,3_S
1779264967.1125891,2043,2241,3_S
1779264967.115335,2029,2147,3_S
1779264967.116838,2057,2084,3_S
1779264967.124893,2009,2291,3_S
1779264967.127234,1980,2182,3_S
1779264967.1300008,2054,2061,3_S
1779264967.131925,2164,1791,3_S
1779264967.135946,2153,1978,3_S
1779264967.136728,2035,2070,3_S
1779264967.137166,1994,2211,3_S
1779264967.1375659,2043,2147,3_S
1779264967.140747,2066,2261,3_S
1779264967.140901,2012,2293,3_S
1779264967.140994,2028,1994,3_S
1779264967.141113,2094,1713,3_S
1779264967.142498,2108,2087,3_S
1779264967.149212,2083,2298,3_S
1779264967.150718,2033,2216,3_S
1779264967.152992,2052,1908,3_S
1779264967.1578538,2059,2116,3_S
1779264967.162152,1928,2606,3_S
1779264967.1627579,2032,2259,3_S
1779264967.1661289,2178,1811,3_S
1779264967.16628,2246,1762,3_S
1779264967.166445,2122,2130,3_S
1779264967.166568,2017,2253,3_S
1779264967.166671,2065,2359,3_S
1779264967.16681,2125,2079,3_S
1779264967.1696231,2053,2175,3_S
1779264967.201865,1968,2057,3_S
1779264967.201974,2061,1790,3_S
1779264967.202042,2146,1572,3_S
1779264967.2021031,2076,1922,3_S
1779264967.202163,2043,2134,3_S
1779264967.202386,2000,2238,3_S
1779264967.202453,2041,2061,3_S
1779264967.203143,2021,2190,3_S
1779264967.203585,2032,2153,3_S
1779264967.203744,2083,1970,3_S
1779264967.2038069,2110,1662,3_S
1779264967.203868,2127,1800,3_S
1779264967.203927,2092,2125,3_S
1779264967.203986,2071,2184,3_S
1779264967.204044,2076,2023,3_S
1779264967.2041018,2050,2007,3_S
1779264967.204161,2007,2084,3_S
1779264967.206283,2017,2017,3_S
1779264967.207412,2103,1734,3_S
1779264967.2136698,2123,1779,3_S
1779264967.2138581,2077,2055,3_S
1779264967.21421,2019,2147,3_S
1779264967.2156181,2058,1889,3_S
1779264967.2170398,2075,2192,3_S
1779264967.218474,2020,2208,3_S
1779264967.2214699,2090,2036,3_S
1779264967.233515,2151,1776,3_S
1779264967.235994,2174,1732,3_S
1779264967.240225,2102,1940,3_S
1779264967.241482,2063,2093,3_S
1779264967.2418618,2059,2226,3_S
1779264967.245085,2041,1939,3_S
1779264967.2454212,2034,2093,3_S
1779264967.245512,1930,2131,3_S
1779264967.2456079,1982,2024,3_S
1779264967.245684,2154,1793,3_S
1779264967.24576,2242,1698,3_S
1779264967.245867,2104,1970,3_S
1779264967.247232,2075,2183,3_S
1779264967.2553,2093,1985,3_S
1779264967.257638,2101,2106,3_S
1779264967.2594109,2055,2118,3_S
1779264967.260892,2034,1946,3_S
1779264967.262555,2115,1757,3_S
1779264967.266665,2170,1736,3_S
1779264967.2674282,2154,2014,3_S
1779264967.26794,2067,2139,3_S
1779264967.268121,2041,2003,3_S
1779264967.268388,2062,1960,3_S
1779264967.26897,2002,2194,3_S
1779264967.2719948,1969,2010,3_S
1779264967.273354,2094,1774,3_S
1779264967.2748559,2173,1754,3_S
1779264967.277645,2143,2026,3_S
1779264967.2841039,2085,2125,3_S
1779264967.285559,2060,2177,3_S
1779264967.288378,2077,1954,3_S
1779264967.297421,2060,2069,3_S
1779264967.298399,2031,2050,3_S
1779264967.298997,2037,1807,3_S
1779264967.2992141,2152,1658,3_S
1779264967.302408,2180,1887,3_S
1779264967.302764,2101,2036,3_S
1779264967.3028648,2055,1853,3_S
1779264967.3029509,2070,1778,3_S
1779264967.3030322,2077,1945,3_S
1779264967.303102,1995,2083,3_S
1779264967.304459,2013,1766,3_S
1779264967.3117619,2140,1624,3_S
1779264967.3143911,2204,1650,3_S
1779264967.3151622,2129,1862,3_S
1779264967.3171892,2066,1954,3_S
1779264967.318253,2053,1919,3_S
1779264967.320281,2090,1927,3_S
1779264967.320849,2035,2057,3_S
1779264967.3248231,2035,1967,3_S
1779264967.3255,2096,1714,3_S
1779264967.326113,2197,1615,3_S
1779264967.329126,2141,1885,3_S
1779264967.329258,2068,2085,3_S
1779264967.330645,2054,2000,3_S
1779264967.333285,2088,1842,3_S
1779264967.33464,2059,1992,3_S
1779264967.3416052,2026,1988,3_S
1779264967.342529,2070,1732,3_S
1779264967.34497,2162,1517,3_S
1779264967.347299,2172,1678,3_S
1779264967.3476322,2103,1905,3_S
1779264967.350246,2051,2008,3_S
1779264967.354002,2083,1859,3_S
1779264967.354711,2072,1926,3_S
1779264967.355362,2010,2004,3_S
1779264967.355715,2030,1840,3_S
1779264967.3591921,2128,1599,3_S
1779264967.3592901,2199,1650,3_S
1779264967.360669,2121,1892,3_S
1779264967.3677802,2055,1960,3_S
1779264967.3708348,2042,1855,3_S
1779264967.371155,2100,1837,3_S
1779264967.373992,2027,1973,3_S
1779264967.375981,2022,1851,3_S
1779264967.3797572,2099,1653,3_S
1779264967.380235,2197,1568,3_S
1779264967.380955,2153,1749,3_S
1779264967.3847969,2053,1938,3_S
1779264967.3851762,2065,1904,3_S
1779264967.385254,2082,1752,3_S
1779264967.385333,2056,1924,3_S
1779264967.386698,2032,1906,3_S
1779264967.389687,2073,1699,3_S
1779264967.391147,2171,1545,3_S
1779264967.397973,2179,1733,3_S
1779264967.400397,2104,1917,3_S
1779264967.4025862,2037,1995,3_S
1779264967.403004,2074,1829,3_S
1779264967.409342,2072,1890,3_S
1779264967.411916,2038,1987,3_S
1779264967.412778,2065,1836,3_S
1779264967.412874,2136,1606,3_S
1779264967.412951,2188,1572,3_S
1779264967.413023,2125,1789,3_S
1779264967.4130838,2056,1935,3_S
1779264967.415751,2045,1880,3_S
1779264967.425023,2091,1841,3_S
1779264967.427671,2047,2039,3_S
1779264967.432986,2044,1958,3_S
1779264967.436051,2110,1702,3_S
1779264967.4372852,2213,1630,3_S
1779264967.437386,2169,1892,3_S
1779264967.437459,2084,1987,3_S
1779264967.437608,2090,1994,3_S
1779264967.437715,2066,1832,3_S
1779264967.437841,2015,1956,3_S
1779264967.43797,1955,1960,3_S
1779264967.439353,2031,1817,3_S
1779264967.440726,2158,1605,3_S
1779264967.443572,2153,1780,3_S
1779264967.452532,2088,1995,3_S
1779264967.455221,2084,2003,3_S
1779264967.460746,2085,1895,3_S
1779264967.4613671,2074,1978,3_S
1779264967.464627,2035,2051,3_S
1779264967.46475,2019,1872,3_S
1779264967.46483,2113,1624,3_S
1779264967.4649029,2176,1672,3_S
1779264967.4649768,2130,1895,3_S
1779264967.46504,2082,2052,3_S
1779264967.465101,2031,1910,3_S
1779264967.474037,2072,1860,3_S
1779264967.478734,2049,2083,3_S
1779264967.480715,2096,2010,3_S
1779264967.4847271,2142,1744,3_S
1779264967.485301,2211,1634,3_S
1779264967.488584,2144,1872,3_S
1779264967.4890518,2069,1991,3_S
1779264967.48913,2001,2002,3_S
1779264967.4891992,2063,1883,3_S
1779264967.4892669,2060,2027,3_S
1779264967.4893298,2035,1974,3_S
1779264967.489392,2071,1798,3_S
1779264967.490805,2154,1672,3_S
1779264967.493502,2149,1794,3_S
1779264967.495022,2087,1955,3_S
1779264967.5021288,2044,1990,3_S
1779264967.50433,2071,1888,3_S
1779264967.507007,2051,1958,3_S
1779264967.512429,2012,2034,3_S
1779264967.515459,2042,1875,3_S
1779264967.5166552,2122,1660,3_S
1779264967.516747,2178,1741,3_S
1779264967.516821,2084,1918,3_S
1779264967.516887,2039,1996,3_S
1779264967.5170162,2030,1976,3_S
1779264967.517148,2068,1906,3_S
1779264967.518534,2035,2038,3_S
1779264967.5246332,1996,1951,3_S
1779264967.526483,2094,1736,3_S
1779264967.526718,2174,1694,3_S
1779264967.531283,2137,1944,3_S
1779264967.536648,2054,2021,3_S
1779264967.537675,2032,2025,3_S
1779264967.54086,2077,1931,3_S
1779264967.540967,2038,2040,3_S
1779264967.541045,1998,2090,3_S
1779264967.541156,2041,1884,3_S
1779264967.541276,2141,1669,3_S
1779264967.5426319,2146,1802,3_S
1779264967.5451,2080,2004,3_S
1779264967.552353,2017,2018,3_S
1779264967.553453,2072,1900,3_S
1779264967.55499,2066,1918,3_S
1779264967.5596402,2002,2089,3_S
1779264967.562613,1990,1979,3_S
1779264967.562922,2106,1702,3_S
1779264967.566669,2150,1706,3_S
1779264967.567843,2094,1884,3_S
1779264967.570909,2032,1935,3_S
1779264967.571001,2037,2002,3_S
1779264967.5710762,2083,1969,3_S
1779264967.571148,2032,2112,3_S
1779264967.571212,2012,2020,3_S
1779264967.5726871,2088,1798,3_S
1779264967.578311,2172,1713,3_S
1779264967.582295,2095,1921,3_S
1779264967.585441,2022,2081,3_S
1779264967.590862,2011,2053,3_S
1779264967.591212,2060,1939,3_S
1779264967.5915048,2034,2057,3_S
1779264967.594819,2005,2073,3_S
1779264967.595056,2057,1899,3_S
1779264967.595135,2160,1771,3_S
1779264967.5952,2174,1824,3_S
1779264967.595263,2064,1990,3_S
1779264967.5966332,2020,2063,3_S
1779264967.599315,2038,1945,3_S
1779264967.600816,2002,1964,3_S
1779264967.6073952,1987,2062,3_S
1779264967.613715,2011,1951,3_S
1779264967.614057,2070,1773,3_S
1779264967.620964,2122,1823,3_S
1779264967.621054,2084,2069,3_S
1779264967.621121,2044,2158,3_S
1779264967.621182,2018,2062,3_S
1779264967.6212428,2064,2068,3_S
1779264967.621373,1996,2185,3_S
1779264967.621473,1980,2153,3_S
1779264967.623109,2065,1874,3_S
1779264967.628059,2136,1745,3_S
1779264967.6324859,2123,1990,3_S
1779264967.639724,2047,2113,3_S
1779264967.640142,2012,2158,3_S
1779264967.640752,2061,2038,3_S
1779264967.641005,2022,2138,3_S
1779264967.641689,1989,2113,3_S
1779264967.644044,2044,1978,3_S
1779264967.6447208,2154,1827,3_S
1779264967.645016,2126,1996,3_S
1779264967.645089,2055,2100,3_S
1779264967.647734,2008,2196,3_S
1779264967.64911,2012,2024,3_S
1779264967.650754,2008,2013,3_S
1779264967.658678,1963,2149,3_S
1779264967.660686,1997,2039,3_S
1779264967.6610901,2080,1814,3_S
1779264967.6686652,2129,1828,3_S
1779264967.669801,2090,1949,3_S
1779264967.672747,2040,2125,3_S
1779264967.672844,2037,2074,3_S
1779264967.6729212,2037,2108,3_S
1779264967.6729999,1963,2246,3_S
1779264967.673064,2008,2102,3_S
1779264967.673125,2050,1883,3_S
1779264967.6804428,2121,1831,3_S
1779264967.682265,2095,2067,3_S
1779264967.684574,2052,2247,3_S
1779264967.685059,2014,2187,3_S
1779264967.6893399,2045,2056,3_S
1779264967.689696,1978,2144,3_S
1779264967.693598,2009,2105,3_S
1779264967.69439,2046,2029,3_S
1779264967.6975942,2116,1922,3_S
1779264967.697796,2138,2071,3_S
1779264967.6978712,2066,2103,3_S
1779264967.6979809,2018,2138,3_S
1779264967.699383,2050,2074,3_S
1779264967.7008572,2044,2229,3_S
1779264967.703563,1996,2284,3_S
1779264967.710676,1987,2090,3_S
1779264967.715256,2095,1859,3_S
1779264967.717073,2136,1924,3_S
1779264967.720789,2030,2113,3_S
1779264967.721649,1976,2229,3_S
1779264967.7248719,2017,2119,3_S
1779264967.725009,2034,2086,3_S
1779264967.7251022,1978,2268,3_S
1779264967.725207,1978,2192,3_S
1779264967.725333,2086,2017,3_S
1779264967.725486,2172,1936,3_S
1779264967.726926,2116,2067,3_S
1779264967.7343218,2009,2285,3_S
1779264967.736354,1935,2236,3_S
1779264967.736726,2043,2046,3_S
1779264967.739604,2058,2215,3_S
1779264967.741567,1997,2197,3_S
1779264967.745325,2037,2039,3_S
1779264967.7460082,2152,1842,3_S
1779264967.7465248,2191,1977,3_S
1779264967.749299,2071,2042,3_S
1779264967.750331,2075,2141,3_S
1779264967.750417,2077,2048,3_S
1779264967.7505522,2021,2108,3_S
1779264967.7531981,1953,2181,3_S
1779264967.7545412,2009,2042,3_S
1779264967.768285,2052,1869,3_S
1779264967.773319,2164,1911,3_S
1779264967.774393,2163,2043,3_S
1779264967.7749178,2068,2199,3_S
1779264967.777835,2018,2139,3_S
1779264967.7782688,2027,2089,3_S
1779264967.7784169,1953,2133,3_S
1779264967.778561,1984,2180,3_S
1779264967.778687,2037,1943,3_S
1779264967.7787662,2124,1806,3_S
1779264967.778832,2083,1963,3_S
1779264967.7788942,1991,2199,3_S
1779264967.786829,2001,2282,3_S
1779264967.790796,2096,2174,3_S
1779264967.791449,2064,2173,3_S
1779264967.795467,2015,2110,3_S
1779264967.79987,2063,1985,3_S
1779264967.802956,2123,1912,3_S
1779264967.8033621,2087,2130,3_S
1779264967.803442,2074,2127,3_S
1779264967.803513,2005,2046,3_S
1779264967.803583,2015,2010,3_S
1779264967.8036501,2009,2198,3_S
1779264967.803711,1984,2321,3_S
1779264967.805074,2000,2169,3_S
1779264967.807729,2130,1907,3_S
1779264967.809916,2187,1877,3_S
1779264967.81617,2079,2067,3_S
1779264967.818602,2010,2215,3_S
1779264967.8189938,2003,2127,3_S
1779264967.823422,1992,2185,3_S
1779264967.826923,1981,2255,3_S
1779264967.827258,1974,2145,3_S
1779264967.827648,2034,1964,3_S
1779264967.8280692,2145,1911,3_S
1779264967.828492,2142,2163,3_S
1779264967.831449,2064,2251,3_S
1779264967.832501,1966,2170,3_S
1779264967.832597,2038,2093,3_S
1779264967.83532,1991,2268,3_S
1779264967.841507,1946,2157,3_S
1779264967.844,2016,2038,3_S
1779264967.8445,2106,1857,3_S
1779264967.845236,2116,2013,3_S
1779264967.847897,2023,2172,3_S
1779264967.849756,1966,2160,3_S
1779264967.8498938,2071,2180,3_S
1779264967.853875,2068,2305,3_S
1779264967.854793,1976,2318,3_S
1779264967.8579998,1997,2179,3_S
1779264967.858111,2028,1908,3_S
1779264967.8595579,2149,2070,3_S
1779264967.860924,2075,2277,3_S
1779264967.863563,2041,2306,3_S
1779264967.870856,1989,2190,3_S
1779264967.873385,2017,2225,3_S
1779264967.875673,2005,2364,3_S
1779264967.877992,2023,2323,3_S
1779264967.87848,2172,2190,3_S
1779264967.8820531,2153,2077,3_S
1779264967.885539,1968,2289,3_S
1779264967.8858812,2028,2379,3_S
1779264967.8859782,2027,2477,3_S
1779264967.886056,2029,2277,3_S
1779264967.886157,2010,2545,3_S
1779264967.887508,1964,2439,3_S
1779264967.894169,2099,2205,3_S
1779264967.8974311,2095,1962,3_S
1779264967.8980072,2153,2163,3_S
1779264967.900244,2030,2510,3_S
1779264967.9028852,2005,2359,3_S
1779264967.906471,2037,2159,3_S
1779264967.906987,2018,2273,3_S
1779264967.9077408,1985,2435,3_S
1779264967.910748,2027,2309,3_S
1779264967.9110389,2125,2066,3_S
1779264967.911156,2174,2072,3_S
1779264967.911256,2082,2274,3_S
1779264967.9126022,2031,2314,3_S
1779264967.915286,2004,2246,3_S
1779264967.9167302,2003,2274,3_S
1779264967.923203,1976,2399,3_S
1779264967.926864,1978,2290,3_S
1779264967.927259,2058,2081,3_S
1779264967.931369,2135,2006,3_S
1779264967.931736,2089,2169,3_S
1779264967.935555,1989,2244,3_S
1779264967.936127,1961,2296,3_S
1779264967.9365609,2072,2165,3_S
1779264967.939865,2077,2192,3_S
1779264967.940004,1861,2207,3_S
1779264967.940085,1923,2128,3_S
1779264967.941443,2094,2019,3_S
1779264967.948273,2156,2090,3_S
1779264967.9517,2071,2188,3_S
1779264967.953834,2047,2386,3_S
1779264967.956146,2027,2147,3_S
1779264967.9565701,2010,2179,3_S
1779264967.959869,1993,2139,3_S
1779264967.960277,2067,1958,3_S
1779264967.960862,2135,1787,3_S
1779264967.961419,2123,1901,3_S
1779264967.961687,2077,1970,3_S
1779264967.96499,2010,2054,3_S
1779264967.965072,2013,2194,3_S
1779264967.9665668,2075,2185,3_S
1779264967.9692202,2050,2228,3_S
1779264967.970579,2073,2159,3_S
1779264967.977858,2104,1981,3_S
1779264967.980344,2190,1830,3_S
1779264967.983215,2142,2001,3_S
1779264967.985097,2057,2098,3_S
1779264967.989034,1993,2178,3_S
1779264967.9924102,2013,2038,3_S
1779264967.992707,1993,2157,3_S
1779264967.992799,1958,2154,3_S
1779264967.992894,2040,1917,3_S
1779264967.992966,2131,1764,3_S
1779264967.9930408,2100,1979,3_S
1779264968.002256,2025,2118,3_S
1779264968.0045922,1969,2182,3_S
1779264968.006835,2020,1991,3_S
1779264968.0093062,2004,2125,3_S
1779264968.012969,1967,2182,3_S
1779264968.013759,2017,2034,3_S
1779264968.0141141,2130,1838,3_S
1779264968.017251,2161,1911,3_S
1779264968.017384,2081,2088,3_S
1779264968.017513,2053,2178,3_S
1779264968.017609,2060,2067,3_S
1779264968.0177019,2045,2188,3_S
1779264968.01886,1971,2269,3_S
1779264968.021481,1991,2232,3_S
1779264968.022841,2104,1975,3_S
1779264968.032385,2233,2059,3_S
1779264968.0351439,2127,2098,3_S
1779264968.0370681,2074,2209,3_S
1779264968.0408509,2047,2238,3_S
1779264968.044138,2056,2149,3_S
1779264968.0443,1999,2308,3_S
1779264968.0444329,1973,2277,3_S
1779264968.044517,1973,2096,3_S
1779264968.044589,2121,2047,3_S
1779264968.0446951,2137,2388,3_S
1779264968.044771,2114,2679,3_S
1779264968.052042,2056,2590,3_S
1779264968.0533729,2047,2497,3_S
1779264968.0588958,2056,2633,3_S
1779264968.061289,2046,2607,3_S
1779264968.0646021,2034,2274,3_S
1779264968.065114,1999,2288,3_S
1779264968.0656111,1985,2332,3_S
1779264968.06639,1897,2328,3_S
1779264968.069812,1825,2253,3_S
1779264968.070179,1967,2266,3_S
1779264968.070271,1979,2287,3_S
1779264968.070348,1962,2735,3_S
1779264968.071687,1966,2610,3_S
1779264968.073053,2256,2254,3_S
1779264968.075707,2333,2177,3_S
1779264968.082977,2275,2285,3_S
1779264968.0862641,2168,2475,3_S
1779264968.0866182,2022,2452,3_S
1779264968.089046,2191,2320,3_S
1779264968.089885,2169,2594,3_S
1779264968.094864,2033,2715,3_S
1779264968.095569,2113,1674,3_S
1779264968.0961971,2049,2076,3_S
1779264968.0993721,1866,2581,3_S
1779264968.099467,1973,2289,3_S
1779264968.099591,2105,2306,3_S
1779264968.099662,2084,2336,3_S
1779264968.101109,1931,2474,3_S
1779264968.108983,1840,2591,3_S
1779264968.111238,2059,2410,3_S
1779264968.115488,2232,1984,3_S
1779264968.1194592,2336,2110,3_S
1779264968.120178,2188,2163,3_S
1779264968.123619,1973,2424,3_S
1779264968.123762,2041,1883,3_S
1779264968.123919,1845,2336,3_S
1779264968.124036,1582,2584,3_S
1779264968.124195,1777,2236,3_S
1779264968.124311,2313,2154,3_S
1779264968.125678,2417,2007,3_S
1779264968.1270342,2254,2423,3_S
1779264968.129629,1905,2480,3_S
1779264968.138602,1994,2331,3_S
1779264968.141085,2250,2258,3_S
1779264968.1465669,2329,2515,3_S
1779264968.147132,2159,2350,3_S
1779264968.150639,2165,2070,3_S
1779264968.15075,2156,1511,3_S
1779264968.15092,1763,2142,3_S
1779264968.151001,1478,2312,3_S
1779264968.1510558,1749,2003,3_S
1779264968.151106,2358,2180,3_S
1779264968.151155,2376,2590,3_S
1779264968.1525838,1990,2367,3_S
1779264968.161582,2015,2017,3_S
1779264968.162257,2227,1959,3_S
1779264968.166375,2349,1993,3_S
1779264968.170324,2293,2299,3_S
1779264968.173377,2194,2132,3_S
1779264968.1744561,2021,2298,3_S
1779264968.174603,2031,2257,3_S
1779264968.17473,1942,2334,3_S
1779264968.174853,1852,2133,3_S
1779264968.1749299,1963,2025,3_S
1779264968.175072,1888,1974,3_S
1779264968.176577,1858,2171,3_S
1779264968.179022,1984,2224,3_S
1779264968.186999,2056,2178,3_S
1779264968.191436,2032,2096,3_S
1779264968.1974962,1937,2532,3_S
1779264968.1983218,1942,2361,3_S
1779264968.201493,2173,2142,3_S
1779264968.2015831,2337,2035,3_S
1779264968.201694,2246,2235,3_S
1779264968.201886,2185,2421,3_S
1779264968.201976,2084,2431,3_S
1779264968.202057,2046,2213,3_S
1779264968.2021928,1996,2500,3_S
1779264968.203558,1832,2437,3_S
1779264968.210294,1862,2151,3_S
1779264968.213021,2025,1854,3_S
1779264968.2155619,2098,2159,3_S
1779264968.217901,2008,2421,3_S
1779264968.221594,1898,2450,3_S
1779264968.222096,1976,2234,3_S
1779264968.222715,2079,2276,3_S
1779264968.225989,1992,2274,3_S
1779264968.226135,1967,2359,3_S
1779264968.226264,2125,1924,3_S
1779264968.226392,2146,2067,3_S
1779264968.226583,2062,2214,3_S
1779264968.2292118,1941,2389,3_S
1779264968.230669,1977,2211,3_S
1779264968.241426,2173,2213,3_S
1779264968.245575,2088,2342,3_S
1779264968.249761,1957,2339,3_S
1779264968.2502542,2046,2079,3_S
1779264968.253043,2232,1815,3_S
1779264968.254026,2101,2072,3_S
1779264968.254161,1851,2242,3_S
1779264968.2542698,1939,2153,3_S
1779264968.254401,2159,2224,3_S
1779264968.254553,2013,2422,3_S
1779264968.254682,1950,2300,3_S
1779264968.254807,1974,2357,3_S
1779264968.2627368,2242,1817,3_S
1779264968.265246,2210,1936,3_S
1779264968.267662,1979,2278,3_S
1779264968.270051,2112,2379,3_S
1779264968.273715,2114,2149,3_S
1779264968.274422,2053,2322,3_S
1779264968.275029,1986,2378,3_S
1779264968.278124,2064,2230,3_S
1779264968.2782452,2206,1869,3_S
1779264968.2783282,2288,1785,3_S
1779264968.278412,2263,2169,3_S
1779264968.279776,2141,2365,3_S
1779264968.281122,2084,2205,3_S
1779264968.283755,2081,2178,3_S
1779264968.2910101,1939,2372,3_S
1779264968.2956219,1846,2269,3_S
1779264968.301259,1905,2107,3_S
1779264968.30185,2033,1919,3_S
1779264968.3022761,2093,2079,3_S
1779264968.302735,2110,2365,3_S
1779264968.303026,2086,2295,3_S
1779264968.303523,2017,2176,3_S
1779264968.3076491,1935,2306,3_S
1779264968.307966,2000,2387,3_S
1779264968.3080971,2086,2162,3_S
1779264968.308168,2190,1952,3_S
1779264968.310163,2165,2103,3_S
1779264968.31956,2035,2331,3_S
1779264968.3201458,1969,2324,3_S
1779264968.322268,2071,2165,3_S
1779264968.324864,2132,2328,3_S
1779264968.328565,2075,2507,3_S
1779264968.329549,2010,2217,3_S
1779264968.332143,2145,1978,3_S
1779264968.33303,2255,1937,3_S
1779264968.333153,2177,2278,3_S
1779264968.3332438,1945,2252,3_S
1779264968.333318,1971,2249,3_S
1779264968.333418,2103,2137,3_S
1779264968.334924,2029,2648,3_S
1779264968.337576,1994,2183,3_S
1779264968.338995,1951,2066,3_S
1779264968.3451,1982,1951,3_S
1779264968.348544,1875,2143,3_S
1779264968.3512268,2069,2341,3_S
1779264968.357156,2183,2415,3_S
1779264968.357926,2251,2202,3_S
1779264968.3585331,2179,2303,3_S
1779264968.361793,2111,2344,3_S
1779264968.361886,2055,2154,3_S
1779264968.36196,2207,1871,3_S
1779264968.36213,2281,1954,3_S
1779264968.362269,1995,2155,3_S
1779264968.3636491,1746,2320,3_S
1779264968.373163,1807,2122,3_S
1779264968.377253,2032,2269,3_S
1779264968.3810391,1981,2480,3_S
1779264968.381739,2062,2189,3_S
1779264968.385251,2287,1946,3_S
1779264968.385553,2351,1953,3_S
1779264968.385642,2283,2329,3_S
1779264968.385789,2136,2277,3_S
1779264968.385899,2135,2281,3_S
1779264968.386045,2120,2187,3_S
1779264968.386132,1970,2376,3_S
1779264968.387539,1922,2249,3_S
1779264968.3889332,1998,1956,3_S
1779264968.391707,2025,1942,3_S
1779264968.4007092,2016,2003,3_S
1779264968.4038348,1991,2257,3_S
1779264968.405812,2005,2272,3_S
1779264968.409753,2268,2126,3_S
1779264968.410382,2245,2306,3_S
1779264968.410835,2054,2317,3_S
1779264968.411267,2052,2023,3_S
1779264968.4118688,2231,1730,3_S
1779264968.41211,2153,1984,3_S
1779264968.415114,2036,2239,3_S
1779264968.415551,1968,2219,3_S
1779264968.415732,1973,2151,3_S
1779264968.417113,2099,2176,3_S
1779264968.424033,1974,2335,3_S
1779264968.431275,1923,2233,3_S
1779264968.431844,2022,1824,3_S
1779264968.43565,2169,1952,3_S
1779264968.436642,2046,2142,3_S
1779264968.437485,2004,2196,3_S
1779264968.4403992,2114,2064,3_S
1779264968.440486,2083,2124,3_S
1779264968.440675,1854,2338,3_S
1779264968.44074,1919,2166,3_S
1779264968.4408581,2155,1947,3_S
1779264968.440941,2289,1745,3_S
1779264968.444366,2059,2065,3_S
1779264968.446013,2037,2318,3_S
1779264968.457613,2022,2137,3_S
1779264968.460598,1953,2256,3_S
1779264968.466057,1849,2238,3_S
1779264968.467134,1675,2273,3_S
1779264968.470741,1797,2020,3_S
1779264968.470814,2174,1698,3_S
1779264968.470866,2522,1943,3_S
1779264968.470915,2394,2141,3_S
1779264968.470963,2242,2231,3_S
1779264968.4712472,2174,2044,3_S
1779264968.471297,2224,2180,3_S
1779264968.4714801,2144,2268,3_S
1779264968.471769,2107,2077,3_S
1779264968.4794528,2105,1860,3_S
1779264968.4825542,1779,1933,3_S
1779264968.4871109,1765,2171,3_S
1779264968.491532,1963,2224,3_S
1779264968.495001,1981,2143,3_S
1779264968.495182,2019,2173,3_S
1779264968.495302,1745,2376,3_S
1779264968.4953759,1859,2280,3_S
1779264968.495512,2251,1919,3_S
1779264968.4956312,2504,1791,3_S
1779264968.495769,2225,2125,3_S
1779264968.495889,2147,2213,3_S
1779264968.4973938,2105,2221,3_S
1779264968.499806,2174,2089,3_S
1779264968.507553,2155,2248,3_S
1779264968.51238,2061,2267,3_S
1779264968.514691,2125,1997,3_S
1779264968.515108,2198,1723,3_S
1779264968.51864,2146,1759,3_S
1779264968.519283,1987,2069,3_S
1779264968.519732,1905,2274,3_S
1779264968.520546,2017,2075,3_S
1779264968.523702,1905,2050,3_S
1779264968.523888,1836,2260,3_S
1779264968.524021,1906,2010,3_S
1779264968.524092,1988,1818,3_S
1779264968.5254982,2059,1879,3_S
1779264968.5320718,1913,2187,3_S
1779264968.535211,2135,2280,3_S
1779264968.539547,2241,2188,3_S
1779264968.5432389,2225,2116,3_S
1779264968.543721,1966,2300,3_S
1779264968.5441332,2021,2211,3_S
1779264968.547984,2294,1891,3_S
1779264968.5484211,2364,1851,3_S
1779264968.5486631,2239,2088,3_S
1779264968.548959,2062,2178,3_S
1779264968.549021,1966,2257,3_S
1779264968.5492532,1993,2029,3_S
1779264968.550713,1966,2280,3_S
1779264968.553382,1974,2219,3_S
1779264968.559104,1948,2112,3_S
1779264968.5680509,2083,1680,3_S
1779264968.572028,2019,1910,3_S
1779264968.5723898,1905,2097,3_S
1779264968.573107,1883,2180,3_S
1779264968.5737631,2042,2066,3_S
1779264968.576755,2052,2212,3_S
1779264968.577261,2001,2322,3_S
1779264968.5774348,2064,2061,3_S
1779264968.5775151,2176,1811,3_S
1779264968.577641,2146,1930,3_S
1779264968.577712,2023,2225,3_S
1779264968.5791202,2081,2311,3_S
1779264968.586942,2061,2165,3_S
1779264968.591864,2045,2180,3_S
1779264968.5945442,2053,2309,3_S
1779264968.5985432,2094,2192,3_S
1779264968.59952,2138,1929,3_S
1779264968.599724,2062,1825,3_S
1779264968.600079,2044,2116,3_S
1779264968.60065,2047,2185,3_S
1779264968.6038241,2128,2238,3_S
1779264968.604345,2125,2142,3_S
1779264968.6044319,1979,2362,3_S
1779264968.6045382,1967,2317,3_S
1779264968.604703,2092,1999,3_S
1779264968.607467,2201,1774,3_S
1779264968.6088881,2240,2028,3_S
1779264968.619642,2092,2221,3_S
1779264968.6204019,2013,2274,3_S
1779264968.628417,1993,2136,3_S
1779264968.6291819,1960,2234,3_S
1779264968.629545,1937,2333,3_S
1779264968.6332102,2024,2155,3_S
1779264968.6333609,2108,1880,3_S
1779264968.633465,2146,1933,3_S
1779264968.6336188,2096,2210,3_S
1779264968.633739,2038,2289,3_S
1779264968.633861,2017,2170,3_S
1779264968.6340292,1982,2161,3_S
1779264968.6353989,1928,2403,3_S
1779264968.642293,1962,2262,3_S
1779264968.645123,2035,1929,3_S
1779264968.653526,2148,1788,3_S
1779264968.6543732,2105,2069,3_S
1779264968.655083,1997,2264,3_S
1779264968.6580968,1980,2239,3_S
1779264968.65819,2040,2123,3_S
1779264968.658261,2078,2321,3_S
1779264968.658325,2098,2280,3_S
1779264968.658415,2086,2000,3_S
1779264968.658539,2216,1802,3_S
1779264968.658688,2130,2050,3_S
1779264968.6613061,2061,2287,3_S
1779264968.662664,1991,2291,3_S
1779264968.6718879,2009,2123,3_S
1779264968.678525,2049,2200,3_S
1779264968.682375,2006,2304,3_S
1779264968.683121,2024,2118,3_S
1779264968.6837912,2101,1829,3_S
1779264968.6868749,2203,1915,3_S
1779264968.687029,2129,2181,3_S
1779264968.687171,2065,2279,3_S
1779264968.6872902,2034,2217,3_S
1779264968.6874082,2049,2156,3_S
1779264968.68752,1960,2343,3_S
1779264968.6876328,1975,2158,3_S
1779264968.6889868,2044,1859,3_S
1779264968.694944,2143,1764,3_S
1779264968.698724,2097,2021,3_S
1779264968.699341,2001,2169,3_S
1779264968.7037282,1919,2103,3_S
1779264968.707902,2004,2018,3_S
1779264968.708566,2046,2243,3_S
1779264968.709326,2047,2211,3_S
1779264968.7119098,2100,1954,3_S
1779264968.712853,2166,1728,3_S
1779264968.712993,2136,1968,3_S
1779264968.713145,2082,2197,3_S
1779264968.713269,2041,2233,3_S
1779264968.714941,2060,2076,3_S
1779264968.7176251,1994,2150,3_S
1779264968.718997,1905,2233,3_S
1779264968.7271419,1932,2056,3_S
1779264968.729463,2095,1853,3_S
1779264968.729943,2181,1839,3_S
1779264968.738451,2081,2071,3_S
1779264968.739531,2024,2159,3_S
1779264968.740129,2048,2058,3_S
1779264968.743135,2000,2153,3_S
1779264968.743213,1995,2294,3_S
1779264968.743281,2019,2152,3_S
1779264968.743392,2099,1849,3_S
1779264968.743465,2145,1817,3_S
1779264968.743577,2115,2176,3_S
1779264968.744973,2009,2159,3_S
1779264968.7524722,2029,2115,3_S
1779264968.754743,2051,1998,3_S
1779264968.762789,2002,2233,3_S
1779264968.763274,1959,2246,3_S
1779264968.7638762,2033,1962,3_S
1779264968.7644181,2118,1679,3_S
1779264968.764821,2102,1907,3_S
1779264968.767167,2034,2154,3_S
1779264968.768202,1971,2208,3_S
1779264968.768343,2028,2065,3_S
1779264968.76846,1998,2164,3_S
1779264968.769822,1919,2318,3_S
1779264968.7712,1935,2050,3_S
1779264968.77381,2071,1772,3_S
1779264968.77998,2116,1831,3_S
1779264968.7833831,2048,2084,3_S
1779264968.783686,1981,2200,3_S
1779264968.7839181,2021,2139,3_S
1779264968.788115,2044,2068,3_S
1779264968.79165,1991,2212,3_S
1779264968.792362,1935,2148,3_S
1779264968.7927308,2055,1914,3_S
1779264968.792993,2168,1698,3_S
1779264968.793407,2072,1972,3_S
1779264968.796352,1993,2151,3_S
1779264968.797764,1936,2246,3_S
1779264968.805394,2025,2067,3_S
1779264968.8074582,2034,2212,3_S
1779264968.807604,2002,2219,3_S
1779264968.809962,2085,1919,3_S
1779264968.8118248,2164,1655,3_S
1779264968.8121421,2121,1807,3_S
1779264968.818411,2065,2390,3_S
1779264968.819409,2063,2453,3_S
1779264968.8194718,2099,2065,3_S
1779264968.819523,2074,2177,3_S
1779264968.819572,2008,2270,3_S
1779264968.82092,2053,2141,3_S
1779264968.823509,2096,1876,3_S
1779264968.8248372,2139,1952,3_S
1779264968.830966,2063,2089,3_S
1779264968.8322968,1974,2206,3_S
1779264968.8328772,1969,2043,3_S
1779264968.83467,1971,2119,3_S
1779264968.834943,1938,2365,3_S
1779264968.83919,1951,2256,3_S
1779264968.842638,2031,1962,3_S
1779264968.843084,2109,1880,3_S
1779264968.843374,2096,2164,3_S
1779264968.8463209,2037,2249,3_S
1779264968.847795,2017,2312,3_S
1779264968.84939,1998,2217,3_S
1779264968.854358,2019,2311,3_S
1779264968.857978,1975,2264,3_S
1779264968.858403,2025,1979,3_S
1779264968.8625731,2127,1746,3_S
1779264968.8661811,2099,2035,3_S
1779264968.866709,1990,2234,3_S
1779264968.8670669,1952,2254,3_S
1779264968.867392,1982,2184,3_S
1779264968.8704839,1973,2183,3_S
1779264968.870545,1922,2231,3_S
1779264968.87068,1988,2114,3_S
1779264968.873279,2083,1812,3_S
1779264968.874731,2099,1845,3_S
1779264968.883627,2007,2176,3_S
1779264968.8856902,1963,2307,3_S
1779264968.887813,2031,2145,3_S
1779264968.890062,1992,2056,3_S
1779264968.89359,1907,2361,3_S
1779264968.8939462,1922,2407,3_S
1779264968.894228,2116,2009,3_S
1779264968.894646,2205,1863,3_S
1779264968.897988,2024,2052,3_S
1779264968.8981419,1968,2273,3_S
1779264968.898205,1930,2284,3_S
1779264968.899327,2107,2342,3_S
1779264968.904465,2114,2299,3_S
1779264968.905178,1986,2302,3_S
1779264968.9087942,2005,2090,3_S
1779264968.909091,2183,1867,3_S
1779264968.909282,2150,2023,3_S
1779264968.911378,2067,2252,3_S
1779264968.915833,2009,2278,3_S
1779264968.916157,2030,2103,3_S
1779264968.918932,2034,2284,3_S
1779264968.918988,1946,2270,3_S
1779264968.921356,1962,2125,3_S
1779264968.922671,2054,1886,3_S
1779264968.929375,2134,2064,3_S
1779264968.934119,2017,2473,3_S
1779264968.9365828,1952,2405,3_S
1779264968.9402602,2063,2138,3_S
1779264968.940902,2082,2224,3_S
1779264968.943241,1985,2377,3_S
1779264968.9441228,1978,2146,3_S
1779264968.9442601,2142,1787,3_S
1779264968.944365,2233,1896,3_S
1779264968.944509,2110,2243,3_S
1779264968.9446971,1960,2454,3_S
1779264968.952245,2020,2263,3_S
1779264968.954169,2089,1969,3_S
1779264968.95663,2023,2325,3_S
1779264968.96182,1931,2366,3_S
1779264968.9622982,2065,1993,3_S
1779264968.962826,2159,1784,3_S
1779264968.965004,2131,2008,3_S
1779264968.9657788,2055,2192,3_S
1779264968.9659252,2050,2212,3_S
1779264968.966045,2051,2046,3_S
1779264968.967399,1987,2151,3_S
1779264968.968683,1954,2351,3_S
1779264968.978663,2023,2074,3_S
1779264968.9793558,2121,1808,3_S
1779264968.981382,2129,1901,3_S
1779264968.9869828,2035,2146,3_S
1779264968.99012,1995,2291,3_S
1779264968.9904351,1995,2113,3_S
1779264968.990561,1971,2159,3_S
1779264968.9907022,2023,2344,3_S
1779264968.990839,2050,2013,3_S
1779264968.991076,2085,1765,3_S
1779264968.9912279,2145,1780,3_S
1779264969.000101,2095,2076,3_S
1779264969.002155,2082,2328,3_S
1779264969.0077069,2115,2031,3_S
1779264969.0083861,2115,1848,3_S
1779264969.010942,2017,1990,3_S
1779264969.011219,2004,1885,3_S
1779264969.0113611,2067,1730,3_S
1779264969.011498,2140,1495,3_S
1779264969.011613,2124,1744,3_S
1779264969.011692,2042,1959,3_S
1779264969.013046,1990,2023,3_S
1779264969.015779,2029,1779,3_S
1779264969.024487,1997,1951,3_S
1779264969.0269718,1954,1917,3_S
1779264969.032129,1997,1734,3_S
1779264969.0326421,2143,1450,3_S
1779264969.034903,2156,1572,3_S
1779264969.035777,2079,1691,3_S
1779264969.03592,2032,1775,3_S
1779264969.036031,2040,1618,3_S
1779264969.0361469,2037,1660,3_S
1779264969.036255,1972,1748,3_S
1779264969.037599,1994,1544,3_S
1779264969.0455658,2098,1382,3_S
1779264969.048075,2165,1408,3_S
1779264969.0497658,2101,1730,3_S
1779264969.05342,2015,1751,3_S
1779264969.0542212,2010,1619,3_S
1779264969.0571132,2061,1532,3_S
1779264969.057277,2018,1706,3_S
1779264969.0575092,2003,1691,3_S
1779264969.0575879,2048,1410,3_S
1779264969.057712,2156,1304,3_S
1779264969.0591109,2131,1548,3_S
1779264969.0617359,2043,1629,3_S
1779264969.068507,2028,1643,3_S
1779264969.070658,2030,1598,3_S
1779264969.077518,2043,1600,3_S
1779264969.078298,1964,1582,3_S
1779264969.080788,2044,1450,3_S
1779264969.081833,2138,1241,3_S
1779264969.081981,2160,1426,3_S
1779264969.082067,2085,1655,3_S
1779264969.082133,2037,1676,3_S
1779264969.082249,2054,1590,3_S
1779264969.084037,2051,1570,3_S
1779264969.088578,2001,1673,3_S
1779264969.092021,2046,1562,3_S
1779264969.0958312,2109,1407,3_S
1779264969.0994089,2156,1401,3_S
1779264969.100107,2098,1624,3_S
1779264969.102886,2033,1685,3_S
1779264969.1032739,2021,1669,3_S
1779264969.1034172,2073,1610,3_S
1779264969.103553,2002,1776,3_S
1779264969.103632,1995,1710,3_S
1779264969.104983,2090,1422,3_S
1779264969.107628,2181,1361,3_S
1779264969.11401,2154,1586,3_S
1779264969.118919,2083,1739,3_S
1779264969.124819,2023,1776,3_S
1779264969.1254442,2046,1701,3_S
1779264969.12607,2048,1841,3_S
1779264969.1291509,1986,1894,3_S
1779264969.1292748,2051,1688,3_S
1779264969.129434,2153,1420,3_S
1779264969.1295092,2177,1607,3_S
1779264969.1295779,2071,1848,3_S
1779264969.129762,2018,1857,3_S
1779264969.131132,2045,1733,3_S
1779264969.139335,2063,1738,3_S
1779264969.145949,2016,1878,3_S
1779264969.1468952,2040,1758,3_S
1779264969.147476,2128,1585,3_S
1779264969.149777,2181,1564,3_S
1779264969.1507509,2110,1827,3_S
1779264969.1508312,2037,1879,3_S
1779264969.1509051,2041,1883,3_S
1779264969.1510131,2079,1769,3_S
1779264969.1511,2009,1856,3_S
1779264969.1538172,2002,1822,3_S
1779264969.154954,2056,1623,3_S
1779264969.164096,2160,1562,3_S
1779264969.165911,2136,1801,3_S
1779264969.16816,2052,1942,3_S
1779264969.171801,2027,1859,3_S
1779264969.1743932,2068,1759,3_S
1779264969.1752372,2041,1871,3_S
1779264969.175401,1983,1898,3_S
1779264969.175571,2048,1767,3_S
1779264969.175678,2143,1626,3_S
1779264969.175789,2152,1755,3_S
1779264969.177045,2082,1854,3_S
1779264969.185344,2019,1908,3_S
1779264969.1858182,2059,1859,3_S
1779264969.1926,2028,1878,3_S
1779264969.193141,2003,1957,3_S
1779264969.1938329,2000,1887,3_S
1779264969.196671,2088,1747,3_S
1779264969.196789,2169,1718,3_S
1779264969.196904,2079,1930,3_S
1779264969.196987,2027,1975,3_S
1779264969.197054,2044,1910,3_S
1779264969.199678,2068,1860,3_S
1779264969.201045,2000,2018,3_S
1779264969.209954,2008,1980,3_S
1779264969.2136362,2088,1768,3_S
1779264969.2141702,2183,1721,3_S
1779264969.217207,2137,1926,3_S
1779264969.218156,2061,2015,3_S
1779264969.2205691,2013,1975,3_S
1779264969.2213361,2040,1869,3_S
1779264969.221463,2001,1921,3_S
1779264969.221545,1949,1984,3_S
1779264969.2216709,2014,1833,3_S
1779264969.223082,2143,1723,3_S
1779264969.232438,2157,1829,3_S
1779264969.2378082,2066,2003,3_S
1779264969.238261,2007,2101,3_S
1779264969.239115,2051,1991,3_S
1779264969.241416,2068,1958,3_S
1779264969.2421691,2009,2058,3_S
1779264969.242283,2024,1959,3_S
1779264969.24242,2146,1811,3_S
1779264969.24249,2191,1841,3_S
1779264969.243835,2089,1926,3_S
1779264969.245003,1975,1984,3_S
1779264969.248086,2037,2008,3_S
1779264969.2559931,2070,1909,3_S
1779264969.258563,2021,1798,3_S
1779264969.260268,1975,2021,3_S
1779264969.263991,2086,2029,3_S
1779264969.264362,2239,1748,3_S
1779264969.267505,2146,1936,3_S
1779264969.267623,2051,2118,3_S
1779264969.267749,2011,2014,3_S
1779264969.267884,2058,1872,3_S
1779264969.2679622,2052,1915,3_S
1779264969.269127,2008,2021,3_S
1779264969.2772522,2032,2047,3_S
1779264969.2812428,2129,1832,3_S
1779264969.284586,2128,1844,3_S
1779264969.285116,2030,2045,3_S
1779264969.285625,1971,2161,3_S
1779264969.2862458,2017,2092,3_S
1779264969.2890189,2074,2175,3_S
1779264969.289139,1983,2259,3_S
1779264969.289249,2007,2016,3_S
1779264969.289381,2113,1798,3_S
1779264969.290851,2172,1765,3_S
1779264969.293509,2105,2022,3_S
1779264969.305258,2032,2265,3_S
1779264969.3089468,2031,2256,3_S
1779264969.311763,2070,2191,3_S
1779264969.31191,2010,2332,3_S
1779264969.312027,2002,2273,3_S
1779264969.3121228,2084,2060,3_S
1779264969.312253,2187,1936,3_S
1779264969.312374,2167,2079,3_S
1779264969.312441,2091,2211,3_S
1779264969.31391,2086,2176,3_S
1779264969.315413,2119,2093,3_S
1779264969.31684,2061,2248,3_S
1779264969.322561,1993,2328,3_S
1779264969.328328,2054,2180,3_S
1779264969.330102,2142,1915,3_S
1779264969.333864,2121,2112,3_S
1779264969.336739,2055,2130,3_S
1779264969.337125,1991,2042,3_S
1779264969.33726,2042,2165,3_S
1779264969.3373811,2064,2192,3_S
1779264969.337492,1997,2341,3_S
1779264969.337593,2007,2155,3_S
1779264969.33899,2097,2089,3_S
1779264969.348534,2147,2086,3_S
1779264969.3542552,2083,2151,3_S
1779264969.354974,2010,2273,3_S
1779264969.3576791,1989,2265,3_S
1779264969.357803,2026,2295,3_S
1779264969.357919,1981,2439,3_S
1779264969.358037,1994,2304,3_S
1779264969.35817,2087,2179,3_S
1779264969.358311,2185,2233,3_S
1779264969.359691,2164,2350,3_S
1779264969.361043,2057,2459,3_S
1779264969.370576,2034,2465,3_S
1779264969.372834,2063,2385,3_S
1779264969.3744051,2059,2485,3_S
1779264969.3753622,1998,2564,3_S
1779264969.3781881,2024,2366,3_S
1779264969.378696,2138,2156,3_S
1779264969.378975,2169,2263,3_S
1779264969.3792782,2126,2325,3_S
1779264969.37977,2014,2409,3_S
1779264969.383009,2017,2270,3_S
1779264969.3831491,2075,2322,3_S
1779264969.3925881,2009,2409,3_S
1779264969.396348,1994,2274,3_S
1779264969.399881,2096,2151,3_S
1779264969.400533,2186,2232,3_S
1779264969.4009259,2104,2330,3_S
1779264969.403847,2004,2325,3_S
1779264969.403977,2011,2299,3_S
1779264969.404098,2081,2361,3_S
1779264969.4042292,2031,2518,3_S
1779264969.404332,2018,2385,3_S
1779264969.405697,2060,2126,3_S
1779264969.407114,2173,2089,3_S
1779264969.4145331,2156,2238,3_S
1779264969.415259,2056,2271,3_S
1779264969.418276,1995,2283,3_S
1779264969.420126,2018,2163,3_S
1779264969.4223812,1978,2392,3_S
1779264969.425878,1927,2395,3_S
1779264969.428803,2054,2200,3_S
1779264969.4291809,2173,2046,3_S
1779264969.429337,2143,2199,3_S
1779264969.429458,2052,2305,3_S
1779264969.4295669,2046,2169,3_S
1779264969.430919,2063,2203,3_S
1779264969.4370089,2046,2248,3_S
1779264969.439308,1961,2261,3_S
1779264969.443243,1991,2142,3_S
1779264969.446644,2175,1977,3_S
1779264969.447296,2232,1923,3_S
1779264969.447714,2042,2194,3_S
1779264969.450489,1954,2365,3_S
1779264969.450641,1958,2253,3_S
1779264969.45076,2087,2155,3_S
1779264969.450884,2049,2396,3_S
1779264969.453541,2037,2506,3_S
1779264969.454796,2107,2187,3_S
1779264969.463806,2153,1875,3_S
1779264969.4674728,2151,2029,3_S
1779264969.470792,2088,2149,3_S
1779264969.471519,2049,2275,3_S
1779264969.474056,2134,2034,3_S
1779264969.474881,2046,2179,3_S
1779264969.475002,1983,2245,3_S
1779264969.4751291,2006,2034,3_S
1779264969.47526,2160,1779,3_S
1779264969.475329,2187,2077,3_S
1779264969.481992,2051,2350,3_S
1779264969.484768,1969,2377,3_S
1779264969.487493,2070,2401,3_S
1779264969.489134,2189,2162,3_S
1779264969.492644,2065,2178,3_S
1779264969.4933991,1946,2130,3_S
1779264969.496021,2156,1875,3_S
1779264969.496147,2190,1937,3_S
1779264969.4962611,2099,2114,3_S
1779264969.4963672,2035,2159,3_S
1779264969.4978209,2041,2109,3_S
1779264969.4989161,2112,2020,3_S
1779264969.501487,2036,2245,3_S
1779264969.50629,2039,2197,3_S
1779264969.513047,2072,1970,3_S
1779264969.516545,2179,1891,3_S
1779264969.517191,2097,2022,3_S
1779264969.517826,2005,2195,3_S
1779264969.520614,2003,2167,3_S
1779264969.520728,2067,2058,3_S
1779264969.520881,2013,2069,3_S
1779264969.520998,1968,2096,3_S
1779264969.5211232,2044,1986,3_S
1779264969.530415,2195,1923,3_S
1779264969.530797,2219,1934,3_S
1779264969.5329878,2038,1999,3_S
1779264969.537857,1958,2030,3_S
1779264969.538458,2049,2052,3_S
1779264969.538778,2016,2221,3_S
1779264969.5394719,1965,2193,3_S
1779264969.542249,1982,2194,3_S
1779264969.5423849,2089,2068,3_S
1779264969.5425029,2155,2035,3_S
1779264969.5438652,2154,2137,3_S
1779264969.545297,2072,2007,3_S
1779264969.5516422,1977,2033,3_S
1779264969.552845,2028,2392,3_S
1779264969.5535429,1934,2269,3_S
1779264969.557302,2016,2015,3_S
1779264969.56012,2149,1766,3_S
1779264969.563282,2221,1672,3_S
1779264969.563841,2083,2001,3_S
1779264969.564449,1923,2186,3_S
1779264969.566985,1990,2174,3_S
1779264969.5673332,2173,2057,3_S
1779264969.567478,2136,2286,3_S
1779264969.568845,1981,2103,3_S
1779264969.578156,2007,1876,3_S
1779264969.585932,2143,1901,3_S
1779264969.585991,2159,2140,3_S
1779264969.586037,2051,2263,3_S
1779264969.58608,2029,2125,3_S
1779264969.586123,2039,1993,3_S
1779264969.586165,2061,1816,3_S
1779264969.586207,1999,1576,3_S
1779264969.5876212,1923,1547,3_S
1779264969.589062,2056,1278,3_S
1779264969.598996,2148,1356,3_S
1779264969.6028109,1990,1541,3_S
1779264969.608932,1948,1370,3_S
1779264969.60908,1980,1262,3_S
1779264969.609231,2121,1191,3_S
1779264969.609355,2044,1369,3_S
1779264969.609472,1901,1423,3_S
1779264969.6096032,2024,1302,3_S
1779264969.609729,2220,1323,3_S
1779264969.6098099,2171,1422,3_S
1779264969.611178,2088,1570,3_S
1779264969.613813,1979,1403,3_S
1779264969.622012,1979,1229,3_S
1779264969.6289868,2076,1484,3_S
1779264969.6298392,2161,1374,3_S
1779264969.6325052,2136,1189,3_S
1779264969.632971,2230,1101,3_S
1779264969.633028,2190,1375,3_S
1779264969.633076,2051,1692,3_S
1779264969.63312,1998,1758,3_S
1779264969.633166,2057,1594,3_S
1779264969.633211,2079,1430,3_S
1779264969.641004,2068,1395,3_S
1779264969.6417458,2010,1413,3_S
1779264969.643662,2059,1388,3_S
1779264969.643886,2159,1438,3_S
1779264969.644383,2140,1567,3_S
1779264969.651167,2055,1621,3_S
1779264969.651833,2037,1605,3_S
1779264969.6545951,2009,1623,3_S
1779264969.654922,1957,1609,3_S
1779264969.655055,1931,1557,3_S
1779264969.655136,2046,1619,3_S
1779264969.657721,2146,1457,3_S
1779264969.659122,2095,1436,3_S
1779264969.667995,2046,1580,3_S
1779264969.670414,1983,1635,3_S
1779264969.675107,1949,1641,3_S
1779264969.6780858,1917,1713,3_S
1779264969.678401,1914,1711,3_S
1779264969.678524,2039,1541,3_S
1779264969.678646,2120,1325,3_S
1779264969.6788092,2144,1609,3_S
1779264969.6789608,2114,2080,3_S
1779264969.6790972,2137,1814,3_S
1779264969.681736,2255,1529,3_S
1779264969.68309,2168,1799,3_S
1779264969.690924,2042,1815,3_S
1779264969.693453,2079,1719,3_S
1779264969.698297,2172,1589,3_S
1779264969.701152,2169,1639,3_S
1779264969.701259,2020,1696,3_S
1779264969.7013388,2000,1621,3_S
1779264969.701409,1930,1842,3_S
1779264969.7014751,1973,1936,3_S
1779264969.701544,1968,1971,3_S
1779264969.702923,1959,1969,3_S
1779264969.705732,2059,1886,3_S
1779264969.7151659,2221,1803,3_S
1779264969.7172842,2137,1914,3_S
1779264969.723416,2074,2002,3_S
1779264969.72642,1963,1916,3_S
1779264969.7265851,2038,1825,3_S
1779264969.726683,2021,1924,3_S
1779264969.7268322,2020,1980,3_S
1779264969.726971,2056,1892,3_S
1779264969.727117,2176,1824,3_S
1779264969.727259,2108,1910,3_S
1779264969.727366,1937,2002,3_S
1779264969.734048,1980,2125,3_S
1779264969.736525,2084,1941,3_S
1779264969.7386172,2035,1957,3_S
1779264969.74452,1936,2060,3_S
1779264969.745396,1962,1888,3_S
1779264969.7484548,2035,1828,3_S
1779264969.748631,1950,1970,3_S
1779264969.748773,2008,2119,3_S
1779264969.7488399,2101,2016,3_S
1779264969.748936,2154,2021,3_S
1779264969.749082,2115,1998,3_S
1779264969.7517152,2128,2158,3_S
1779264969.75307,2076,2097,3_S
1779264969.7613492,2155,2021,3_S
1779264969.763617,2192,1997,3_S
1779264969.769057,2107,2136,3_S
1779264969.7694762,2020,2065,3_S
1779264969.772383,1945,2138,3_S
1779264969.7725399,1847,2144,3_S
1779264969.772667,1672,2060,3_S
1779264969.772792,1751,2163,3_S
1779264969.772925,2128,2032,3_S
1779264969.773032,2410,2046,3_S
1779264969.78247,2200,2179,3_S
1779264969.786416,1795,2314,3_S
1779264969.789763,1930,2271,3_S
1779264969.790617,2277,2318,3_S
1779264969.793613,2322,2512,3_S
1779264969.7937531,2040,2490,3_S
1779264969.7939,2005,2569,3_S
1779264969.794018,2097,2452,3_S
1779264969.794114,2139,2458,3_S
1779264969.794223,1894,2677,3_S
1779264969.795361,1704,2723,3_S
1779264969.798012,1605,2781,3_S
1779264969.804873,2191,2973,3_S
1779264969.809006,2071,3124,3_S
1779264969.813523,2088,3281,3_S
1779264969.814058,2310,3256,3_S
1779264969.816761,2553,3145,3_S
1779264969.817674,2413,3188,3_S
1779264969.8178198,2259,3318,3_S
1779264969.8179379,2234,3814,3_S
1779264969.818053,2021,3683,3_S
1779264969.818163,1673,3656,3_S
1779264969.8194802,1756,3610,3_S
1779264969.8278909,2078,3608,3_S
1779264969.828099,2066,3563,3_S
1779264969.834862,1922,3619,3_S
1779264969.835762,2085,3737,3_S
1779264969.8388941,2223,3630,3_S
1779264969.8391502,2154,3861,3_S
1779264969.839274,1692,3795,3_S
1779264969.8393862,1797,3627,3_S
1779264969.839492,1648,3666,3_S
1779264969.839555,1958,3807,3_S
1779264969.840899,2269,3694,3_S
1779264969.843551,2201,3515,3_S
1779264969.849202,2204,3725,3_S
1779264969.8527832,2495,3606,3_S
1779264969.856429,2571,3594,3_S
1779264969.8598132,2291,3657,3_S
1779264969.8604858,2016,3432,3_S
1779264969.861223,1573,3460,3_S
1779264969.864063,1895,3474,3_S
1779264969.864213,2060,3305,3_S
1779264969.864307,1713,3031,3_S
1779264969.8643699,973,3335,3_S
1779264969.865531,949,3490,3_S
1779264969.874402,1877,3450,3_S
1779264969.8748958,2870,3518,3_S
1779264969.882646,2724,3449,3_S
1779264969.886443,1973,3063,3_S
1779264969.8865469,1743,2993,3_S
1779264969.886624,2234,3148,3_S
1779264969.886697,2119,2978,3_S
1779264969.886828,1717,3125,3_S
1779264969.886933,2232,3621,3_S
1779264969.8870022,2517,3356,3_S
1779264969.887122,2754,3198,3_S
1779264969.890033,2800,3006,3_S
1779264969.891436,2283,3157,3_S
1779264969.901804,2035,3043,3_S
1779264969.906185,1731,2729,3_S
1779264969.910309,1910,3065,3_S
1779264969.911072,2132,2869,3_S
1779264969.914526,1734,2929,3_S
1779264969.9167628,1588,2795,3_S
1779264969.916981,1488,2801,3_S
1779264969.917079,1619,2321,3_S
1779264969.9171898,2148,1910,3_S
1779264969.9173288,2460,2174,3_S
1779264969.917844,2723,3021,3_S
1779264969.923548,2740,2778,3_S
1779264969.9266481,2288,2947,3_S
1779264969.927218,1984,2691,3_S
1779264969.931552,1625,2305,3_S
1779264969.941199,1693,2063,3_S
1779264969.9413068,1833,2460,3_S
1779264969.941453,2159,2517,3_S
1779264969.941524,2167,2319,3_S
1779264969.941587,1896,2152,3_S
1779264969.941649,1848,2447,3_S
1779264969.94171,1720,2406,3_S
1779264969.94177,1905,2107,3_S
1779264969.94183,2095,1816,3_S
1779264969.941891,2344,2147,3_S
1779264969.943258,2171,2059,3_S
1779264969.952939,1985,2223,3_S
1779264969.953621,1854,2072,3_S
1779264969.956079,1833,2081,3_S
1779264969.9570282,1588,2224,3_S
1779264969.9590158,1423,2301,3_S
1779264969.962612,1915,1786,3_S
1779264969.9631271,2290,1655,3_S
1779264969.963562,2135,2072,3_S
1779264969.964084,1847,2259,3_S
1779264969.966676,1909,2146,3_S
1779264969.967644,1984,2008,3_S
1779264969.967755,1937,2254,3_S
1779264969.9692318,2048,2264,3_S
1779264969.985037,2089,1848,3_S
1779264969.987823,2199,1654,3_S
1779264969.988627,2174,2146,3_S
1779264969.988708,1935,2058,3_S
1779264969.988799,1824,2046,3_S
1779264969.9888902,1931,1876,3_S
1779264969.9889688,1798,2125,3_S
1779264969.989033,1750,2148,3_S
1779264969.989095,2094,2078,3_S
1779264969.989155,2246,1709,3_S
1779264969.993815,2115,1687,3_S
1779264969.994237,2018,1928,3_S
1779264970.00119,2057,2125,3_S
1779264970.0041652,2156,1938,3_S
1779264970.004817,2108,1875,3_S
1779264970.012442,2014,2244,3_S
1779264970.012938,1926,1977,3_S
1779264970.0136771,2010,1749,3_S
1779264970.016983,2043,1761,3_S
1779264970.017358,1723,2007,3_S
1779264970.017452,1849,2176,3_S
1779264970.017537,1888,2108,3_S
1779264970.017622,2049,2016,3_S
1779264970.017693,2257,2084,3_S
1779264970.019038,2154,2055,3_S
1779264970.026023,2151,1861,3_S
1779264970.0275571,2476,1647,3_S
1779264970.029771,2315,1948,3_S
1779264970.032338,2111,2133,3_S
1779264970.0333078,2019,2226,3_S
1779264970.035167,2168,2024,3_S
1779264970.035425,2109,2256,3_S
1779264970.0389602,2041,2163,3_S
1779264970.0392692,1931,1962,3_S
1779264970.039722,1935,1630,3_S
1779264970.043166,2014,1784,3_S
1779264970.0432498,1786,2156,3_S
1779264970.045901,1809,2124,3_S
1779264970.047317,2009,2081,3_S
1779264970.050455,2032,2069,3_S
1779264970.059145,2055,2224,3_S
1779264970.062309,1953,2074,3_S
1779264970.0626922,2330,1728,3_S
1779264970.064517,2524,1719,3_S
1779264970.068665,2325,2069,3_S
1779264970.072382,2102,2122,3_S
1779264970.07269,2037,2186,3_S
1779264970.072845,1998,1982,3_S
1779264970.07297,1874,2161,3_S
1779264970.0730398,1766,2200,3_S
1779264970.073149,1940,2049,3_S
1779264970.07322,2330,1812,3_S
1779264970.0819368,2130,1914,3_S
1779264970.08212,2036,2106,3_S
1779264970.084953,1990,2149,3_S
1779264970.087542,1688,2047,3_S
1779264970.089851,1899,2184,3_S
1779264970.094006,2252,2241,3_S
1779264970.0974379,2296,1936,3_S
1779264970.097641,2273,1686,3_S
1779264970.09774,2215,2078,3_S
1779264970.097806,1974,2168,3_S
1779264970.0978692,2020,2086,3_S
1779264970.0979352,2213,2056,3_S
1779264970.0993211,2164,2231,3_S
1779264970.1020281,1942,2298,3_S
1779264970.103466,1858,1999,3_S
1779264970.1107368,1982,1802,3_S
1779264970.113013,1886,1704,3_S
1779264970.113454,1761,1885,3_S
1779264970.115254,1912,2040,3_S
1779264970.118518,2241,1972,3_S
1779264970.1224399,2202,2072,3_S
1779264970.1229582,2136,2237,3_S
1779264970.1235042,2146,2119,3_S
1779264970.124269,2207,1896,3_S
1779264970.127417,2164,1645,3_S
1779264970.1275678,1902,2035,3_S
1779264970.127705,1837,2151,3_S
1779264970.129086,2259,2298,3_S
1779264970.136389,2321,2016,3_S
1779264970.139601,1977,2240,3_S
1779264970.142145,1693,2277,3_S
1779264970.1445801,1760,2059,3_S
1779264970.1450639,2105,1748,3_S
1779264970.148986,2448,1903,3_S
1779264970.149479,2248,2065,3_S
1779264970.1522748,1862,2267,3_S
1779264970.153334,1662,1967,3_S
1779264970.153415,2102,2108,3_S
1779264970.153486,2283,2287,3_S
1779264970.1536279,2236,2122,3_S
1779264970.155072,2197,1864,3_S
1779264970.1580648,2111,1842,3_S
1779264970.159657,2125,2136,3_S
1779264970.1662972,2066,2265,3_S
1779264970.169239,1871,2187,3_S
1779264970.172701,1843,1996,3_S
1779264970.174763,2072,2283,3_S
1779264970.178526,2187,2212,3_S
1779264970.179436,1963,1798,3_S
1779264970.179904,2134,1866,3_S
1779264970.180646,2060,2216,3_S
1779264970.184597,2026,2186,3_S
1779264970.184729,1908,2203,3_S
1779264970.184833,1855,2161,3_S
1779264970.18496,1890,2325,3_S
1779264970.185032,1808,2298,3_S
1779264970.196736,1339,2005,3_S
1779264970.199153,1959,1609,3_S
1779264970.20503,2651,2049,3_S
1779264970.205898,2579,2179,3_S
1779264970.206538,2463,2046,3_S
1779264970.209781,2211,1964,3_S
1779264970.210154,2188,2244,3_S
1779264970.210295,2138,2406,3_S
1779264970.210428,2128,2218,3_S
1779264970.2105029,2111,1818,3_S
1779264970.21061,2042,1937,3_S
1779264970.2106822,1917,2013,3_S
1779264970.2120361,1820,2409,3_S
1779264970.2134771,1721,2164,3_S
1779264970.214964,1743,2080,3_S
1779264970.2233868,2105,2310,3_S
1779264970.2262158,2459,2165,3_S
1779264970.228499,2449,1952,3_S
1779264970.229407,2264,1769,3_S
1779264970.2347252,2035,2048,3_S
1779264970.235456,1832,2197,3_S
1779264970.235924,2014,2335,3_S
1779264970.236298,2236,2099,3_S
1779264970.23666,2097,2284,3_S
1779264970.239997,1930,2438,3_S
1779264970.240163,2008,2078,3_S
1779264970.2403169,2017,1771,3_S
1779264970.2417128,1985,1956,3_S
1779264970.249099,1961,2199,3_S
1779264970.2518752,2055,2302,3_S
1779264970.252197,2139,2126,3_S
1779264970.254449,2135,2203,3_S
1779264970.2604039,1899,2349,3_S
1779264970.261274,1839,2219,3_S
1779264970.261981,1787,1899,3_S
1779264970.265169,1884,1877,3_S
1779264970.265259,2018,2011,3_S
1779264970.265333,2133,2272,3_S
1779264970.265406,2205,2350,3_S
1779264970.2654731,2217,2221,3_S
1779264970.2669282,2118,2331,3_S
1779264970.26956,1963,2241,3_S
1779264970.270928,2175,1963,3_S
1779264970.2769961,2374,1826,3_S
1779264970.2789052,2311,2048,3_S
1779264970.281012,2082,2307,3_S
1779264970.284058,1905,2285,3_S
1779264970.285952,1879,2096,3_S
1779264970.2864199,1713,2259,3_S
1779264970.290391,1422,2366,3_S
1779264970.2909708,1960,2061,3_S
1779264970.291309,2506,1820,3_S
1779264970.29756,2210,1988,3_S
1779264970.2978728,2207,2201,3_S
1779264970.298387,2201,2279,3_S
1779264970.298885,2057,2165,3_S
1779264970.3059552,2221,2174,3_S
1779264970.31739,2128,2350,3_S
1779264970.317863,2130,2170,3_S
1779264970.3187578,2249,1871,3_S
1779264970.321565,2151,1781,3_S
1779264970.322697,1805,2131,3_S
1779264970.3228621,1812,2252,3_S
1779264970.322987,1995,2217,3_S
1779264970.3230562,2121,2148,3_S
1779264970.323128,1932,2362,3_S
1779264970.323189,1682,2264,3_S
1779264970.3232498,2075,1974,3_S
1779264970.323311,2325,1835,3_S
1779264970.325959,2237,2253,3_S
1779264970.32732,2140,2364,3_S
1779264970.335618,2239,2449,3_S
1779264970.338397,2329,2281,3_S
1779264970.3387752,2283,2465,3_S
1779264970.341105,2156,2456,3_S
1779264970.3436968,2091,2150,3_S
1779264970.34819,2032,1846,3_S
1779264970.351572,2067,2067,3_S
1779264970.351719,1984,2340,3_S
1779264970.3518112,1896,2382,3_S
1779264970.3518999,1874,2129,3_S
1779264970.352004,1874,2359,3_S
1779264970.352094,1933,2438,3_S
1779264970.353452,2076,2241,3_S
1779264970.360173,2240,1963,3_S
1779264970.363402,2173,2040,3_S
1779264970.36608,2063,2295,3_S
1779264970.368705,1969,2386,3_S
1779264970.372711,1983,2334,3_S
1779264970.3735292,1968,2287,3_S
1779264970.376218,1980,2496,3_S
1779264970.377221,1968,2371,3_S
1779264970.3773692,2018,2057,3_S
1779264970.377507,2005,1943,3_S
1779264970.3776262,1879,2208,3_S
1779264970.377692,1847,2358,3_S
1779264970.379039,1664,2336,3_S
1779264970.3816671,2002,2125,3_S
1779264970.383059,2356,2282,3_S
1779264970.389724,2201,2313,3_S
1779264970.392664,2223,2107,3_S
1779264970.39328,2334,1819,3_S
1779264970.393585,2343,1998,3_S
1779264970.397779,2251,2201,3_S
1779264970.40166,2109,2298,3_S
1779264970.402396,2090,2124,3_S
1779264970.4055731,2039,2210,3_S
1779264970.405684,1907,2278,3_S
1779264970.4057589,1893,2066,3_S
1779264970.405834,2007,1812,3_S
1779264970.4069939,2062,1892,3_S
1779264970.414345,1882,2109,3_S
1779264970.4172428,1978,2392,3_S
1779264970.419958,2129,2221,3_S
1779264970.421876,2099,2131,3_S
1779264970.425835,1845,2261,3_S
1779264970.426531,1918,2193,3_S
1779264970.426969,2045,1926,3_S
1779264970.429505,2103,1868,3_S
1779264970.430488,2146,2145,3_S
1779264970.430586,2201,2195,3_S
1779264970.4308321,2067,2223,3_S
1779264970.4313579,2116,2051,3_S
1779264970.434039,2135,2292,3_S
1779264970.435395,2008,2281,3_S
1779264970.443679,1871,1949,3_S
1779264970.445649,2140,1649,3_S
1779264970.4461231,2282,1876,3_S
1779264970.44636,2113,2111,3_S
1779264970.451191,2068,2142,3_S
1779264970.4553092,2108,2007,3_S
1779264970.4557261,2047,2094,3_S
1779264970.456091,1960,2159,3_S
1779264970.456658,2002,1996,3_S
1779264970.4570901,2164,1760,3_S
1779264970.4595652,2208,1891,3_S
1779264970.460543,2072,2159,3_S
1779264970.461935,1812,2176,3_S
1779264970.4632971,1895,2068,3_S
1779264970.467838,2022,1982,3_S
1779264970.468087,2017,2200,3_S
1779264970.474002,2008,2059,3_S
1779264970.4750059,2140,1747,3_S
1779264970.476806,2204,1677,3_S
1779264970.480834,2136,2002,3_S
1779264970.481589,2026,2103,3_S
1779264970.481938,2026,2076,3_S
1779264970.482451,2019,1959,3_S
1779264970.485763,1984,2127,3_S
1779264970.485858,1932,2079,3_S
1779264970.487202,2016,1830,3_S
1779264970.4898791,2177,1611,3_S
1779264970.491286,2148,1835,3_S
1779264970.501258,2028,2023,3_S
1779264970.501827,2045,2149,3_S
1779264970.509689,2097,2023,3_S
1779264970.51056,2101,2179,3_S
1779264970.511157,1999,2228,3_S
1779264970.514156,2030,2000,3_S
1779264970.5143628,2143,1662,3_S
1779264970.514432,2176,1706,3_S
1779264970.514623,2074,1962,3_S
1779264970.514733,2020,2010,3_S
1779264970.5148969,1919,1911,3_S
1779264970.514975,1964,1931,3_S
1779264970.5225012,2042,2111,3_S
1779264970.525503,2140,2039,3_S
1779264970.526151,2117,1743,3_S
1779264970.527804,2200,1659,3_S
1779264970.5308,2227,1984,3_S
1779264970.534857,2131,2190,3_S
1779264970.535483,2087,2029,3_S
1779264970.536285,2114,1910,3_S
1779264970.53658,2041,2099,3_S
1779264970.539474,1840,2023,3_S
1779264970.540298,1782,1878,3_S
1779264970.54037,1992,1626,3_S
1779264970.541748,2202,1823,3_S
1779264970.542994,2183,2051,3_S
1779264970.5457559,1997,2152,3_S
1779264970.551841,2002,1946,3_S
1779264970.553816,2172,2106,3_S
1779264970.555966,2220,2190,3_S
1779264970.556245,2202,1944,3_S
1779264970.556691,2171,1668,3_S
