timestamp,ch1,ch2,label
1779265364.641404,2036,2187,8
1779265364.6440861,2040,2075,8
1779265364.645469,2087,2040,8
1779265364.6473758,2010,2119,8
1779265364.649769,2006,2095,8
1779265364.652226,2082,2119,8
1779265364.653347,2169,2081,8
1779265364.655943,2122,2109,8
1779265364.657446,2050,2137,8
1779265364.658786,2033,2108,8
1779265364.660196,2075,2069,8
1779265364.66276,2053,2153,8
1779265364.664329,1981,2189,8
1779265364.671631,2039,2139,8
1779265364.672607,2157,2061,8
1779265364.674603,2167,2081,8
1779265364.676206,2072,2067,8
1779265364.677151,2021,2075,8
1779265364.679082,2057,2030,8
1779265364.6830962,2061,2150,8
1779265364.683182,1990,2175,8
1779265364.6833029,2017,2153,8
1779265364.684627,2111,2043,8
1779265364.687339,2171,2069,8
1779265364.688464,2099,2134,8
1779265364.6911428,2034,2147,8
1779265364.6926,2028,2119,8
1779265364.702194,2074,2157,8
1779265364.702836,2017,2166,8
1779265364.703841,2004,2106,8
1779265364.7066472,2072,2034,8
1779265364.70705,2178,2050,8
1779265364.708965,2138,2099,8
1779265364.709609,2047,2142,8
1779265364.709729,2008,2157,8
1779265364.711037,2054,2098,8
1779265364.7123442,2053,2081,8
1779265364.717867,2007,2101,8
1779265364.718814,2033,2107,8
1779265364.7210839,2145,2071,8
1779265364.722781,2145,2063,8
1779265364.723648,2072,2077,8
1779265364.726414,2018,2099,8
1779265364.726793,2056,2049,8
1779265364.729043,2067,2088,8
1779265364.730494,2001,2176,8
1779265364.7331378,2015,2125,8
1779265364.734567,2116,2012,8
1779265364.737201,2182,2000,8
1779265364.738436,2105,2083,8
1779265364.743716,2038,2141,8
1779265364.744797,2024,2103,8
1779265364.745624,2064,2099,8
1779265364.748814,2003,2148,8
1779265364.7502022,1982,2126,8
1779265364.752815,2055,2055,8
1779265364.753348,2145,2082,8
1779265364.755572,2126,2132,8
1779265364.7568798,2051,2084,8
1779265364.758184,2011,2119,8
1779265364.766728,2055,2146,8
1779265364.7686882,2034,2162,8
1779265364.769245,1970,2167,8
1779265364.771071,2009,2135,8
1779265364.7723432,2134,2066,8
1779265364.7726982,2170,2073,8
1779265364.772853,2076,2086,8
1779265364.7750452,2003,2131,8
1779265364.776587,2041,2051,8
1779265364.7791822,2058,2066,8
1779265364.780499,1994,2106,8
1779265364.7830882,2007,2099,8
1779265364.784395,2115,2086,8
1779265364.7895,2176,2066,8
1779265364.7904232,2124,2130,8
1779265364.791254,2040,2159,8
1779265364.7949162,2033,2186,8
1779265364.795435,2066,2156,8
1779265364.801099,2002,2120,8
1779265364.801292,1986,2097,8
1779265364.801394,2060,2074,8
1779265364.802701,2162,2057,8
1779265364.804087,2130,2102,8
1779265364.8065128,2028,2107,8
1779265364.8089862,2030,2072,8
1779265364.810297,2055,2103,8
1779265364.81684,2034,2168,8
1779265364.818431,1986,2128,8
1779265364.820547,2034,2067,8
1779265364.821017,2149,2054,8
1779265364.822763,2176,2084,8
1779265364.824086,2102,2145,8
1779265364.824281,2032,2128,8
1779265364.8269398,2061,2012,8
1779265364.828338,2076,2067,8
1779265364.8311832,2016,2148,8
1779265364.832818,2029,2117,8
1779265364.834063,2108,2059,8
1779265364.836569,2180,2028,8
1779265364.841266,2132,2079,8
1779265364.8418481,2038,2091,8
1779265364.8446379,2030,2056,8
1779265364.846626,2073,2061,8
1779265364.852522,2032,2165,8
1779265364.852573,2004,2100,8
1779265364.8526132,2066,2036,8
1779265364.8527942,2174,2007,8
1779265364.85419,2160,2087,8
1779265364.856571,2066,2144,8
1779265364.859148,2021,2161,8
1779265364.8604858,2085,2079,8
1779265364.866404,2067,2141,8
1779265364.8698292,2009,2240,8
1779265364.877483,2047,2076,8
1779265364.878091,2165,2040,8
1779265364.878272,2193,1987,8
1779265364.8783722,2094,2067,8
1779265364.878489,2037,2066,8
1779265364.8785841,2051,2019,8
1779265364.8786812,2083,2002,8
1779265364.88018,2017,2129,8
1779265364.882808,2029,2123,8
1779265364.884131,2128,2026,8
1779265364.886584,2209,2023,8
1779265364.894908,2123,2072,8
1779265364.896618,2036,2052,8
1779265364.896802,2032,2079,8
1779265364.900467,2090,2058,8
1779265364.9037519,2028,2121,8
1779265364.904021,1995,2130,8
1779265364.904285,2079,2133,8
1779265364.906658,2189,2072,8
1779265364.906919,2153,2087,8
1779265364.907022,2068,2143,8
1779265364.9083369,2029,2119,8
1779265364.910914,2072,2155,8
1779265364.9160872,2065,2140,8
1779265364.916972,2023,2109,8
1779265364.9185338,2032,2052,8
1779265364.919879,2159,2018,8
1779265364.920413,2192,2026,8
1779265364.927107,2087,2073,8
1779265364.927157,2035,2092,8
1779265364.9272,2059,2084,8
1779265364.928629,2087,2077,8
1779265364.931027,2012,2147,8
1779265364.93534,2001,2092,8
1779265364.935454,2114,2072,8
1779265364.937003,2215,2072,8
1779265364.944458,2137,2092,8
1779265364.9455118,2047,2159,8
1779265364.949022,2037,2083,8
1779265364.950335,2101,2004,8
1779265364.951044,2039,2098,8
1779265364.952728,2007,2068,8
1779265364.954493,2072,2047,8
1779265364.954698,2177,2006,8
1779265364.954943,2156,2076,8
1779265364.9577758,2066,2086,8
1779265364.959092,2014,2098,8
1779265364.9605088,2069,2083,8
1779265364.9678452,2064,2139,8
1779265364.968899,2012,2140,8
1779265364.971125,2055,2123,8
1779265364.971481,2161,2040,8
1779265364.97357,2206,2002,8
1779265364.974647,2096,2083,8
1779265364.9780428,2039,2133,8
1779265364.978582,2062,2126,8
1779265364.9788392,2094,2122,8
1779265364.981477,2031,2178,8
1779265364.982794,2046,2123,8
1779265364.9851189,2131,2062,8
1779265364.986432,2198,2019,8
1779265364.989088,2125,2100,8
1779265364.990397,2052,2023,8
1779265364.9971368,2057,2036,8
1779265364.999755,2114,2069,8
1779265365.001884,2070,2125,8
1779265365.0028648,2027,2116,8
1779265365.0042481,2106,2044,8
1779265365.005811,2196,2058,8
1779265365.005973,2188,2085,8
1779265365.006367,2095,2079,8
1779265365.008553,2065,2100,8
1779265365.0111208,2102,2091,8
1779265365.0124328,2102,2105,8
1779265365.018079,2025,2094,8
1779265365.018589,2061,2037,8
1779265365.018681,2184,2009,8
1779265365.020787,2205,2097,8
1779265365.022571,2131,2145,8
1779265365.025467,2063,2115,8
1779265365.027282,2061,2064,8
1779265365.029802,2083,2146,8
1779265365.031064,2025,2154,8
1779265365.0325508,2014,2072,8
1779265365.034101,2127,1998,8
1779265365.0366888,2201,2021,8
1779265365.0380642,2141,2053,8
1779265365.046206,2064,2089,8
1779265365.046323,2049,2096,8
1779265365.05006,2098,2107,8
1779265365.051164,2039,2160,8
1779265365.054317,2021,2198,8
1779265365.054477,2087,2067,8
1779265365.054753,2198,1961,8
1779265365.054968,2162,2062,8
1779265365.057258,2081,2091,8
1779265365.058615,2033,2116,8
1779265365.061184,2085,2018,8
1779265365.068318,2090,2060,8
1779265365.0704792,2030,2107,8
1779265365.072623,2061,2090,8
1779265365.073195,2165,2026,8
1779265365.07433,2204,2048,8
1779265365.076118,2114,2124,8
1779265365.077822,2040,2058,8
1779265365.077908,2057,2031,8
1779265365.080554,2067,2114,8
1779265365.080683,2021,2149,8
1779265365.082458,2020,2095,8
1779265365.084515,2115,2039,8
1779265365.0859342,2201,2014,8
1779265365.088436,2129,2086,8
1779265365.095914,2046,2132,8
1779265365.09693,2044,2093,8
1779265365.099275,2093,2139,8
1779265365.10183,2047,2146,8
1779265365.102517,2004,2115,8
1779265365.1045802,2076,2080,8
1779265365.104888,2192,1961,8
1779265365.107035,2174,2050,8
1779265365.1072829,2092,2029,8
1779265365.110102,2039,2089,8
1779265365.110156,2079,2096,8
1779265365.112731,2080,2087,8
1779265365.114184,2014,2098,8
1779265365.120597,2040,2023,8
1779265365.122821,2144,2057,8
1779265365.1274822,2208,2113,8
1779265365.129693,2118,2118,8
1779265365.1299121,2038,2074,8
1779265365.1305542,2050,2093,8
1779265365.133631,2097,2075,8
1779265365.133833,2017,2150,8
1779265365.134028,2018,2127,8
1779265365.134082,2121,2119,8
1779265365.1366668,2180,2088,8
1779265365.13798,2126,2088,8
1779265365.140565,2048,2092,8
1779265365.141957,2028,2131,8
1779265365.149441,2098,2059,8
1779265365.150371,2051,2148,8
1779265365.15269,2014,2146,8
1779265365.154803,2086,2056,8
1779265365.155875,2172,1990,8
1779265365.1579661,2155,2129,8
1779265365.160152,2061,2064,8
1779265365.1627688,2018,2092,8
1779265365.163481,2052,2025,8
1779265365.163588,2057,2128,8
1779265365.1650739,1973,2163,8
1779265365.166605,2041,2038,8
1779265365.1722949,2134,2029,8
1779265365.1736279,2167,2076,8
1779265365.175723,2094,2094,8
1779265365.178192,2048,2108,8
1779265365.1788402,2044,2120,8
1779265365.183085,2084,2112,8
1779265365.183409,2010,2099,8
1779265365.183726,2002,2114,8
1779265365.186273,2109,2064,8
1779265365.186499,2186,2033,8
1779265365.1879182,2130,2088,8
1779265365.19051,2043,2120,8
1779265365.192679,2031,2086,8
1779265365.194033,2081,2136,8
1779265365.214422,2045,2133,8
1779265365.214637,2024,2124,8
1779265365.214762,2072,2102,8
1779265365.214842,2191,1984,8
1779265365.21492,2167,1982,8
1779265365.215028,2064,2140,8
1779265365.215195,2001,2120,8
1779265365.215364,2065,2019,8
1779265365.215467,2057,2071,8
1779265365.215565,1994,2103,8
1779265365.216877,2023,2087,8
1779265365.218236,2131,1992,8
1779265365.2241411,2171,2018,8
1779265365.225589,2080,2084,8
1779265365.227124,2021,2109,8
1779265365.227548,2037,2073,8
1779265365.229921,2070,2103,8
1779265365.2309198,1992,2185,8
1779265365.234893,2006,2195,8
1779265365.2351758,2077,2073,8
1779265365.23793,2165,2002,8
1779265365.2379909,2113,2140,8
1779265365.240591,2039,2175,8
1779265365.24191,2018,2064,8
1779265365.2444859,2078,2074,8
1779265365.2470741,2035,2131,8
1779265365.24928,1977,2067,8
1779265365.2579908,2044,2075,8
1779265365.259926,2141,2006,8
1779265365.2609642,2147,2055,8
1779265365.2629251,2040,2153,8
1779265365.265506,1981,2152,8
1779265365.268455,2048,2098,8
1779265365.2687051,2047,2147,8
1779265365.268832,1970,2150,8
1779265365.268922,2011,2063,8
1779265365.268991,2120,1976,8
1779265365.270197,2167,2037,8
1779265365.272769,2099,2116,8
1779265365.278485,2031,2140,8
1779265365.278646,2037,2052,8
1779265365.28003,2062,2028,8
1779265365.281826,1989,2106,8
1779265365.2820811,1985,2187,8
1779265365.2853749,2074,2075,8
1779265365.289168,2167,2046,8
1779265365.289472,2106,2105,8
1779265365.29173,2045,2033,8
1779265365.293546,1992,2079,8
1779265365.294859,2066,2064,8
1779265365.296167,2032,2016,8
1779265365.299333,2000,2102,8
1779265365.3007889,2020,2048,8
1779265365.302191,2157,2004,8
1779265365.3160472,2163,2037,8
1779265365.321823,2086,2111,8
1779265365.3222542,1967,2121,8
1779265365.322339,2011,2104,8
1779265365.322411,2030,2089,8
1779265365.322481,1978,2094,8
1779265365.322552,2009,2014,8
1779265365.3226209,2160,1914,8
1779265365.322693,2136,2011,8
1779265365.322763,2076,2011,8
1779265365.32411,2026,1988,8
1779265365.326901,2046,1931,8
1779265365.339856,2079,2060,8
1779265365.343028,2002,2180,8
1779265365.345666,1999,2021,8
1779265365.34576,2061,2156,8
1779265365.345918,2185,2019,8
1779265365.346058,2178,2053,8
1779265365.3462029,2082,2140,8
1779265365.346427,2016,2116,8
1779265365.346575,2057,2113,8
1779265365.346688,2087,1991,8
1779265365.348022,1993,1884,8
1779265365.350728,2060,1873,8
1779265365.352114,2171,2333,8
1779265365.354704,2187,2115,8
1779265365.356019,2035,2046,8
1779265365.362583,1989,2076,8
1779265365.364645,2062,2116,8
1779265365.3671958,2050,2158,8
1779265365.368329,2014,2109,8
1779265365.370301,2059,2147,8
1779265365.372917,2134,1891,8
1779265365.37351,2175,2006,8
1779265365.3739572,2082,1995,8
1779265365.374063,2034,1854,8
1779265365.376443,2046,1911,8
1779265365.379128,2058,2165,8
1779265365.380516,2032,2253,8
1779265365.386445,2010,2080,8
1779265365.387468,2093,1983,8
1779265365.389524,2207,1991,8
1779265365.3898911,2129,2068,8
1779265365.3922079,2046,2080,8
1779265365.392808,2031,2039,8
1779265365.397345,2044,2068,8
1779265365.400609,2024,2026,8
1779265365.401527,2018,2055,8
1779265365.402087,2083,1979,8
1779265365.402198,2168,1873,8
1779265365.404848,2131,2123,8
1779265365.406166,2067,2110,8
1779265365.408749,2013,2106,8
1779265365.410059,2114,2089,8
1779265365.415922,2082,2104,8
1779265365.4177332,1964,2149,8
1779265365.4198,1998,2115,8
1779265365.421162,2095,2074,8
1779265365.422134,2181,2061,8
1779265365.423331,2097,1858,8
1779265365.42493,2016,2164,8
1779265365.427835,2014,2113,8
1779265365.4282281,2092,2204,8
1779265365.430808,2007,2150,8
1779265365.432245,2016,2062,8
1779265365.435072,2020,2068,8
1779265365.438609,2167,2165,8
1779265365.440224,2145,2302,8
1779265365.4403782,2076,2162,8
1779265365.4438012,1975,2065,8
1779265365.449077,2115,2075,8
1779265365.449518,2059,2131,8
1779265365.4496799,1967,2178,8
1779265365.4522948,2044,2039,8
1779265365.45244,2190,1972,8
1779265365.455103,2115,1907,8
1779265365.456411,2060,2349,8
1779265365.459021,2022,2118,8
1779265365.46034,2116,2005,8
1779265365.462909,2067,2280,8
1779265365.4688241,1899,2258,8
1779265365.469737,1944,2113,8
1779265365.47022,2057,2200,8
1779265365.471952,2256,2203,8
1779265365.472067,2212,2131,8
1779265365.481717,2075,2097,8
1779265365.481853,1957,2197,8
1779265365.481983,2055,2239,8
1779265365.482095,2081,2572,8
1779265365.48223,2064,2503,8
1779265365.484855,2045,2457,8
1779265365.4913669,1959,2625,8
1779265365.492874,1888,2761,8
1779265365.494882,1894,3101,8
1779265365.495209,2036,3248,8
1779265365.497344,2118,3300,8
1779265365.500244,2141,3458,8
1779265365.503219,2032,3613,8
1779265365.503378,2025,3619,8
1779265365.503798,2288,3662,8
1779265365.50621,2249,3704,8
1779265365.50655,2116,3744,8
1779265365.507979,2077,3882,8
1779265365.510623,2039,3984,8
1779265365.51198,1925,3955,8
1779265365.514594,1854,3863,8
1779265365.5159721,1950,3881,8
1779265365.5226932,2106,3983,8
1779265365.524103,2068,3928,8
1779265365.526561,2070,3982,8
1779265365.5274591,2034,4015,8
1779265365.529619,1962,4064,8
1779265365.531373,1696,4020,8
1779265365.5333388,1834,3914,8
1779265365.53656,2001,3902,8
1779265365.536968,1718,3968,8
1779265365.537322,2159,4077,8
1779265365.5404449,2150,4095,8
1779265365.5406342,2273,4056,8
1779265365.541982,1715,4095,8
1779265365.5446038,1650,4086,8
1779265365.553827,2061,4002,8
1779265365.554195,2152,3964,8
1779265365.556044,2406,3989,8
1779265365.556849,2187,4047,8
1779265365.558281,2093,4095,8
1779265365.563087,2227,4095,8
1779265365.5638342,2255,4095,8
1779265365.566818,2286,4095,8
1779265365.566964,1829,4058,8
1779265365.5670998,1617,4025,8
1779265365.567157,1382,4021,8
1779265365.568547,1436,4046,8
1779265365.569901,2052,4076,8
1779265365.572458,2523,4095,8
1779265365.573813,2476,4095,8
1779265365.5762439,2253,4095,8
1779265365.5831418,2236,4084,8
1779265365.5869792,2105,4058,8
1779265365.589737,2190,4049,8
1779265365.59089,2307,4053,8
1779265365.59274,1918,4065,8
1779265365.593083,1524,4006,8
1779265365.59665,1831,4087,8
1779265365.597387,2140,4095,8
1779265365.600542,2286,4081,8
1779265365.600713,1813,4059,8
1779265365.6008809,1865,4055,8
1779265365.601065,1667,4060,8
1779265365.602556,2196,4073,8
1779265365.603925,2076,4084,8
1779265365.613493,1304,3997,8
1779265365.6223612,1320,3701,8
1779265365.6229172,906,4095,8
1779265365.6238132,1844,4064,8
1779265365.6266649,2654,4017,8
1779265365.6268349,3388,4006,8
1779265365.626915,3328,4030,8
1779265365.626987,2963,4076,8
1779265365.62706,2545,4095,8
1779265365.627129,2258,4095,8
1779265365.627268,2132,4095,8
1779265365.628623,2071,4088,8
1779265365.629976,1755,4056,8
1779265365.633067,1476,4039,8
1779265365.634442,1394,4045,8
1779265365.63587,1432,4061,8
1779265365.644696,1692,4018,8
1779265365.652021,2166,3552,8
1779265365.65616,2165,3979,8
1779265365.6568341,2014,4095,8
1779265365.6596532,1619,4012,8
1779265365.659786,1754,3967,8
1779265365.659914,2189,3980,8
1779265365.660057,2559,4036,8
1779265365.660171,2298,3765,8
1779265365.6602979,2204,3340,8
1779265365.660429,2013,3656,8
1779265365.660558,1817,3824,8
1779265365.661941,1929,3980,8
1779265365.669984,2003,3837,8
1779265365.670645,1085,3831,8
1779265365.673046,1492,3940,8
1779265365.676505,2008,3391,8
1779265365.678931,2362,2874,8
1779265365.6833322,2077,2705,8
1779265365.68375,2152,2970,8
1779265365.686624,1662,3378,8
1779265365.6867352,2216,3639,8
1779265365.686862,2734,3459,8
1779265365.687021,2520,3481,8
1779265365.687097,2066,1686,8
1779265365.6884868,1846,2362,8
1779265365.6899068,1751,2003,8
1779265365.692539,1726,1840,8
1779265365.6940181,1672,2139,8
1779265365.696693,1910,2846,8
1779265365.703746,2160,2984,8
1779265365.709261,2126,2343,8
1779265365.711186,2105,1499,8
1779265365.716554,1993,979,8
1779265365.71959,1829,1316,8
1779265365.720635,1792,1345,8
1779265365.720923,1927,1241,8
1779265365.721008,1960,1185,8
1779265365.7212029,1844,1952,8
1779265365.7212741,1845,1965,8
1779265365.721351,1946,996,8
1779265365.721519,2043,681,8
1779265365.722871,2180,1371,8
1779265365.72426,2277,1468,8
1779265365.730763,2134,1372,8
1779265365.734911,2187,1167,8
1779265365.7365649,2096,1760,8
1779265365.737175,1835,2023,8
1779265365.7421162,1714,1749,8
1779265365.7424,1713,832,8
1779265365.742738,1929,1283,8
1779265365.7429912,2033,1702,8
1779265365.745664,1865,1672,8
1779265365.745749,2001,1582,8
1779265365.7458298,2139,2063,8
1779265365.74851,1989,2294,8
1779265365.74985,1729,2022,8
1779265365.752425,1982,1346,8
1779265365.7538078,2113,1374,8
1779265365.756572,2220,2012,8
1779265365.769176,2111,2157,8
1779265365.772712,1981,1776,8
1779265365.773397,1932,1890,8
1779265365.776365,1868,2199,8
1779265365.776555,2002,1939,8
1779265365.7766778,2238,1580,8
1779265365.776824,2137,1615,8
1779265365.776951,1959,2060,8
1779265365.7770932,1798,2340,8
1779265365.777217,1742,2160,8
1779265365.778454,1721,1971,8
1779265365.779777,2066,2524,8
1779265365.792062,2290,2176,8
1779265365.797417,2264,1772,8
1779265365.798238,2224,1696,8
1779265365.801229,2129,2045,8
1779265365.801325,2072,2261,8
1779265365.801399,2078,2086,8
1779265365.801468,2120,1938,8
1779265365.8015392,1847,2105,8
1779265365.8016331,1817,2343,8
1779265365.801792,2008,2084,8
1779265365.801867,2085,1516,8
1779265365.8044748,2059,1600,8
1779265365.805797,2050,2193,8
1779265365.808397,1840,2394,8
1779265365.8097138,1802,2039,8
1779265365.8126981,2025,2148,8
1779265365.817993,2179,2260,8
1779265365.818623,1904,2135,8
1779265365.8192582,1999,1863,8
1779265365.8213818,2230,1987,8
1779265365.823741,2199,2141,8
1779265365.8246882,2087,2384,8
1779265365.832853,1905,2365,8
1779265365.83366,2033,2085,8
1779265365.833759,1914,2426,8
1779265365.8339012,1863,2280,8
1779265365.833981,2068,1887,8
1779265365.836591,2304,1491,8
1779265365.8379068,1985,1652,8
1779265365.843263,1907,2223,8
1779265365.844573,2024,2370,8
1779265365.846237,2190,1894,8
1779265365.846418,2152,2229,8
1779265365.849963,2035,2399,8
1779265365.855527,1994,1919,8
1779265365.855742,2087,1690,8
1779265365.85601,2061,1776,8
1779265365.856322,1958,2029,8
1779265365.8590221,1900,2165,8
1779265365.860341,2082,2129,8
1779265365.861683,1821,2373,8
1779265365.8642838,1833,2327,8
1779265365.8659918,2096,2046,8
1779265365.868612,2184,1624,8
1779265365.87487,2010,1703,8
1779265365.876439,1994,2163,8
1779265365.878452,1883,2336,8
1779265365.878881,1978,2360,8
1779265365.8813288,2092,2176,8
1779265365.88411,2127,2440,8
1779265365.888243,2071,2272,8
1779265365.888643,2147,1859,8
1779265365.8889558,2085,1629,8
1779265365.88931,1977,1912,8
1779265365.8924391,2119,2368,8
1779265365.8925939,2146,2411,8
1779265365.8940392,2029,2244,8
1779265365.904201,2079,2465,8
1779265365.904522,1876,2423,8
1779265365.9059489,1845,2161,8
1779265365.907475,2060,1871,8
1779265365.9080489,2160,1964,8
1779265365.913459,2038,2396,8
1779265365.91374,2038,2486,8
1779265365.913932,2021,2354,8
1779265365.91696,2116,2615,8
1779265365.9172108,1954,2412,8
1779265365.9172611,1943,2352,8
1779265365.918577,2016,2024,8
1779265365.9198878,2202,1932,8
1779265365.922306,1978,2460,8
1779265365.92367,1848,2554,8
1779265365.926301,2023,2322,8
1779265365.9277031,2017,2123,8
1779265365.934467,1885,2639,8
1779265365.934997,2025,2406,8
1779265365.9352078,2290,2061,8
1779265365.938611,2353,1574,8
1779265365.939211,2149,1915,8
1779265365.946079,2009,2182,8
1779265365.9467578,2043,2275,8
1779265365.949404,2087,1899,8
1779265365.949518,2060,2159,8
1779265365.949594,1891,2348,8
1779265365.949692,1928,1991,8
1779265365.952367,2064,1422,8
1779265365.9537349,2053,1426,8
1779265365.959083,1975,2014,8
1779265365.960141,1955,2130,8
1779265365.962146,2031,1993,8
1779265365.962401,2135,2010,8
1779265365.966936,2010,2206,8
1779265365.971114,1970,2066,8
1779265365.971402,1998,1735,8
1779265365.971734,2061,1539,8
1779265365.9740832,2051,1934,8
1779265365.9743621,2010,1947,8
1779265365.9756858,1971,1992,8
1779265365.978261,2076,1823,8
1779265365.9797492,2040,2155,8
1779265365.982389,2005,2126,8
1779265365.983705,2045,1796,8
1779265365.991482,2185,1432,8
1779265365.9930408,2276,1853,8
1779265365.994696,2161,2175,8
1779265365.995253,1962,2100,8
1779265365.997445,1848,1834,8
1779265366.001911,1892,2045,8
1779265366.002527,1957,2291,8
1779265366.0031161,2014,1797,8
1779265366.0056489,2253,1310,8
1779265366.005698,2295,1618,8
1779265366.0058298,2131,1968,8
1779265366.008426,2127,2187,8
1779265366.009741,2089,1946,8
1779265366.0157561,2086,1889,8
1779265366.016373,2017,2153,8
1779265366.0180101,1984,1915,8
1779265366.0205922,2055,1440,8
1779265366.021164,2123,1398,8
1779265366.026641,2038,1755,8
1779265366.026911,1975,2115,8
1779265366.02712,1967,1960,8
1779265366.0297759,2095,1715,8
1779265366.02988,2029,2078,8
1779265366.032578,1975,2187,8
1779265366.034017,2002,1817,8
1779265366.036622,2044,1366,8
1779265366.038023,2117,1598,8
1779265366.040895,1996,1827,8
1779265366.045789,1987,2141,8
1779265366.04674,2050,2170,8
1779265366.049612,1993,2154,8
1779265366.0497532,1970,2171,8
1779265366.0500538,2083,1926,8
1779265366.052759,2231,1518,8
1779265366.059036,2166,1710,8
1779265366.0596979,2096,2209,8
1779265366.063377,2084,2382,8
1779265366.064251,2074,1994,8
1779265366.065069,2096,1960,8
1779265366.0654202,2061,2358,8
1779265366.066747,2010,2228,8
1779265366.068117,2061,1697,8
1779265366.077675,2163,1509,8
1779265366.0829031,2084,2096,8
1779265366.088004,2024,2207,8
1779265366.090346,2041,2063,8
1779265366.091211,2083,1849,8
1779265366.091302,2018,2214,8
1779265366.091375,1978,2214,8
1779265366.0914419,2025,1801,8
1779265366.091542,2138,1513,8
1779265366.091619,2103,1770,8
1779265366.091708,1970,2182,8
1779265366.091837,1939,2265,8
1779265366.0943859,2058,1926,8
1779265366.095757,2019,2211,8
1779265366.098631,1925,2412,8
1779265366.100031,1967,2012,8
1779265366.1086562,2063,1724,8
1779265366.111555,2158,1826,8
1779265366.117416,2080,2207,8
1779265366.122537,1957,2327,8
1779265366.125469,1972,2372,8
1779265366.1258821,2037,2335,8
1779265366.125961,1976,2463,8
1779265366.126063,1948,2346,8
1779265366.126158,2033,2072,8
1779265366.1262279,2117,1961,8
1779265366.126295,2067,2411,8
1779265366.126362,1994,2653,8
1779265366.1264288,2001,2688,8
1779265366.1277509,2023,2490,8
1779265366.130646,1983,2793,8
1779265366.139083,1943,2476,8
1779265366.1410391,2012,2285,8
1779265366.142821,2144,1924,8
1779265366.144593,2117,2116,8
1779265366.147014,2037,2402,8
1779265366.1518111,1984,2513,8
1779265366.15551,2012,2280,8
1779265366.155603,2014,2424,8
1779265366.155672,1966,2509,8
1779265366.1558259,1996,2184,8
1779265366.1558988,2142,1818,8
1779265366.1560252,2141,1746,8
1779265366.1561,2024,2184,8
1779265366.158783,1973,2447,8
1779265366.160182,2027,2273,8
1779265366.16158,2117,2196,8
1779265366.164342,2024,2468,8
1779265366.165699,1990,2348,8
1779265366.1759071,2124,1819,8
1779265366.176509,2210,1596,8
1779265366.179092,2126,1995,8
1779265366.180541,2042,2194,8
1779265366.186851,2024,1979,8
1779265366.187526,2096,1777,8
1779265366.187776,2013,2013,8
1779265366.1882172,1989,1900,8
1779265366.188752,2055,1529,8
1779265366.191062,2158,1201,8
1779265366.191943,2152,1406,8
1779265366.1920168,2061,1785,8
1779265366.1920881,2030,1773,8
1779265366.194782,2096,1636,8
1779265366.1961558,2059,1875,8
1779265366.20307,2014,2170,8
1779265366.205678,2044,1892,8
1779265366.210811,2176,1467,8
1779265366.215957,2228,1488,8
1779265366.216636,2105,1954,8
1779265366.2169468,2009,2068,8
1779265366.2191072,2030,1786,8
1779265366.22012,2052,1758,8
1779265366.2202141,2004,2173,8
1779265366.220354,1996,1927,8
1779265366.220426,2109,1373,8
1779265366.220495,2187,1211,8
1779265366.221877,2137,1741,8
1779265366.224457,2043,1958,8
1779265366.225804,2010,1891,8
1779265366.228443,2021,1579,8
1779265366.2298298,2005,1976,8
1779265366.237458,1977,1929,8
1779265366.240364,2038,1552,8
1779265366.2430122,2177,1198,8
1779265366.244334,2176,1556,8
1779265366.246161,2088,1977,8
1779265366.251353,2023,2012,8
1779265366.251976,2056,1843,8
1779265366.255,2068,2042,8
1779265366.2551029,2014,2295,8
1779265366.2552252,2042,1984,8
1779265366.255359,2121,1610,8
1779265366.255486,2183,1544,8
1779265366.2556002,2099,1936,8
1779265366.258231,2041,2038,8
1779265366.2598069,2058,1923,8
1779265366.2690141,2096,1895,8
1779265366.272345,1998,2299,8
1779265366.2746072,1979,2176,8
1779265366.280003,2110,1800,8
1779265366.282395,2172,1621,8
1779265366.283348,2107,2189,8
1779265366.283448,2021,2442,8
1779265366.2835252,2012,2544,8
1779265366.283602,2078,2312,8
1779265366.2837162,2066,2515,8
1779265366.2838662,2020,2410,8
1779265366.28399,2054,2119,8
1779265366.286464,2159,1779,8
1779265366.2878022,2134,2102,8
1779265366.290488,2050,2415,8
1779265366.291852,2010,2497,8
1779265366.294867,2059,2221,8
1779265366.3014731,2064,2327,8
1779265366.3044732,1995,2545,8
1779265366.305364,2021,2184,8
1779265366.308222,2151,1834,8
1779265366.3096,2185,1763,8
1779265366.316776,2078,2249,8
1779265366.317298,1997,2494,8
1779265366.317703,2029,2292,8
1779265366.318441,2079,2193,8
1779265366.318898,2005,2544,8
1779265366.321978,2011,2412,8
1779265366.322096,2119,2005,8
1779265366.32218,2217,1709,8
1779265366.322253,2138,2115,8
1779265366.323675,2053,2247,8
1779265366.326436,2040,2209,8
1779265366.334235,2059,2049,8
1779265366.337578,2040,2417,8
1779265366.340509,1975,2412,8
1779265366.3407931,2025,2178,8
1779265366.341592,2165,1785,8
1779265366.342419,2157,2084,8
1779265366.3500211,2061,2316,8
1779265366.35086,1995,2370,8
1779265366.3513489,2046,2243,8
1779265366.354065,2043,2309,8
1779265366.354966,2001,2408,8
1779265366.355039,1994,2019,8
1779265366.3552058,2096,1660,8
1779265366.355283,2143,1723,8
1779265366.356638,2065,2133,8
1779265366.357841,2017,2245,8
1779265366.3604841,2045,2058,8
1779265366.3618,2092,2000,8
1779265366.3644469,2004,2376,8
1779265366.365935,1972,2258,8
1779265366.3745668,2086,1772,8
1779265366.377593,2188,1476,8
1779265366.378023,2117,1932,8
1779265366.380645,2038,2253,8
1779265366.3847091,2017,2343,8
1779265366.390304,2075,2177,8
1779265366.39105,2048,2411,8
1779265366.39453,1980,2384,8
1779265366.3955688,2049,2028,8
1779265366.39596,2156,1573,8
1779265366.396058,2139,1762,8
1779265366.396151,2072,2092,8
1779265366.396267,2011,2200,8
1779265366.3963661,2041,1947,8
1779265366.396439,2041,2070,8
1779265366.397835,1988,2389,8
1779265366.400655,2048,1948,8
1779265366.4023712,2125,1633,8
1779265366.409069,2193,1606,8
1779265366.4123461,2081,1950,8
1779265366.4151711,2002,2172,8
1779265366.416793,2009,2058,8
1779265366.4195032,2054,1985,8
1779265366.425584,2017,2334,8
1779265366.426124,1968,2231,8
1779265366.429355,2077,1781,8
1779265366.429884,2183,1550,8
1779265366.4299672,2113,2030,8
1779265366.430159,2046,2269,8
1779265366.4302442,2022,2183,8
1779265366.430322,2067,1915,8
1779265366.4303942,2042,2152,8
1779265366.4317598,2000,2244,8
1779265366.434667,2028,1916,8
1779265366.4360251,2151,1547,8
1779265366.4374368,2172,1785,8
1779265366.440064,2079,2221,8
1779265366.441494,2009,2358,8
1779265366.448719,2045,2113,8
1779265366.4533792,2046,2140,8
1779265366.4537559,1980,2346,8
1779265366.456341,2006,2041,8
1779265366.457991,2120,1608,8
1779265366.466034,2181,1634,8
1779265366.466816,2089,2101,8
1779265366.467363,2023,2198,8
1779265366.467905,2019,2090,8
1779265366.47103,2075,1994,8
1779265366.4714189,2011,2228,8
1779265366.4714959,2000,2161,8
1779265366.4715672,2084,1694,8
1779265366.471671,2178,1419,8
1779265366.471883,2117,1813,8
1779265366.474585,2042,2063,8
1779265366.476118,2002,2058,8
1779265366.486458,2068,1794,8
1779265366.4885828,2028,2001,8
1779265366.489983,2009,2110,8
1779265366.49147,2032,1796,8
1779265366.4917178,2155,1391,8
1779265366.499182,2155,1585,8
1779265366.499819,2069,1946,8
1779265366.503308,2017,2029,8
1779265366.503465,2064,1839,8
1779265366.503545,2061,1845,8
1779265366.503697,1982,2022,8
1779265366.503871,2009,1753,8
1779265366.50395,2128,1352,8
1779265366.504021,2181,1268,8
1779265366.5055401,2096,1701,8
1779265366.508178,2011,1979,8
1779265366.509547,2032,1764,8
1779265366.512198,2094,1570,8
1779265366.513556,2022,1879,8
1779265366.525596,2001,1809,8
1779265366.526179,2096,1536,8
1779265366.529153,2174,1303,8
1779265366.530634,2130,1693,8
1779265366.538551,2047,1949,8
1779265366.539485,2023,1868,8
1779265366.539871,2069,1655,8
1779265366.543064,2022,1916,8
1779265366.543512,1970,1980,8
1779265366.5436502,2041,1699,8
1779265366.543726,2164,1292,8
1779265366.54387,2158,1519,8
1779265366.543947,2065,1867,8
1779265366.544018,2020,2080,8
1779265366.5440881,2061,1916,8
1779265366.5454578,2065,1883,8
1779265366.54792,2008,2047,8
1779265366.556094,2002,1920,8
1779265366.558814,2091,1554,8
1779265366.5618,2176,1502,8
1779265366.563186,2097,1909,8
1779265366.570647,2034,2160,8
1779265366.5715368,2026,2079,8
1779265366.5750778,2061,1832,8
1779265366.575469,2008,2179,8
1779265366.575558,1961,2079,8
1779265366.575649,2073,1727,8
1779265366.5757718,2168,1437,8
1779265366.575905,2100,1865,8
1779265366.576006,2022,2100,8
1779265366.5760908,1993,2073,8
1779265366.577386,2030,1988,8
1779265366.580031,2018,2222,8
1779265366.581402,1965,2403,8
1779265366.584084,2019,2034,8
1779265366.5854342,2141,1584,8
1779265366.5883431,2158,1832,8
1779265366.5958521,2043,2224,8
1779265366.5986261,1998,2277,8
1779265366.60125,2025,2058,8
1779265366.603437,2033,2093,8
1779265366.605948,1973,2312,8
1779265366.6120908,1987,1996,8
1779265366.614787,2096,1552,8
1779265366.615659,2157,1486,8
1779265366.6157398,2079,1869,8
1779265366.6158159,1989,2052,8
1779265366.615894,2022,1854,8
1779265366.6161,2060,1795,8
1779265366.616182,1978,2123,8
1779265366.616352,1982,2018,8
1779265366.617724,2059,1662,8
1779265366.620367,2173,1388,8
1779265366.62676,2119,1789,8
1779265366.628596,2034,2016,8
1779265366.631915,1984,2064,8
1779265366.635596,2032,1860,8
1779265366.638099,2019,2013,8
1779265366.644247,1970,2060,8
1779265366.644935,2016,1756,8
1779265366.6452322,2144,1351,8
1779265366.645632,2154,1548,8
1779265366.64856,2051,1860,8
1779265366.6490052,1994,1980,8
1779265366.649081,2041,1775,8
1779265366.6491818,2059,1783,8
1779265366.649299,2008,2026,8
1779265366.649396,1997,1864,8
1779265366.651948,2081,1554,8
1779265366.653379,2172,1440,8
1779265366.656076,2109,1821,8
1779265366.657502,2031,2020,8
1779265366.659949,2030,1916,8
1779265366.668627,2089,1701,8
1779265366.670063,2028,1993,8
1779265366.672618,1992,1903,8
1779265366.6728718,2070,1508,8
1779265366.676157,2216,1235,8
1779265366.6769059,2120,1723,8
1779265366.679496,2026,1945,8
1779265366.685293,1991,1946,8
1779265366.685583,2039,1861,8
1779265366.685902,2031,1982,8
1779265366.6863801,1970,2091,8
1779265366.6867058,2010,1840,8
1779265366.687335,2149,1503,8
1779265366.689876,2149,1672,8
1779265366.69086,2062,1958,8
1779265366.6923,2019,2045,8
1779265366.693763,2041,1939,8
1779265366.696515,2051,1952,8
1779265366.704133,1987,2180,8
1779265366.707125,2012,2024,8
1779265366.707505,2094,1639,8
1779265366.7107992,2156,1517,8
1779265366.713699,2098,1867,8
1779265366.7193,2001,2028,8
1779265366.7198179,1996,1956,8
1779265366.7201111,2070,1832,8
1779265366.7205498,2003,2123,8
1779265366.720829,1978,2085,8
1779265366.72113,2062,1725,8
1779265366.724222,2178,1459,8
1779265366.72467,2137,1781,8
1779265366.724776,2044,2094,8
1779265366.726221,2021,2074,8
1779265366.727584,2072,1787,8
1779265366.73022,2052,1955,8
1779265366.7315671,1990,2050,8
1779265366.7342,2036,1790,8
1779265366.735669,2159,1418,8
1779265366.744224,2158,1573,8
1779265366.744979,2080,1940,8
1779265366.747752,2003,2087,8
1779265366.750987,2043,1837,8
1779265366.754406,2055,1912,8
1779265366.760384,1997,2117,8
1779265366.7613702,1994,1988,8
1779265366.764169,2100,1598,8
1779265366.764521,2188,1338,8
1779265366.764648,2092,1779,8
1779265366.7647328,2003,2040,8
1779265366.764863,2016,2043,8
1779265366.764936,2056,1872,8
1779265366.765006,1978,2074,8
1779265366.766419,1958,1930,8
1779265366.7677782,2027,1693,8
1779265366.777329,2163,1464,8
1779265366.779995,2128,1750,8
1779265366.780401,2046,1975,8
1779265366.780661,2016,2043,8
1779265366.783544,2062,1832,8
1779265366.784361,2050,2039,8
1779265366.786879,1998,2153,8
1779265366.792574,2036,1932,8
1779265366.793175,2137,1533,8
1779265366.793516,2171,1700,8
1779265366.794036,2071,2028,8
1779265366.7944162,1998,2082,8
1779265366.7948291,2030,1948,8
1779265366.798078,2051,2023,8
1779265366.7982411,2009,2213,8
1779265366.799711,2007,2018,8
1779265366.802379,2086,1653,8
1779265366.803856,2157,1533,8
1779265366.8064299,2086,1862,8
1779265366.8078132,2020,2102,8
1779265366.8105059,2015,2083,8
1779265366.818688,2057,1865,8
1779265366.821151,2007,2058,8
1779265366.8252969,1981,2095,8
1779265366.8328052,2067,1724,8
1779265366.833295,2181,1487,8
1779265366.833961,2156,1815,8
1779265366.836577,2032,2048,8
1779265366.8375602,2006,2114,8
1779265366.8376498,2062,1882,8
1779265366.8377202,2034,2030,8
1779265366.8377888,1982,2131,8
1779265366.837867,2025,1858,8
1779265366.837993,2143,1555,8
1779265366.8380642,2158,1697,8
1779265366.839461,2060,1993,8
1779265366.842164,2010,2050,8
1779265366.850394,2036,1893,8
1779265366.8548071,2045,1889,8
1779265366.858495,2013,2122,8
1779265366.8641431,1999,1953,8
1779265366.8647768,2096,1602,8
1779265366.865261,2187,1491,8
1779265366.8657138,2098,1815,8
1779265366.866221,2038,1958,8
1779265366.869293,2021,1916,8
1779265366.86967,2074,1736,8
1779265366.86977,2012,1976,8
1779265366.8698711,1991,1919,8
1779265366.869955,2057,1652,8
1779265366.870053,2161,1402,8
1779265366.871433,2126,1634,8
1779265366.8741288,2031,1951,8
1779265366.875395,2009,2000,8
1779265366.878125,2049,1822,8
1779265366.879492,2036,1962,8
1779265366.882258,1960,2064,8
1779265366.888952,2028,1801,8
1779265366.892767,2137,1450,8
1779265366.8932621,2168,1540,8
1779265366.896505,2089,1900,8
1779265366.904844,2013,2070,8
1779265366.905463,2021,1908,8
1779265366.906136,2064,1871,8
1779265366.908719,1999,2098,8
1779265366.9098518,2000,1894,8
1779265366.909942,2112,1572,8
1779265366.910014,2179,1476,8
1779265366.910107,2086,1851,8
1779265366.910187,2029,1960,8
1779265366.910262,2016,1972,8
1779265366.9114182,2061,1799,8
1779265366.914065,2018,2041,8
1779265366.92197,1978,2077,8
1779265366.925194,2072,1800,8
1779265366.9285161,2168,1485,8
1779265366.936401,2163,1715,8
1779265366.937139,2060,1966,8
1779265366.940445,1999,2014,8
1779265366.9405508,2034,1831,8
1779265366.9406312,2044,1915,8
1779265366.940725,1970,2094,8
1779265366.940831,2020,1840,8
1779265366.941055,2150,1492,8
1779265366.941213,2169,1608,8
1779265366.9413278,2071,1944,8
1779265366.941401,2013,2113,8
1779265366.94418,2047,1998,8
1779265366.945573,2066,1995,8
1779265366.9486248,2014,2157,8
1779265366.950145,2006,1979,8
1779265366.951534,2095,1633,8
1779265366.9650939,2183,1521,8
1779265366.966939,2090,1834,8
1779265366.975158,2018,2003,8
1779265366.9757922,2024,2005,8
1779265366.976476,2081,1852,8
1779265366.979699,2028,2018,8
1779265366.979795,2000,2003,8
1779265366.979871,2034,1652,8
1779265366.980012,2148,1496,8
1779265366.980242,2129,1746,8
1779265366.980362,2045,1914,8
1779265366.9805272,2008,1958,8
1779265366.980611,2054,1850,8
1779265366.9807491,2054,1969,8
1779265366.982066,2009,2075,8
1779265366.983459,2027,1807,8
1779265366.9914591,2148,1541,8
1779265366.9950972,2191,1575,8
1779265366.998614,2074,1984,8
1779265367.006509,2017,2036,8
1779265367.010096,2036,1873,8
1779265367.0102,2052,1912,8
1779265367.010272,1987,2113,8
1779265367.0104241,1975,2032,8
1779265367.010505,2094,1704,8
1779265367.0105789,2195,1621,8
1779265367.0107079,2118,1933,8
1779265367.0107899,2042,2050,8
1779265367.010855,2013,2032,8
1779265367.012258,2066,1877,8
1779265367.013667,2025,2096,8
1779265367.0162618,1992,2109,8
1779265367.017736,2041,1817,8
1779265367.019238,2149,1553,8
1779265367.021914,2119,1792,8
1779265367.02986,2048,2068,8
1779265367.0355709,1989,2150,8
1779265367.036473,2052,1915,8
1779265367.04401,2027,2032,8
1779265367.04462,1995,2160,8
1779265367.044945,2017,1926,8
1779265367.047529,2119,1594,8
1779265367.048652,2169,1609,8
1779265367.048756,2088,1895,8
1779265367.04884,2013,2078,8
1779265367.0488892,2022,1953,8
1779265367.049186,2044,1925,8
1779265367.04929,2012,2099,8
1779265367.049379,2004,1996,8
1779265367.05202,2093,1739,8
1779265367.053379,2157,1630,8
1779265367.060997,2094,1929,8
1779265367.063383,2037,2024,8
1779265367.064079,2037,2025,8
1779265367.068407,2086,1892,8
1779265367.075558,2035,2076,8
1779265367.076106,2003,2048,8
1779265367.076774,2056,1803,8
1779265367.077186,2183,1511,8
1779265367.077554,2142,1762,8
1779265367.080777,2046,2008,8
1779265367.0808582,2013,2088,8
1779265367.080927,2059,1919,8
1779265367.081194,2068,1990,8
1779265367.081276,1984,2130,8
1779265367.083932,2014,1951,8
1779265367.0852659,2161,1645,8
1779265367.087868,2190,1682,8
1779265367.0892181,2091,1961,8
1779265367.0918322,2043,2113,8
1779265367.0934389,2052,2050,8
1779265367.1035872,2083,2011,8
1779265367.104089,2013,2220,8
1779265367.107604,2033,2059,8
1779265367.115197,2091,1773,8
1779265367.116008,2194,1623,8
1779265367.116433,2154,1969,8
1779265367.119667,2047,2140,8
1779265367.120013,2022,2087,8
1779265367.1201391,2074,1917,8
1779265367.1202428,2044,2144,8
1779265367.1203258,2007,2192,8
1779265367.120438,2061,1890,8
1779265367.120564,2165,1593,8
1779265367.121807,2155,1871,8
1779265367.124186,2088,2120,8
1779265367.130898,2025,2175,8
1779265367.135044,2054,2019,8
1779265367.1376681,2039,2120,8
1779265367.139323,2027,2243,8
1779265367.141886,2070,1962,8
1779265367.14225,2172,1598,8
1779265367.142693,2191,1682,8
1779265367.148202,2082,1996,8
1779265367.1487381,2019,2174,8
1779265367.149297,2063,2076,8
1779265367.152802,2100,1999,8
1779265367.15291,2011,2279,8
1779265367.153043,1989,2201,8
1779265367.153124,2106,1829,8
1779265367.153246,2198,1675,8
1779265367.1557188,2127,1956,8
1779265367.158141,2047,2115,8
1779265367.159528,2017,2084,8
1779265367.162047,2062,1931,8
1779265367.16339,2042,2137,8
1779265367.1727948,1980,2208,8
1779265367.1757581,2058,1950,8
1779265367.176171,2157,1672,8
1779265367.1801531,2145,1852,8
1779265367.18211,2062,2061,8
1779265367.187422,2052,2214,8
1779265367.188438,2081,2010,8
1779265367.191752,2075,2086,8
1779265367.192137,1981,2235,8
1779265367.192275,2048,2056,8
1779265367.192377,2144,1750,8
1779265367.19246,2189,1770,8
1779265367.192532,2088,2103,8
1779265367.192618,2025,2265,8
1779265367.193991,2028,2185,8
1779265367.195341,2069,2084,8
1779265367.205569,1988,2296,8
1779265367.207664,1991,2160,8
1779265367.208104,2080,1841,8
1779265367.2105842,2176,1674,8
1779265367.2114382,2112,1990,8
1779265367.2127922,2042,2140,8
1779265367.223218,2008,2155,8
1779265367.2233322,2075,1988,8
1779265367.223428,2027,2152,8
1779265367.223555,1982,2242,8
1779265367.223677,2057,1948,8
1779265367.2238379,2155,1615,8
1779265367.223896,2155,1834,8
1779265367.223947,2049,2109,8
1779265367.225342,2016,2159,8
1779265367.228074,2043,2002,8
1779265367.229486,2056,2115,8
1779265367.2315562,1981,2282,8
1779265367.2343109,2014,2096,8
1779265367.240732,2131,1796,8
1779265367.242784,2189,1770,8
1779265367.246104,2083,2102,8
1779265367.2500029,2027,2233,8
1779265367.2507951,2030,2036,8
1779265367.2527502,2060,1993,8
1779265367.257941,2011,2293,8
1779265367.2582211,1996,2199,8
1779265367.2587242,2087,1903,8
1779265367.25891,2167,1687,8
1779265367.259212,2101,1974,8
1779265367.2617989,2008,2187,8
1779265367.262273,2012,2218,8
1779265367.262362,2083,2071,8
1779265367.263774,2029,2224,8
1779265367.265155,1983,2228,8
1779265367.279598,2054,1947,8
1779265367.28036,2164,1705,8
1779265367.280606,2155,1842,8
1779265367.287446,2054,2197,8
1779265367.287897,2012,2232,8
1779265367.2882009,2075,1990,8
1779265367.290637,2054,2115,8
1779265367.29168,1990,2273,8
1779265367.2918131,2012,2054,8
1779265367.2921548,2103,1771,8
1779265367.292288,2169,1782,8
1779265367.292417,2084,2057,8
1779265367.2925398,2013,2203,8
1779265367.2938602,2028,2079,8
1779265367.295177,2044,2025,8
1779265367.298056,2003,2367,8
1779265367.299444,2020,2298,8
1779265367.301871,2089,1938,8
1779265367.303266,2184,1699,8
1779265367.3094049,2129,1982,8
1779265367.310654,2029,2137,8
1779265367.3134668,2011,2284,8
1779265367.315722,2039,2041,8
1779265367.317054,2032,2170,8
1779265367.3177652,2005,2225,8
1779265367.324348,2044,1949,8
1779265367.324723,2175,1665,8
1779265367.325145,2146,1904,8
1779265367.325403,2048,2147,8
1779265367.3258471,2008,2169,8
1779265367.32926,2038,2008,8
1779265367.329399,2071,2164,8
1779265367.332434,1998,2308,8
1779265367.333834,2015,2161,8
1779265367.339796,2138,1836,8
1779265367.341005,2125,1680,8
1779265367.342182,1992,1970,8
1779265367.345823,2041,2101,8
1779265367.347084,2021,1992,8
1779265367.354835,2052,2162,8
1779265367.355204,1994,2269,8
1779265367.3555079,2041,2004,8
1779265367.3559282,2091,1984,8
1779265367.358474,2219,1798,8
1779265367.359255,2192,2078,8
1779265367.359392,2037,2244,8
1779265367.35957,2017,2168,8
1779265367.3610828,2063,2056,8
1779265367.363735,2015,2337,8
1779265367.365105,1917,2126,8
1779265367.367863,2012,1949,8
1779265367.369215,2011,1648,8
1779265367.377913,2103,1861,8
1779265367.380717,2155,1895,8
1779265367.383231,2034,2116,8
1779265367.384435,2061,2552,8
1779265367.386796,2063,2421,8
1779265367.3870752,2018,1956,8
1779265367.391913,1929,1939,8
1779265367.392281,1969,1771,8
1779265367.392583,2219,2072,8
1779265367.3930082,2095,2415,8
1779265367.395641,1717,2099,8
1779265367.395883,1856,2067,8
1779265367.395937,2134,2340,8
1779265367.3972962,2024,2594,8
1779265367.399929,1901,2665,8
1779265367.4014819,1996,2143,8
1779265367.407105,2267,1943,8
1779265367.410957,2332,2610,8
1779265367.4143739,2147,2023,8
1779265367.416944,2061,2581,8
1779265367.421974,2199,2758,8
1779265367.425457,2061,2700,8
1779265367.4257889,1701,2783,8
1779265367.4259079,1727,2892,8
1779265367.426039,2156,3069,8
1779265367.4261491,2192,3995,8
1779265367.426198,2062,4095,8
1779265367.426272,2220,4095,8
1779265367.427592,2400,4095,8
1779265367.430393,2372,3824,8
1779265367.43186,1987,3419,8
1779265367.433259,1991,3393,8
1779265367.4359832,2128,3705,8
1779265367.4371488,2047,4095,8
1779265367.44892,1974,4095,8
1779265367.4598799,1715,4095,8
1779265367.4635708,1787,4095,8
1779265367.463785,1394,4095,8
1779265367.4639192,1694,3831,8
1779265367.463973,2007,3712,8
1779265367.464022,2316,3791,8
1779265367.464072,2551,3999,8
1779265367.464121,2524,4095,8
1779265367.46417,2245,4095,8
1779265367.4643378,2059,4095,8
1779265367.464416,2152,4095,8
1779265367.4645271,2112,4016,8
1779265367.466105,2047,3911,8
1779265367.467498,1984,3902,8
1779265367.478761,1991,3979,8
1779265367.4822469,1823,3795,8
1779265367.483042,1783,3005,8
1779265367.489886,1849,3260,8
1779265367.4901261,2031,4095,8
1779265367.4905112,1917,3948,8
1779265367.49113,1820,3734,8
1779265367.493393,2266,3715,8
1779265367.4943008,2458,3871,8
1779265367.494425,2364,3064,8
1779265367.494647,2035,2596,8
1779265367.494808,2074,2683,8
1779265367.494924,1885,3144,8
1779265367.495042,1919,3514,8
1779265367.497824,1922,3498,8
1779265367.499645,2034,3346,8
1779265367.5011232,2056,3566,8
1779265367.503624,2200,2544,8
1779265367.506272,2215,1932,8
1779265367.512678,1923,2130,8
1779265367.514544,1866,1880,8
1779265367.5187001,1899,2077,8
1779265367.522184,2055,2916,8
1779265367.5224152,2154,2887,8
1779265367.5275872,2256,2677,8
1779265367.527903,2226,1874,8
1779265367.528325,2146,1480,8
1779265367.53119,1971,1986,8
1779265367.531543,1995,1688,8
1779265367.531627,2155,1765,8
1779265367.531749,2072,2178,8
1779265367.5318882,1591,2695,8
1779265367.53375,1441,2230,8
1779265367.5350971,2058,1520,8
1779265367.542349,2565,1197,8
1779265367.5435462,2243,1443,8
1779265367.549429,2156,1721,8
1779265367.551811,2160,1416,8
1779265367.5566971,1966,1755,8
1779265367.557102,2085,2429,8
1779265367.557424,2211,2191,8
1779265367.55773,2430,1535,8
1779265367.557968,2095,854,8
1779265367.560771,1922,1540,8
1779265367.56103,2009,1865,8
1779265367.5610828,1833,1772,8
1779265367.561217,2061,1583,8
1779265367.563849,2138,1845,8
1779265367.565297,2126,2117,8
1779265367.568104,1976,1456,8
1779265367.5694761,1967,614,8
1779265367.5720599,2150,1248,8
1779265367.573817,2037,1843,8
1779265367.579704,1849,1933,8
1779265367.5830941,1970,1457,8
1779265367.583531,2170,1521,8
1779265367.585541,2176,2140,8
1779265367.589182,2321,1804,8
1779265367.5942059,2234,1434,8
1779265367.5950458,2117,1301,8
1779265367.597913,1644,1934,8
1779265367.5982778,1780,2111,8
1779265367.5983381,2291,1942,8
1779265367.598527,2347,1695,8
1779265367.598719,1960,2327,8
1779265367.6001542,1937,2107,8
1779265367.601484,2154,1852,8
1779265367.6098702,2253,1365,8
1779265367.610075,2119,1693,8
1779265367.612913,1991,2167,8
1779265367.6133718,2045,1962,8
1779265367.616132,2090,1814,8
1779265367.6162949,1900,2075,8
1779265367.619304,1793,1802,8
1779265367.624265,1930,1790,8
1779265367.6247182,1976,1549,8
1779265367.6250508,2255,1726,8
1779265367.6254458,2209,2029,8
1779265367.628375,2260,2099,8
1779265367.628511,2045,1879,8
1779265367.629973,1766,2133,8
1779265367.6314251,1997,2342,8
1779265367.634055,2290,1936,8
1779265367.635378,2251,1699,8
1779265367.637961,2018,1652,8
1779265367.639292,1883,2006,8
1779265367.646369,1977,2388,8
1779265367.649745,2075,2246,8
1779265367.6501482,2141,1988,8
1779265367.6527638,1977,2489,8
1779265367.6540318,1897,2203,8
1779265367.6559901,1965,2084,8
1779265367.661385,2150,1330,8
1779265367.661966,2033,1959,8
1779265367.664876,2036,2408,8
1779265367.664974,2004,2398,8
1779265367.665052,2076,2091,8
1779265367.665123,2022,2565,8
1779265367.6651971,1976,2278,8
1779265367.667829,2052,2109,8
1779265367.669158,1981,1559,8
1779265367.675586,2028,1840,8
1779265367.676268,2058,2357,8
1779265367.676963,1972,2287,8
1779265367.6780941,2001,2144,8
1779265367.681599,2058,2290,8
1779265367.685513,1957,2383,8
1779265367.6906571,1970,2143,8
1779265367.6909811,2015,1858,8
1779265367.6912158,2130,1776,8
1779265367.691565,2087,2259,8
1779265367.6920419,2039,2398,8
1779265367.694987,2052,2286,8
1779265367.695124,2017,2220,8
1779265367.697891,1966,2577,8
1779265367.699316,1954,2257,8
1779265367.701916,2036,2160,8
1779265367.703392,2174,1583,8
1779265367.7059891,2005,1901,8
1779265367.713451,1916,2251,8
1779265367.71413,1967,2189,8
1779265367.7153878,2085,2185,8
1779265367.717474,2041,2534,8
1779265367.717799,2013,2276,8
1779265367.720618,2060,2039,8
1779265367.728139,2205,1684,8
1779265367.728565,2147,1762,8
1779265367.7287931,2016,2107,8
1779265367.729168,1910,2243,8
1779265367.731791,1982,2059,8
1779265367.7319412,2041,1976,8
1779265367.732265,1951,2242,8
1779265367.7339551,1949,1972,8
1779265367.7353349,2074,1663,8
1779265367.741737,2138,1513,8
1779265367.742851,1991,1870,8
1779265367.746509,1904,1992,8
1779265367.747425,1971,2014,8
1779265367.754606,2113,1637,8
1779265367.75504,2063,1920,8
1779265367.7553658,2053,1884,8
1779265367.7557719,2102,1312,8
1779265367.758115,2229,969,8
1779265367.7583518,2188,1516,8
1779265367.758479,2083,1829,8
1779265367.7598221,2066,1811,8
1779265367.761137,2060,1615,8
1779265367.7634418,1970,1622,8
1779265367.765001,1897,1833,8
1779265367.767791,1958,1466,8
1779265367.773997,2136,1053,8
1779265367.775062,2187,1208,8
1779265367.775637,2070,1765,8
1779265367.777676,2004,2025,8
1779265367.7830951,2049,1687,8
1779265367.790947,2045,1617,8
1779265367.7910578,1974,1884,8
1779265367.791143,1946,1643,8
1779265367.7912178,2114,1195,8
1779265367.791788,2190,1006,8
1779265367.791887,2107,1700,8
1779265367.791991,1985,1783,8
1779265367.7933319,2048,1675,8
1779265367.8012931,2112,1233,8
1779265367.8038158,2019,1436,8
1779265367.804002,2038,1447,8
1779265367.8042638,2097,946,8
1779265367.804425,2154,467,8
1779265367.813474,2110,1077,8
1779265367.814323,2088,1538,8
1779265367.816894,2064,1477,8
1779265367.8171341,2074,1226,8
1779265367.817256,2017,1414,8
1779265367.8173509,1980,1528,8
1779265367.8174489,2011,1297,8
1779265367.8200572,2186,886,8
1779265367.8213649,2169,855,8
1779265367.823946,2097,1438,8
1779265367.825388,2016,1621,8
1779265367.8280058,2024,1264,8
1779265367.833663,2015,1398,8
1779265367.835773,1983,1832,8
1779265367.836048,2005,1492,8
1779265367.8387809,2101,1078,8
1779265367.840638,2164,1036,8
1779265367.845402,2105,1482,8
1779265367.8456352,1998,1685,8
1779265367.845918,1986,1454,8
1779265367.846384,2078,1499,8
1779265367.849018,2025,1755,8
1779265367.849204,1912,1686,8
1779265367.851902,2016,1340,8
1779265367.85318,2148,1109,8
1779265367.859272,2161,1480,8
1779265367.861603,2025,1836,8
1779265367.863111,1953,1669,8
1779265367.864192,2110,1507,8
1779265367.867531,2142,1918,8
1779265367.867733,2079,2070,8
1779265367.87235,2072,1670,8
1779265367.8751402,2104,1178,8
1779265367.875467,2113,1463,8
1779265367.875565,2082,1880,8
1779265367.875691,2022,2086,8
1779265367.877009,2006,1968,8
1779265367.879794,2009,1881,8
1779265367.881187,1945,2166,8
1779265367.883795,2025,2100,8
1779265367.885188,2159,1719,8
1779265367.892351,2219,1462,8
1779265367.894409,2100,1967,8
1779265367.8946571,2035,2195,8
1779265367.894973,2021,2109,8
1779265367.898255,2042,1769,8
1779265367.899945,2007,1945,8
1779265367.905483,1990,1971,8
1779265367.908153,2066,1533,8
1779265367.9082382,2197,1211,8
1779265367.9083672,2171,1480,8
1779265367.908486,2076,1812,8
1779265367.909953,1992,1684,8
1779265367.9113028,2037,1504,8
1779265367.917325,2051,1740,8
1779265367.917962,2010,1908,8
1779265367.918954,1994,1576,8
1779265367.921033,2113,1113,8
1779265367.9230862,2132,1174,8
1779265367.924594,2040,1615,8
1779265367.926195,2026,1860,8
1779265367.9333398,2028,1564,8
1779265367.933407,2058,1559,8
1779265367.93345,1983,1800,8
1779265367.933491,2034,1676,8
1779265367.9360619,2114,1225,8
1779265367.937377,2136,1100,8
1779265367.9399629,2028,1509,8
1779265367.94128,1995,1652,8
1779265367.943767,1992,1589,8
1779265367.948971,2044,1454,8
1779265367.94985,2033,1819,8
1779265367.952509,2052,1713,8
1779265367.952832,2148,1374,8
1779265367.9554439,2229,948,8
1779265367.9575381,2174,1311,8
1779265367.962135,2116,1631,8
1779265367.962681,2072,1628,8
1779265367.962948,2039,1499,8
1779265367.9657228,2021,1640,8
1779265367.966062,1955,1740,8
1779265367.9674828,1959,1529,8
1779265367.9689422,2108,1188,8
1779265367.975255,2102,1250,8
1779265367.978899,2029,1681,8
1779265367.981599,2003,1871,8
1779265367.9841762,1985,1682,8
1779265367.98913,2058,1762,8
1779265367.989537,1993,2130,8
1779265367.98971,1997,1883,8
1779265367.9921129,2086,1425,8
1779265367.9923599,2229,1301,8
1779265367.992482,2206,1795,8
1779265367.992526,2053,2049,8
1779265367.993844,2070,1915,8
1779265367.9951591,2107,1755,8
1779265367.998181,2039,2097,8
1779265367.9996018,2005,2034,8
1779265368.0009441,2050,1678,8
1779265368.0082638,2160,1351,8
1779265368.008831,2136,1702,8
1779265368.0094101,1986,1975,8
1779265368.011394,1969,2005,8
1779265368.011654,2067,1763,8
1779265368.0139468,2073,1980,8
1779265368.0164852,2040,2241,8
1779265368.021355,2039,1946,8
1779265368.0217018,2149,1496,8
1779265368.0239182,2186,1564,8
1779265368.024727,2091,1811,8
1779265368.024818,2029,2032,8
1779265368.0273972,2071,1828,8
1779265368.028832,2037,1852,8
1779265368.034886,1972,2149,8
1779265368.035893,1968,2048,8
1779265368.0393732,2032,1759,8
1779265368.040297,2137,1509,8
1779265368.040865,2076,2014,8
1779265368.047497,2003,2191,8
1779265368.047832,2027,2120,8
1779265368.048044,2078,2044,8
1779265368.048338,2049,2337,8
1779265368.050806,2005,2183,8
1779265368.050855,2070,1794,8
1779265368.053438,2180,1417,8
1779265368.05602,2087,1798,8
1779265368.05735,2060,2184,8
1779265368.059933,2002,2276,8
1779265368.061114,2038,2041,8
1779265368.067968,2027,2135,8
1779265368.0681632,1970,2451,8
1779265368.070271,1958,2013,8
1779265368.070388,2114,1605,8
1779265368.0726268,2171,1799,8
1779265368.0732002,2144,2151,8
1779265368.0752661,2042,2315,8
1779265368.080095,2056,2186,8
1779265368.0832021,2063,2173,8
1779265368.083476,1992,2422,8
1779265368.083522,1999,2305,8
1779265368.0848582,2117,1892,8
1779265368.0874372,2204,1544,8
1779265368.092608,2083,2010,8
1779265368.093687,1998,2289,8
1779265368.096236,1971,2299,8
1779265368.096513,2016,2058,8
1779265368.0994072,1993,2394,8
1779265368.105572,1987,2360,8
1779265368.106122,2046,1980,8
1779265368.1063669,2156,1574,8
1779265368.108356,2136,1927,8
1779265368.109031,2031,2203,8
1779265368.109323,2008,2258,8
1779265368.111901,2062,1970,8
1779265368.113215,2059,2157,8
1779265368.1148171,1998,2387,8
1779265368.117435,2011,2060,8
1779265368.118849,2135,1818,8
1779265368.124267,2198,1743,8
1779265368.125678,2083,2077,8
1779265368.126595,2019,2378,8
1779265368.137941,2021,2188,8
1779265368.138298,2054,2057,8
1779265368.138541,1998,2450,8
1779265368.138906,1994,2243,8
1779265368.141377,2093,1757,8
1779265368.1416378,2206,1576,8
1779265368.141761,2110,2091,8
1779265368.14195,2042,2373,8
1779265368.143268,2017,2283,8
1779265368.1458938,2061,2083,8
1779265368.152113,2013,2468,8
1779265368.154132,1973,2415,8
1779265368.154359,2039,2125,8
1779265368.154544,2144,1622,8
1779265368.157143,2119,1873,8
1779265368.157699,2015,2256,8
1779265368.159328,1992,2409,8
1779265368.1641111,2051,2183,8
1779265368.1664839,2065,2266,8
1779265368.1672902,2024,2468,8
1779265368.167418,2028,2120,8
1779265368.168819,2104,1801,8
1779265368.1713998,2139,1779,8
1779265368.172866,2058,2255,8
1779265368.175455,2001,2486,8
1779265368.1768892,1993,2328,8
1779265368.1843572,2042,2220,8
1779265368.186656,2016,2466,8
1779265368.1889112,1994,2226,8
1779265368.190125,2115,1810,8
1779265368.196173,2200,1668,8
1779265368.196477,2126,2111,8
1779265368.1966422,2060,2354,8
1779265368.1969469,2050,2333,8
1779265368.1973991,2080,1980,8
1779265368.200149,2035,2263,8
1779265368.200203,1986,2389,8
1779265368.2022521,2064,2127,8
1779265368.203582,2174,1752,8
1779265368.205044,2157,2001,8
1779265368.210752,2056,2391,8
1779265368.212867,1977,2517,8
1779265368.213172,2022,2186,8
1779265368.215507,2025,2364,8
1779265368.216213,1948,2559,8
1779265368.222877,1966,2190,8
1779265368.223306,2106,1930,8
1779265368.223642,2175,1820,8
1779265368.22607,2117,2204,8
1779265368.2264059,2035,2370,8
1779265368.227735,2038,2255,8
1779265368.229045,2085,2356,8
1779265368.231781,2041,2563,8
1779265368.233377,1991,2435,8
1779265368.234802,2099,1975,8
1779265368.242784,2185,1868,8
1779265368.244274,2125,2349,8
1779265368.2459369,2035,2429,8
1779265368.300218,2014,2357,8
1779265368.300482,2060,2012,8
1779265368.300689,2039,2280,8
1779265368.300908,1962,2385,8
1779265368.301064,2039,2044,8
1779265368.301239,2156,1674,8
1779265368.301319,2145,1950,8
1779265368.301387,2048,2255,8
1779265368.301449,2010,2328,8
1779265368.301583,2049,2138,8
1779265368.3016589,2028,2201,8
1779265368.3017092,1989,2442,8
1779265368.301753,2003,2121,8
1779265368.301795,2116,1634,8
1779265368.3018382,2160,1682,8
1779265368.301931,2070,2107,8
1779265368.302024,1986,2245,8
1779265368.302092,1995,2073,8
1779265368.302191,2025,1980,8
1779265368.3022652,2028,2362,8
1779265368.302378,2007,2139,8
1779265368.302571,2099,1692,8
1779265368.302647,2198,1618,8
1779265368.3027751,2128,1892,8
1779265368.302882,2037,2152,8
1779265368.30307,2029,2208,8
1779265368.303125,2088,1977,8
1779265368.30317,2076,2232,8
1779265368.303214,1979,2170,8
1779265368.3032582,2032,1882,8
1779265368.303301,2136,1650,8
1779265368.3115158,2156,1851,8
1779265368.311567,2045,2228,8
1779265368.311609,2028,2323,8
1779265368.3117702,2095,2118,8
1779265368.313231,2040,2113,8
1779265368.3193312,1956,2215,8
1779265368.3205671,2002,1991,8
1779265368.3226619,2134,1591,8
1779265368.323015,2151,1639,8
1779265368.326417,2053,1888,8
1779265368.327893,1975,2155,8
1779265368.332911,2024,2125,8
1779265368.3334022,2073,2032,8
1779265368.333725,2006,2279,8
1779265368.336135,2010,2143,8
1779265368.336407,2083,1836,8
1779265368.337738,2173,1715,8
1779265368.338861,2128,2079,8
1779265368.3464692,2025,2335,8
1779265368.348981,2002,2272,8
1779265368.351475,2074,2027,8
1779265368.3520691,2069,2277,8
1779265368.358988,1981,2429,8
1779265368.359284,2004,2116,8
1779265368.359798,2161,1667,8
1779265368.362081,2183,1988,8
1779265368.362296,2058,2310,8
1779265368.3623402,1980,2269,8
1779265368.3624609,2024,2070,8
1779265368.3637938,1999,2156,8
1779265368.365227,1930,2323,8
1779265368.3666828,1989,2031,8
1779265368.369301,2104,1782,8
1779265368.371943,2167,1766,8
1779265368.3787808,2092,2002,8
1779265368.379377,2004,2226,8
1779265368.383841,2026,2242,8
1779265368.385468,2094,2021,8
1779265368.387197,1991,2044,8
1779265368.39203,1954,1898,8
1779265368.3922749,2039,1645,8
1779265368.39251,2187,1360,8
1779265368.3926778,2167,1855,8
1779265368.392875,2037,2207,8
1779265368.395295,2033,2078,8
1779265368.39551,2081,1894,8
1779265368.396916,2034,2022,8
1779265368.399673,1954,2033,8
1779265368.404674,2029,1757,8
1779265368.4058619,2163,1544,8
1779265368.408316,2119,1738,8
1779265368.408688,2005,2012,8
1779265368.411314,1951,2134,8
1779265368.418373,2031,1965,8
1779265368.418865,2058,2047,8
1779265368.421142,1997,2240,8
1779265368.421854,2001,1995,8
1779265368.4220018,2111,1639,8
1779265368.4221041,2246,1594,8
1779265368.4234738,2120,1720,8
1779265368.424819,2002,1985,8
1779265368.427395,2045,1867,8
1779265368.428792,2029,1525,8
1779265368.4315531,1966,1863,8
1779265368.433496,1983,2071,8
1779265368.43956,2060,1787,8
1779265368.4416041,2184,1279,8
1779265368.4418602,2160,1590,8
1779265368.443702,2047,1867,8
1779265368.4454699,1970,1909,8
1779265368.4456892,2060,1772,8
1779265368.451998,2066,1776,8
1779265368.452349,2011,1656,8
1779265368.455012,2038,1457,8
1779265368.455748,2152,1224,8
1779265368.455838,2147,1371,8
1779265368.457153,2029,1594,8
1779265368.459838,1994,1781,8
1779265368.4656582,2060,1621,8
1779265368.4670951,2047,1514,8
1779265368.468817,1972,1789,8
1779265368.469022,1998,1548,8
1779265368.469237,2116,1236,8
1779265368.481618,2155,1169,8
1779265368.481799,2072,1498,8
1779265368.481993,1997,1722,8
1779265368.482045,2015,1604,8
1779265368.4820879,2063,1437,8
1779265368.4821289,2012,1691,8
1779265368.483457,2005,1671,8
1779265368.4847722,2076,1303,8
1779265368.487432,2190,1203,8
1779265368.488773,2121,1506,8
1779265368.491554,2023,1740,8
1779265368.5003781,1990,1791,8
1779265368.5005782,2060,1478,8
1779265368.500881,2038,1645,8
1779265368.5030808,1978,1770,8
1779265368.505642,2027,1519,8
1779265368.5105238,2152,1269,8
1779265368.510974,2176,1312,8
1779265368.5111449,2066,1635,8
1779265368.5113862,1990,1814,8
1779265368.51388,2023,1708,8
1779265368.513962,2067,1675,8
1779265368.5152829,1993,1744,8
1779265368.5166929,2002,1624,8
1779265368.524096,2090,1346,8
1779265368.52512,2165,1335,8
1779265368.5267231,2066,1632,8
1779265368.5270028,2018,1783,8
1779265368.5287108,2028,1744,8
1779265368.530228,2063,1673,8
1779265368.536428,1988,1906,8
1779265368.536597,1982,1816,8
1779265368.536831,2072,1521,8
1779265368.5371,2180,1299,8
1779265368.539946,2123,1621,8
1779265368.541106,2034,1824,8
1779265368.543781,2011,1855,8
1779265368.5451698,2060,1678,8
1779265368.5477781,2027,1764,8
1779265368.549171,1969,1759,8
1779265368.556422,2033,1544,8
1779265368.559958,2149,1266,8
1779265368.562158,2131,1502,8
1779265368.5705779,2055,1702,8
1779265368.570905,2002,1880,8
1779265368.571371,2041,1663,8
1779265368.5719569,2051,1664,8
1779265368.57491,1994,1861,8
1779265368.5750022,2011,1724,8
1779265368.575076,2102,1414,8
1779265368.575291,2178,1349,8
1779265368.575434,2080,1743,8
1779265368.575572,2003,1801,8
1779265368.577007,2009,1738,8
1779265368.579691,2059,1665,8
1779265368.587801,2006,1966,8
1779265368.589941,1987,1953,8
1779265368.591717,2051,1610,8
1779265368.5981052,2187,1384,8
1779265368.598779,2104,1714,8
1779265368.6019578,2040,1999,8
1779265368.602091,2006,2007,8
1779265368.6022289,2047,1804,8
1779265368.6023738,2016,1913,8
1779265368.602515,1965,1902,8
1779265368.602677,2039,1735,8
1779265368.602783,2150,1494,8
1779265368.6053991,2136,1629,8
1779265368.606851,2051,1929,8
1779265368.609503,2015,1931,8
1779265368.61065,2041,1752,8
1779265368.6181,2031,1786,8
1779265368.619242,1972,1929,8
1779265368.620547,1990,1792,8
1779265368.6226099,2122,1545,8
1779265368.6243892,2165,1532,8
1779265368.632531,2086,1687,8
1779265368.633025,1989,1884,8
1779265368.633527,2014,1804,8
1779265368.6364422,2073,1728,8
1779265368.636569,2013,1968,8
1779265368.636651,1996,1862,8
1779265368.636724,2065,1556,8
1779265368.636797,2176,1365,8
1779265368.639458,2130,1583,8
1779265368.6407082,2043,1822,8
1779265368.6505961,2006,1780,8
1779265368.651645,2052,1715,8
1779265368.65271,2020,1836,8
1779265368.6541991,1975,1953,8
1779265368.658777,2026,1718,8
1779265368.659277,2158,1401,8
1779265368.661809,2151,1571,8
1779265368.662124,2065,1892,8
1779265368.66223,2013,1962,8
1779265368.662346,2052,1852,8
1779265368.663643,2064,1927,8
1779265368.665003,1980,2040,8
1779265368.667388,1999,1721,8
1779265368.6687129,2104,1601,8
1779265368.671366,2186,1555,8
1779265368.672891,2087,1804,8
1779265368.678654,2012,1986,8
1779265368.681159,2045,1874,8
1779265368.68143,2065,1689,8
1779265368.681661,1979,1962,8
1779265368.683624,1974,1940,8
1779265368.686465,2084,1665,8
1779265368.6910038,2192,1608,8
1779265368.6915278,2140,1832,8
1779265368.693998,2028,1964,8
1779265368.694286,2019,1947,8
1779265368.698454,2059,1821,8
1779265368.701302,2031,1923,8
1779265368.7014048,1999,1953,8
1779265368.706149,2024,1756,8
1779265368.707564,2129,1468,8
1779265368.709667,2124,1605,8
1779265368.711742,2061,1906,8
1779265368.718941,2015,1972,8
1779265368.719258,2038,1907,8
1779265368.719593,2050,1913,8
1779265368.7198331,1993,2091,8
1779265368.720238,2012,1923,8
1779265368.7222779,2115,1687,8
1779265368.7229629,2186,1536,8
1779265368.723108,2096,1849,8
1779265368.7257018,2015,1981,8
1779265368.727017,2019,1922,8
1779265368.7296572,2042,1858,8
1779265368.7310631,2021,2070,8
1779265368.737807,2005,1999,8
1779265368.741805,2070,1835,8
1779265368.742152,2177,1585,8
1779265368.7453399,2124,1866,8
1779265368.7513568,2052,1991,8
1779265368.7518961,2019,2044,8
1779265368.752394,2069,1817,8
1779265368.754781,2026,1946,8
1779265368.754997,1976,1976,8
1779265368.755043,2017,1825,8
1779265368.755156,2152,1586,8
1779265368.7552462,2135,1552,8
1779265368.756686,2054,1804,8
1779265368.7597382,1998,1939,8
1779265368.767221,2047,1851,8
1779265368.767483,2060,1812,8
1779265368.7693062,1990,1977,8
1779265368.770585,1996,1879,8
1779265368.771244,2091,1632,8
1779265368.777036,2196,1614,8
1779265368.7775779,2094,1875,8
1779265368.778055,2023,2044,8
1779265368.780428,2012,1929,8
1779265368.780662,2054,1814,8
1779265368.780789,2019,1927,8
1779265368.783401,1983,1977,8
1779265368.7847621,2077,1773,8
1779265368.7873468,2198,1399,8
1779265368.7888808,2124,1683,8
1779265368.791827,2038,1930,8
1779265368.801527,2024,1977,8
1779265368.802098,2079,1858,8
1779265368.803066,2049,1943,8
1779265368.804579,1979,1962,8
1779265368.8049011,2033,1823,8
1779265368.809103,2137,1588,8
1779265368.809567,2162,1726,8
1779265368.809898,2088,2002,8
1779265368.810129,2019,2062,8
1779265368.812833,2051,1951,8
1779265368.812927,2068,1860,8
1779265368.815568,1997,2038,8
1779265368.817052,2016,1808,8
1779265368.8260422,2118,1651,8
1779265368.827991,2177,1585,8
1779265368.828565,2090,1822,8
1779265368.835297,2028,1982,8
1779265368.8354828,2005,1973,8
1779265368.835971,2067,1854,8
1779265368.836402,2005,1966,8
1779265368.838733,1985,1832,8
1779265368.838946,2049,1719,8
1779265368.8389919,2155,1514,8
1779265368.839034,2116,1710,8
1779265368.841727,2016,1887,8
1779265368.84304,1985,1983,8
1779265368.845608,2035,1861,8
1779265368.8467882,2018,1866,8
1779265368.854199,1989,1917,8
1779265368.856391,2012,1682,8
1779265368.857766,2126,1573,8
1779265368.859581,2159,1657,8
1779265368.864726,2066,1841,8
1779265368.865448,1998,1945,8
1779265368.867629,2035,1817,8
1779265368.867896,2006,1816,8
1779265368.868021,1961,2033,8
1779265368.868132,1979,1940,8
1779265368.869199,2098,1778,8
1779265368.8708081,2171,1736,8
1779265368.877651,2081,1955,8
1779265368.878727,2010,2062,8
1779265368.8825321,2017,1959,8
1779265368.8827252,2064,1818,8
1779265368.883242,1989,2070,8
1779265368.885153,1965,2001,8
1779265368.888984,2070,1746,8
1779265368.889308,2162,1619,8
1779265368.88944,2124,1757,8
1779265368.891914,2030,1944,8
1779265368.893164,1980,2019,8
1779265368.89458,2044,1825,8
1779265368.8971689,2018,1855,8
1779265368.898689,1978,1923,8
1779265368.901539,1999,1734,8
1779265368.9030669,2118,1598,8
1779265368.9082,2139,1733,8
1779265368.9104588,2056,1906,8
1779265368.910846,2000,1946,8
1779265368.9126,2037,1864,8
1779265368.9138198,2051,1816,8
1779265368.9194822,1984,1937,8
1779265368.9197912,1986,1866,8
1779265368.920247,2099,1711,8
1779265368.923263,2171,1637,8
1779265368.9233768,2073,1873,8
1779265368.9246972,2009,1978,8
1779265368.927277,2004,1950,8
1779265368.933366,2062,1821,8
1779265368.9344242,2014,1985,8
1779265368.9364312,1982,1987,8
1779265368.936652,2059,1779,8
1779265368.936895,2154,1600,8
1779265368.9397771,2131,1709,8
1779265368.945944,2050,1770,8
1779265368.946406,1984,1763,8
1779265368.946826,2051,1707,8
1779265368.949625,2020,1794,8
1779265368.949717,1977,1821,8
1779265368.951081,2034,1735,8
1779265368.953763,2142,1477,8
1779265368.955342,2182,1506,8
1779265368.9567108,2056,1734,8
1779265368.959504,1996,1849,8
1779265368.965983,2022,1725,8
1779265368.9702919,2068,1734,8
1779265368.9796748,1998,1899,8
1779265368.98253,1999,1738,8
1779265368.982718,2081,1562,8
1779265368.9828212,2176,1533,8
1779265368.982872,2098,1786,8
1779265368.982976,2014,1858,8
1779265368.9830909,1997,1818,8
1779265368.983187,2059,1676,8
1779265368.983308,2009,1781,8
1779265368.983422,1963,1773,8
1779265368.984742,2046,1675,8
1779265368.9928389,2157,1513,8
1779265368.9945889,2132,1600,8
1779265369.0019488,2049,1834,8
1779265369.006408,2033,1833,8
1779265369.006944,2034,1882,8
1779265369.007658,2022,1786,8
1779265369.010427,1989,1797,8
1779265369.010557,2023,1737,8
1779265369.010689,2141,1593,8
1779265369.010816,2159,1665,8
1779265369.0109692,2080,1853,8
1779265369.01104,1994,1873,8
1779265369.011103,2040,1807,8
1779265369.01387,2083,1810,8
1779265369.015255,2022,1881,8
1779265369.016629,1949,1916,8
1779265369.019289,2095,1692,8
1779265369.021825,2182,1567,8
1779265369.02864,2168,1745,8
1779265369.033234,1989,1879,8
1779265369.035062,1964,1789,8
1779265369.041858,2091,1725,8
1779265369.042251,2054,1859,8
1779265369.042604,2003,1769,8
1779265369.043218,2035,1638,8
1779265369.043581,2119,1570,8
1779265369.043927,2140,1757,8
1779265369.046558,2054,1873,8
1779265369.046895,2021,1910,8
1779265369.046955,2075,1849,8
1779265369.047007,2034,1811,8
1779265369.049483,1982,1879,8
1779265369.050845,2032,1728,8
1779265369.0584068,2158,1498,8
1779265369.060369,2151,1584,8
1779265369.060738,2148,1716,8
1779265369.063335,1954,1962,8
1779265369.064489,2016,1725,8
1779265369.070474,1975,1869,8
1779265369.071243,2014,1841,8
1779265369.074083,2019,1814,8
1779265369.0744362,2101,1785,8
1779265369.0745852,2168,1686,8
1779265369.074728,2200,1405,8
1779265369.074812,1999,2072,8
1779265369.077278,2073,2200,8
1779265369.078696,2124,1833,8
1779265369.0813608,1986,1735,8
1779265369.082728,1992,1814,8
1779265369.089656,1985,1781,8
1779265369.0919192,2138,1720,8
1779265369.094343,2083,1901,8
1779265369.096996,2091,1871,8
1779265369.100479,2045,1633,8
1779265369.105037,2039,1778,8
1779265369.105691,2089,1663,8
1779265369.108047,2019,1981,8
1779265369.1089878,2062,2022,8
1779265369.1091478,2175,1789,8
1779265369.109268,2136,1832,8
1779265369.109379,2104,1931,8
1779265369.1094751,2027,2129,8
1779265369.110848,1945,2041,8
1779265369.1138718,1987,2102,8
1779265369.120119,1949,2171,8
1779265369.122551,2010,2240,8
1779265369.1261098,1975,2122,8
1779265369.132252,2246,2007,8
1779265369.132959,2151,2206,8
1779265369.1356008,1969,2257,8
1779265369.1357272,2056,2389,8
1779265369.135846,2208,2375,8
1779265369.135962,2151,2559,8
1779265369.136082,1979,2546,8
1779265369.1362119,1997,2423,8
1779265369.137398,2122,2312,8
1779265369.138765,2164,2626,8
1779265369.141411,2055,2742,8
1779265369.142766,1910,2735,8
1779265369.1454568,2017,2541,8
1779265369.152587,2020,2743,8
1779265369.155276,1957,3008,8
1779265369.1579251,2064,2908,8
1779265369.159202,2220,2718,8
1779265369.164896,2189,2626,8
1779265369.165714,2164,2838,8
1779265369.166233,1958,2920,8
1779265369.169018,1940,3061,8
1779265369.169308,2104,3039,8
1779265369.169415,2092,3324,8
1779265369.1695292,2059,3214,8
1779265369.169641,2007,3012,8
1779265369.1710012,2085,2890,8
1779265369.172438,2085,2969,8
1779265369.179965,2103,2966,8
1779265369.182451,1933,3136,8
1779265369.1844769,2051,2998,8
1779265369.186112,2004,3095,8
1779265369.191894,1956,3068,8
1779265369.192176,2053,3015,8
1779265369.1929212,2116,2667,8
1779265369.195977,2130,2703,8
1779265369.196104,2045,2919,8
1779265369.196198,2054,2932,8
1779265369.196298,2083,2931,8
1779265369.19643,2051,3044,8
1779265369.19916,1952,3163,8
1779265369.200523,1897,2934,8
1779265369.2031832,2132,2723,8
1779265369.204525,2170,2861,8
1779265369.214113,1986,2816,8
1779265369.2170749,1905,2889,8
1779265369.219423,2007,3047,8
1779265369.227573,2061,2975,8
1779265369.22814,2025,3214,8
1779265369.228596,1975,3051,8
1779265369.2290828,2065,2894,8
1779265369.232778,2202,2676,8
1779265369.232971,2122,2852,8
1779265369.233276,2009,2980,8
1779265369.23352,2041,3100,8
1779265369.233591,2149,3034,8
1779265369.233821,2101,3231,8
1779265369.2339,1963,3141,8
1779265369.2352588,2110,3026,8
1779265369.2365959,2175,2647,8
1779265369.245725,2031,2532,8
1779265369.248514,1803,2877,8
1779265369.248981,1905,2812,8
1779265369.249353,2002,2690,8
1779265369.2519512,2096,2848,8
1779265369.253998,1915,3045,8
1779265369.256439,1817,2900,8
1779265369.2614589,1832,2723,8
1779265369.261914,2250,2626,8
1779265369.262342,2375,2708,8
1779265369.262793,2223,2903,8
1779265369.263165,2221,2920,8
1779265369.266538,2089,2853,8
1779265369.266728,2019,3207,8
1779265369.2668538,2044,3042,8
1779265369.269505,2158,3031,8
1779265369.270901,2250,2943,8
1779265369.273519,2110,3033,8
1779265369.2748978,1893,3172,8
1779265369.2774222,1754,3222,8
1779265369.278846,1903,3115,8
1779265369.289097,1695,3074,8
1779265369.289472,1808,3089,8
1779265369.29196,2038,2727,8
1779265369.2934232,2261,2220,8
1779265369.300739,2196,2593,8
1779265369.301379,2135,2510,8
1779265369.304621,2118,2569,8
1779265369.304716,1937,2475,8
1779265369.304851,1994,2835,8
1779265369.304977,2206,3036,8
1779265369.305079,2075,2735,8
1779265369.305166,2143,2509,8
1779265369.305239,2233,2297,8
1779265369.3066041,2132,2356,8
1779265369.309224,2011,2517,8
1779265369.316746,1922,2497,8
1779265369.318648,2152,2552,8
1779265369.321125,1967,2889,8
1779265369.3246279,1841,2804,8
1779265369.3271942,2045,2560,8
1779265369.3321521,2045,2490,8
1779265369.333236,1785,2893,8
1779265369.336543,1749,3002,8
1779265369.3366778,2126,3374,8
1779265369.336767,2203,3004,8
1779265369.3369238,2063,3370,8
1779265369.33703,1888,2918,8
1779265369.3371038,2069,3079,8
1779265369.3371751,2439,2867,8
1779265369.3385391,2454,3203,8
1779265369.341185,2073,3477,8
1779265369.342558,2009,3831,8
1779265369.345245,2221,3695,8
1779265369.34669,2159,3609,8
1779265369.3566232,1892,3143,8
1779265369.359634,1931,3169,8
1779265369.362544,2031,3626,8
1779265369.366039,2140,3484,8
1779265369.3712199,1914,3533,8
1779265369.37185,1985,3822,8
1779265369.375223,2171,4013,8
1779265369.3756092,2263,3905,8
1779265369.37569,2057,3376,8
1779265369.375796,1911,3263,8
1779265369.3759098,1718,3561,8
1779265369.375991,1964,3975,8
1779265369.376065,2142,4093,8
1779265369.376205,1994,3818,8
1779265369.3763661,1989,3981,8
1779265369.379006,1918,4095,8
1779265369.38046,1941,3706,8
1779265369.388862,2193,3455,8
1779265369.391111,2032,3544,8
1779265369.391669,2200,3867,8
1779265369.395057,2273,3590,8
1779265369.39594,2117,3422,8
1779265369.4029398,2003,3422,8
1779265369.403369,2065,3672,8
1779265369.404001,1637,3892,8
1779265369.40463,2025,3489,8
1779265369.407713,2375,3430,8
1779265369.407841,2459,3684,8
1779265369.4079208,2053,3378,8
1779265369.4079921,2052,3256,8
1779265369.409345,2038,3078,8
1779265369.4107,2175,3587,8
1779265369.413551,2132,4021,8
1779265369.414913,1815,3493,8
1779265369.41631,1950,3320,8
1779265369.4189281,2129,3536,8
1779265369.420483,2087,3109,8
1779265369.427606,2063,2855,8
1779265369.4307761,2072,2433,8
1779265369.433847,2112,2741,8
1779265369.434766,2144,3339,8
1779265369.436268,1998,3490,8
1779265369.443001,1688,3059,8
1779265369.443579,1657,3185,8
1779265369.44415,2126,2749,8
1779265369.4447749,2405,2625,8
1779265369.4453208,2342,2466,8
1779265369.44832,1977,2206,8
1779265369.4484951,1607,2552,8
1779265369.448693,1680,3484,8
1779265369.448808,1696,2896,8
1779265369.451514,2119,2723,8
1779265369.452904,2578,2436,8
1779265369.4607491,2254,2052,8
1779265369.4670331,1966,2278,8
1779265369.468736,2164,2562,8
1779265369.4758651,2241,2323,8
1779265369.476448,1984,2648,8
1779265369.47714,1875,2902,8
1779265369.4806,2267,2622,8
1779265369.480757,2277,2576,8
1779265369.480912,2089,1857,8
1779265369.481049,1869,1913,8
1779265369.4812748,1871,1973,8
1779265369.481354,1870,2262,8
1779265369.4814441,1581,2155,8
1779265369.481513,2088,2402,8
1779265369.482868,2429,2455,8
1779265369.484307,2317,2387,8
1779265369.486979,2043,1276,8
1779265369.4883862,1938,1353,8
1779265369.491153,1925,1786,8
1779265369.492553,2001,1999,8
1779265369.5018299,2130,1276,8
1779265369.5042298,1944,1527,8
1779265369.504488,1925,2069,8
1779265369.5083818,1770,1764,8
1779265369.5086238,1828,927,8
1779265369.5108511,1737,1370,8
1779265369.515896,1918,1878,8
1779265369.5166268,2457,1710,8
1779265369.517153,2497,1532,8
1779265369.517523,2240,1619,8
1779265369.520724,2084,2089,8
1779265369.52082,1921,1896,8
1779265369.520895,1929,1313,8
1779265369.520989,2162,1128,8
1779265369.5224478,2013,1340,8
1779265369.525101,1935,1814,8
1779265369.5334349,1952,1588,8
1779265369.536076,1972,1158,8
1779265369.53663,1933,1490,8
1779265369.5370328,1842,1776,8
1779265369.539305,1919,1495,8
1779265369.5402,2283,943,8
1779265369.5415301,2335,1447,8
1779265369.548583,1966,1651,8
1779265369.549144,1662,1675,8
1779265369.549451,1928,1625,8
1779265369.549933,2094,1958,8
1779265369.5501661,2001,1840,8
1779265369.5532002,2010,1739,8
1779265369.55359,2193,1289,8
1779265369.554986,2304,1269,8
1779265369.556352,2035,1674,8
1779265369.559041,1887,1830,8
1779265369.560406,1871,1911,8
1779265369.563091,1980,1777,8
1779265369.564474,2205,2348,8
1779265369.573689,2153,2152,8
1779265369.576326,2003,1667,8
1779265369.576808,1946,1198,8
1779265369.5791712,2075,1758,8
1779265369.579962,2099,2150,8
1779265369.5884318,2076,2024,8
1779265369.5888581,2027,1747,8
1779265369.589256,1802,2320,8
1779265369.589605,1708,2227,8
1779265369.589974,2132,1822,8
1779265369.5925279,2375,1227,8
1779265369.593604,2283,1303,8
1779265369.5937028,2135,1971,8
1779265369.5938392,2027,2088,8
1779265369.595189,1994,1747,8
1779265369.596527,2034,1993,8
1779265369.60517,1969,2220,8
1779265369.606532,2026,1882,8
1779265369.607241,2109,1770,8
1779265369.60922,2100,1543,8
1779265369.60957,1963,2005,8
1779265369.609846,1955,2083,8
1779265369.61257,2161,1842,8
1779265369.613894,2192,2039,8
1779265369.616468,2079,2485,8
1779265369.616735,2021,2096,8
1779265369.6220548,2035,1865,8
1779265369.622613,2150,1355,8
1779265369.622977,2062,1972,8
1779265369.6262028,2044,2373,8
1779265369.626323,2033,2299,8
1779265369.6290188,2033,2033,8
1779265369.630377,1981,2236,8
1779265369.633675,1887,2245,8
1779265369.635037,2017,2053,8
1779265369.636433,2130,1451,8
1779265369.6485791,2208,1607,8
1779265369.65138,2054,2262,8
1779265369.652865,1882,2478,8
1779265369.655648,2024,2304,8
1779265369.661199,1948,2294,8
1779265369.661952,1932,2280,8
1779265369.6623209,2093,1993,8
1779265369.662837,2346,1771,8
1779265369.665452,2346,1708,8
1779265369.6668,2164,2203,8
1779265369.666929,2054,2281,8
1779265369.666999,2088,2304,8
1779265369.6670668,2153,2181,8
1779265369.667177,2058,2620,8
1779265369.667247,1852,2268,8
1779265369.668591,1926,2199,8
1779265369.671247,2027,1700,8
1779265369.6815429,2075,2327,8
1779265369.682195,2069,2633,8
1779265369.684549,2116,2396,8
1779265369.6859741,2173,2144,8
1779265369.688589,2130,2367,8
1779265369.6939058,1973,2376,8
1779265369.694431,1969,1998,8
1779265369.694963,2118,1519,8
1779265369.6955771,2195,1639,8
1779265369.698488,2120,1977,8
1779265369.698991,2015,2213,8
1779265369.699065,2049,2020,8
1779265369.699185,2085,2035,8
1779265369.699265,1991,2267,8
1779265369.700618,2060,2037,8
1779265369.7033112,2233,1570,8
1779265369.704672,2198,1383,8
1779265369.707315,1995,2047,8
1779265369.708658,1864,2149,8
1779265369.7117598,2002,2105,8
1779265369.7192519,2149,1978,8
1779265369.720129,2050,2161,8
1779265369.7282848,2019,2125,8
1779265369.73377,2061,1897,8
1779265369.7346282,2216,1632,8
1779265369.735279,2139,1613,8
1779265369.739118,2056,1783,8
1779265369.7391932,2040,1967,8
1779265369.739245,2030,1682,8
1779265369.739295,1988,1753,8
1779265369.7393432,2037,1867,8
1779265369.739392,2109,1568,8
1779265369.7395442,2228,1096,8
1779265369.7396858,2148,1219,8
1779265369.74117,2016,1713,8
1779265369.7424388,1942,2055,8
1779265369.7495759,2034,1729,8
1779265369.750998,2082,1579,8
1779265369.754982,2013,1753,8
1779265369.755678,2034,1615,8
1779265369.7582028,2140,1141,8
1779265369.760232,2234,901,8
1779265369.762508,2135,1470,8
1779265369.768357,2089,1746,8
1779265369.77218,2075,1704,8
1779265369.772301,2107,1519,8
1779265369.772379,2013,1928,8
1779265369.772455,1966,2044,8
1779265369.7725341,2075,1548,8
1779265369.772602,2159,1140,8
1779265369.7726688,2018,1447,8
1779265369.7754061,1893,1860,8
1779265369.776774,2011,1876,8
1779265369.7781792,2161,1665,8
1779265369.780889,2117,1806,8
1779265369.78226,1968,2056,8
1779265369.790963,2026,1697,8
1779265369.794715,2165,1208,8
1779265369.79525,2264,1449,8
1779265369.798259,2103,1891,8
1779265369.8016949,2074,2082,8
1779265369.807225,2017,1875,8
1779265369.8080158,2032,1655,8
1779265369.8119092,1973,2023,8
1779265369.81241,2029,1954,8
1779265369.812495,2152,1435,8
1779265369.812567,2223,1351,8
1779265369.812636,2118,1824,8
1779265369.812704,2034,1965,8
1779265369.812772,2026,1946,8
1779265369.81284,2055,1897,8
1779265369.814201,2017,2017,8
1779265369.816798,1979,1877,8
1779265369.827569,1996,1556,8
1779265369.830231,2084,1211,8
1779265369.834204,2113,1664,8
1779265369.839547,2022,1954,8
1779265369.8399081,2066,2022,8
1779265369.840482,2064,1803,8
1779265369.841037,2034,1996,8
1779265369.8414981,1971,2275,8
1779265369.8446112,2031,1923,8
1779265369.845043,2166,1405,8
1779265369.8451278,2210,1556,8
1779265369.845202,2092,1934,8
1779265369.845272,2050,2091,8
1779265369.84534,2057,2017,8
1779265369.846613,2062,1994,8
1779265369.8491719,1976,2322,8
1779265369.850545,1963,2204,8
1779265369.85324,2093,1958,8
1779265369.854655,2200,1814,8
1779265369.8576949,2148,2255,8
1779265369.863442,2014,2452,8
1779265369.8665679,1984,2388,8
1779265369.8688252,2079,2145,8
1779265369.872542,2058,2441,8
1779265369.875346,1970,2373,8
1779265369.8809721,2080,2097,8
1779265369.881351,2213,1655,8
1779265369.882224,2179,2024,8
1779265369.8851242,2060,2289,8
1779265369.88605,1997,2327,8
1779265369.8861399,2088,2047,8
1779265369.886239,2046,2134,8
1779265369.886318,2015,2203,8
1779265369.88639,2004,1785,8
1779265369.886461,2147,1367,8
1779265369.889083,2192,1541,8
1779265369.8902888,2131,1964,8
1779265369.90328,2015,2053,8
1779265369.904781,2019,1772,8
1779265369.912689,2045,1760,8
1779265369.913054,2004,1993,8
1779265369.916679,2029,1895,8
1779265369.917136,2112,1425,8
1779265369.917231,2210,1226,8
1779265369.917377,2128,1726,8
1779265369.917462,2062,2045,8
1779265369.917595,2040,2078,8
1779265369.9176672,2109,1791,8
1779265369.9177349,2019,1954,8
1779265369.9177952,2004,1955,8
1779265369.919158,2058,1587,8
1779265369.920498,2189,1261,8
1779265369.923084,2089,1532,8
1779265369.924455,2001,1839,8
1779265369.9271412,2063,1853,8
1779265369.92849,2127,1625,8
1779265369.9372978,2079,1917,8
1779265369.942086,1996,2045,8
1779265369.945193,2093,1765,8
1779265369.945663,2205,1279,8
1779265369.951742,2257,1346,8
1779265369.952631,2089,1739,8
1779265369.9557881,2046,1943,8
1779265369.9558852,2101,1752,8
1779265369.955997,2142,1735,8
1779265369.956169,2010,2028,8
1779265369.956249,1960,1840,8
1779265369.956321,2103,1461,8
1779265369.956392,2200,1309,8
1779265369.95646,2155,1695,8
1779265369.959145,2025,1912,8
1779265369.9607391,2036,1896,8
1779265369.968779,2081,1699,8
1779265369.9696279,2046,1871,8
1779265369.9855192,1995,1919,8
1779265369.985599,2099,1565,8
1779265369.985652,2201,1215,8
1779265369.985704,2181,1407,8
1779265369.985752,2078,1697,8
1779265369.9858,2010,1799,8
1779265369.985847,2028,1638,8
1779265369.985894,2019,1828,8
1779265369.987665,2012,1960,8
1779265369.987832,2032,1763,8
1779265369.98795,2162,1253,8
1779265369.988124,2141,1414,8
1779265369.9934149,2039,1786,8
1779265369.993471,1991,1987,8
1779265369.994868,2064,1873,8
1779265369.996171,2116,1803,8
1779265370.006133,2101,2004,8
1779265370.01175,2031,1869,8
1779265370.0132082,2112,1586,8
1779265370.020504,2171,1452,8
1779265370.021166,2119,1811,8
1779265370.022282,2050,1978,8
1779265370.025262,2033,1959,8
1779265370.025643,2057,1876,8
1779265370.025743,2003,2210,8
1779265370.025881,1968,2157,8
1779265370.02596,2008,1614,8
1779265370.026092,2133,1357,8
1779265370.026175,2141,1689,8
1779265370.026248,2092,2013,8
1779265370.026318,2067,2006,8
1779265370.0290098,2078,1835,8
1779265370.0303612,2071,1919,8
1779265370.039017,1992,2124,8
1779265370.040979,2024,1927,8
1779265370.041528,2164,1573,8
1779265370.044849,2220,1645,8
1779265370.047364,2109,2024,8
1779265370.053161,2031,2193,8
1779265370.053548,2016,1991,8
1779265370.054316,2012,1885,8
1779265370.054877,1968,2246,8
1779265370.057715,1972,2197,8
1779265370.0581398,2068,1682,8
1779265370.058212,2168,1484,8
1779265370.058281,2071,1931,8
1779265370.058383,2027,2093,8
1779265370.061075,2018,2032,8
1779265370.062434,2076,1838,8
1779265370.065061,2011,2196,8
1779265370.066515,1985,2211,8
1779265370.069154,2056,1830,8
1779265370.0771132,2152,1438,8
1779265370.078398,2100,1786,8
1779265370.080816,2023,2115,8
1779265370.084216,1985,2260,8
1779265370.0892532,2038,2058,8
1779265370.0951521,2049,2104,8
1779265370.095722,1976,2362,8
1779265370.09617,2019,2015,8
1779265370.0966148,2150,1769,8
1779265370.099979,2170,1783,8
1779265370.100085,2064,2077,8
1779265370.100157,2014,2146,8
1779265370.1002529,2012,2087,8
1779265370.100371,2057,2037,8
1779265370.100548,1970,2358,8
1779265370.100621,1960,2261,8
1779265370.1020648,2083,1817,8
1779265370.104481,2234,1561,8
1779265370.111398,2150,2027,8
1779265370.1148238,2041,2383,8
1779265370.115365,2018,2191,8
1779265370.117592,2079,1952,8
1779265370.117995,2008,2316,8
1779265370.119479,1979,2443,8
1779265370.1203158,2059,1971,8
1779265370.127871,2146,1522,8
1779265370.128622,2109,1930,8
1779265370.1291862,2008,2182,8
1779265370.132569,1996,2229,8
1779265370.13267,2051,2052,8
1779265370.132742,2044,2213,8
1779265370.1328409,1981,2418,8
1779265370.134054,1992,2111,8
1779265370.1366751,2108,1790,8
1779265370.1380868,2170,1894,8
1779265370.1407318,2057,2276,8
1779265370.142147,2000,2474,8
1779265370.145118,2019,2272,8
1779265370.1506062,2063,2157,8
1779265370.151246,2000,2423,8
1779265370.152443,1993,2329,8
1779265370.155019,2094,1875,8
1779265370.157877,2198,1777,8
1779265370.158587,2106,2041,8
1779265370.1608589,2011,2154,8
1779265370.167362,1970,2302,8
1779265370.167606,2072,2265,8
1779265370.170808,2042,2408,8
1779265370.1709492,1972,2368,8
1779265370.171084,2003,1899,8
1779265370.171198,2172,1523,8
1779265370.172522,2157,1899,8
1779265370.175107,2073,2261,8
1779265370.181252,2067,2387,8
1779265370.182813,2101,2114,8
1779265370.1834571,2054,2182,8
1779265370.185919,1987,2570,8
1779265370.18883,2010,2133,8
1779265370.189573,2105,1834,8
1779265370.1972978,2099,1935,8
1779265370.197639,2108,2268,8
1779265370.2011871,2041,2230,8
1779265370.201316,2007,2117,8
1779265370.2014332,2022,2096,8
1779265370.201561,2021,2239,8
1779265370.201677,2024,2079,8
1779265370.2031958,2101,1847,8
1779265370.204746,2218,1492,8
1779265370.206145,2125,1998,8
1779265370.208825,2037,2277,8
1779265370.209986,2010,2225,8
1779265370.2131531,2041,1912,8
1779265370.236625,2000,2186,8
1779265370.236728,1950,2311,8
1779265370.236803,2019,2044,8
1779265370.236908,2182,1621,8
1779265370.237002,2203,1797,8
1779265370.237077,2061,2175,8
1779265370.2371469,2027,2325,8
1779265370.237216,2077,2060,8
1779265370.23728,2071,1998,8
1779265370.23734,2003,2231,8
1779265370.2374,2027,1982,8
1779265370.237463,2144,1675,8
1779265370.238855,2222,1678,8
1779265370.240245,2104,2110,8
1779265370.252994,2005,2364,8
1779265370.2550132,2035,2226,8
1779265370.257569,2109,2124,8
1779265370.2631009,2021,2467,8
1779265370.263884,1990,2287,8
1779265370.266902,2063,1995,8
1779265370.267257,2162,1652,8
1779265370.267406,2126,1990,8
1779265370.26753,2008,2214,8
1779265370.2676501,1997,2203,8
1779265370.267757,2073,1949,8
1779265370.267864,2039,2119,8
1779265370.267971,1979,2117,8
1779265370.2680519,2029,1821,8
1779265370.270438,2164,1530,8
1779265370.273313,2166,1803,8
1779265370.274643,2076,2168,8
1779265370.2759712,2042,2216,8
1779265370.27856,2057,2074,8
1779265370.285012,2060,2122,8
1779265370.2868018,1978,2296,8
1779265370.289365,2021,1997,8
1779265370.291044,2102,1661,8
1779265370.291747,2151,1543,8
1779265370.292392,2078,1944,8
1779265370.2952168,2040,2123,8
1779265370.301725,2022,2086,8
1779265370.3048441,2059,1840,8
1779265370.305017,2006,1994,8
1779265370.305192,2000,1902,8
1779265370.305305,2090,1631,8
1779265370.3054101,2170,1469,8
1779265370.3068311,2153,1771,8
1779265370.308185,2012,1970,8
1779265370.3175921,2005,1904,8
1779265370.319595,2064,1791,8
1779265370.3198478,2015,1950,8
1779265370.323485,2001,1978,8
1779265370.325268,2067,1672,8
1779265370.3311172,2153,1423,8
1779265370.3347158,2150,1601,8
1779265370.334872,2095,1850,8
1779265370.33499,1973,1817,8
1779265370.335105,1995,1537,8
1779265370.335219,2021,1551,8
1779265370.335337,1995,1741,8
1779265370.335454,2014,1483,8
1779265370.3367739,2108,1263,8
1779265370.338093,2167,1136,8
1779265370.340676,2123,1483,8
1779265370.342062,2034,1681,8
1779265370.3446379,2040,1652,8
1779265370.346056,2091,1536,8
1779265370.3525472,2017,1744,8
1779265370.3527071,1971,1720,8
1779265370.3539772,2079,1413,8
1779265370.355074,2201,1278,8
1779265370.357086,2127,1559,8
1779265370.359221,2059,1730,8
1779265370.362571,1992,1903,8
1779265370.3686259,2035,1691,8
1779265370.3692439,2027,1769,8
1779265370.3723369,1992,1770,8
1779265370.3724182,1995,1587,8
1779265370.3725371,2095,1342,8
1779265370.3726661,2115,1443,8
1779265370.374132,2057,1657,8
1779265370.3770292,1964,1778,8
1779265370.384017,2102,1651,8
1779265370.384199,2068,1665,8
1779265370.387042,2000,1855,8
1779265370.387521,2017,1832,8
1779265370.389948,2126,1478,8
1779265370.390697,2245,1442,8
1779265370.393203,2141,1684,8
1779265370.3995368,2029,1802,8
1779265370.39981,1960,1759,8
1779265370.402703,2050,1700,8
1779265370.4030871,2018,1869,8
1779265370.4032362,1979,1797,8
1779265370.403344,2088,1418,8
1779265370.404691,2179,1269,8
1779265370.406079,2135,1618,8
1779265370.408702,2062,1714,8
1779265370.410146,2012,1816,8
1779265370.412776,1984,1586,8
1779265370.414145,1982,1649,8
1779265370.422912,1984,1780,8
1779265370.4253151,2031,1669,8
1779265370.425619,2148,1274,8
1779265370.42768,2145,1440,8
1779265370.428462,2063,1736,8
1779265370.436861,2034,1896,8
1779265370.437071,2077,1784,8
1779265370.4374459,2104,1808,8
1779265370.4376361,2004,1924,8
1779265370.4380002,2013,1822,8
1779265370.4381928,2123,1538,8
1779265370.441081,2187,1487,8
1779265370.441466,2086,1782,8
1779265370.442986,2008,1924,8
1779265370.444342,2007,1888,8
1779265370.452075,2074,1639,8
1779265370.453332,2028,1929,8
1779265370.458433,2004,1808,8
1779265370.459841,2084,1513,8
1779265370.4621792,2180,1249,8
1779265370.462355,2099,1603,8
1779265370.467659,2004,1887,8
1779265370.467987,1994,1916,8
1779265370.46829,2048,1668,8
1779265370.468669,2034,1770,8
1779265370.46896,1972,1843,8
1779265370.4728289,2017,1650,8
1779265370.472961,2123,1441,8
1779265370.473013,2148,1559,8
1779265370.474338,2058,1799,8
1779265370.4770591,2000,1935,8
1779265370.47838,2027,1792,8
1779265370.4812238,2052,1822,8
1779265370.4839501,2011,1938,8
1779265370.48401,2004,1735,8
1779265370.489259,2088,1472,8
1779265370.48932,2169,1387,8
1779265370.492109,2086,1668,8
1779265370.494315,2015,1910,8
1779265370.49684,2023,1808,8
1779265370.497613,2075,1564,8
1779265370.505269,2004,1728,8
1779265370.505513,1987,1666,8
1779265370.505785,2050,1501,8
1779265370.506042,2163,1346,8
1779265370.508418,2141,1479,8
1779265370.509275,2027,1609,8
1779265370.510846,1994,1627,8
1779265370.512226,2056,1474,8
1779265370.5206778,2041,1590,8
1779265370.5242188,1987,1665,8
1779265370.526495,2037,1561,8
1779265370.527699,2131,1260,8
1779265370.5300522,2154,1389,8
1779265370.5352771,2052,1657,8
1779265370.53567,1988,1787,8
1779265370.536067,2026,1563,8
1779265370.536364,2030,1580,8
1779265370.538879,1983,1788,8
1779265370.539648,1986,1631,8
1779265370.5397,2081,1423,8
1779265370.539822,2165,1356,8
1779265370.540014,2097,1659,8
1779265370.54269,2020,1750,8
1779265370.544008,2018,1822,8
1779265370.546453,2046,1774,8
1779265370.547922,1997,1975,8
1779265370.550547,1960,1943,8
1779265370.551987,2051,1670,8
1779265370.5583942,2163,1467,8
1779265370.559545,2119,1673,8
1779265370.561301,2041,1907,8
1779265370.5631921,2008,1915,8
1779265370.567552,2049,1803,8
1779265370.572758,2019,1935,8
1779265370.576591,1984,1912,8
1779265370.576651,2022,1677,8
1779265370.5768352,2129,1457,8
1779265370.5769432,2126,1533,8
1779265370.57706,2053,1795,8
1779265370.577167,2003,1902,8
1779265370.57852,2034,1713,8
1779265370.5798771,2033,1772,8
1779265370.5881898,1968,1897,8
1779265370.589348,1988,1756,8
1779265370.591381,2076,1557,8
1779265370.5929139,2183,1513,8
1779265370.594639,2074,1793,8
1779265370.597097,1993,1888,8
1779265370.602162,1993,1846,8
1779265370.6025212,2040,1721,8
1779265370.602922,2004,1883,8
1779265370.603155,1965,1754,8
1779265370.6034381,2037,1645,8
1779265370.606436,2147,1488,8
1779265370.6065989,2105,1677,8
1779265370.607931,2024,1946,8
1779265370.610514,1986,1967,8
1779265370.611878,2051,1777,8
1779265370.61456,2002,1845,8
1779265370.615923,1965,1958,8
1779265370.618888,2030,1791,8
1779265370.625453,2138,1662,8
1779265370.628274,2139,1643,8
1779265370.62877,2057,1808,8
1779265370.630315,1996,2000,8
1779265370.634361,2017,1855,8
1779265370.63946,2046,1802,8
1779265370.639943,1977,1961,8
1779265370.640175,1972,1850,8
1779265370.6405299,2065,1604,8
1779265370.640827,2147,1507,8
1779265370.643855,2070,1706,8
1779265370.6439612,2000,1854,8
1779265370.644088,1996,1868,8
1779265370.646778,2064,1732,8
1779265370.648195,2005,1912,8
1779265370.655052,1981,1899,8
1779265370.655652,2055,1671,8
1779265370.657608,2143,1521,8
1779265370.658041,2131,1699,8
1779265370.6593332,2032,1880,8
1779265370.6625412,1999,1932,8
1779265370.667051,2050,1813,8
1779265370.6675892,2023,1885,8
1779265370.670177,1984,1908,8
1779265370.670418,2034,1783,8
1779265370.670544,2127,1532,8
1779265370.6718621,2174,1574,8
1779265370.674467,2089,1775,8
1779265370.675819,2034,1873,8
1779265370.678423,2043,1790,8
1779265370.679847,2056,1769,8
1779265370.686808,1986,1963,8
1779265370.687398,1975,1848,8
1779265370.6893198,2089,1642,8
1779265370.689499,2168,1549,8
1779265370.6941938,2079,1748,8
1779265370.698729,2010,1944,8
1779265370.6990342,2020,1894,8
1779265370.7023191,2060,1764,8
1779265370.702594,2021,1935,8
1779265370.70273,1974,1885,8
1779265370.7028449,2058,1704,8
1779265370.70416,2176,1579,8
1779265370.706733,2140,1755,8
1779265370.712401,2037,1811,8
1779265370.715668,2010,1895,8
1779265370.718097,2051,1816,8
1779265370.718814,2039,1882,8
1779265370.724853,1991,1948,8
1779265370.725151,2030,1786,8
1779265370.7257159,2137,1654,8
1779265370.7260952,2163,1705,8
1779265370.7282088,2096,1932,8
1779265370.728858,2018,2029,8
1779265370.7289028,2032,1887,8
1779265370.730129,2057,1823,8
1779265370.732776,1988,1975,8
1779265370.734092,1988,1938,8
1779265370.736667,2100,1683,8
1779265370.7379751,2192,1632,8
1779265370.746398,2123,1817,8
1779265370.748489,2025,1913,8
1779265370.750753,2009,1899,8
1779265370.7513862,2073,1808,8
1779265370.7578082,2027,1940,8
1779265370.758249,1995,1957,8
1779265370.7607522,2053,1781,8
1779265370.760861,2170,1605,8
1779265370.760981,2147,1766,8
1779265370.761068,2060,1889,8
1779265370.7611809,2002,2011,8
1779265370.762597,2063,1885,8
1779265370.764071,2064,1879,8
1779265370.770526,2006,1994,8
1779265370.773706,2019,1852,8
1779265370.773968,2137,1687,8
1779265370.775452,2171,1736,8
1779265370.776462,2078,1915,8
1779265370.777588,2006,1995,8
1779265370.779228,2035,1974,8
1779265370.7835488,2070,1900,8
1779265370.784134,1979,1916,8
1779265370.78626,1986,1884,8
1779265370.7870011,2091,1681,8
1779265370.7885592,2164,1679,8
1779265370.789902,2121,1871,8
1779265370.79248,2024,1929,8
1779265370.794046,2025,1981,8
1779265370.796512,2067,1858,8
1779265370.798336,2023,1946,8
1779265370.8037949,1991,1939,8
1779265370.806566,2065,1792,8
1779265370.808396,2178,1608,8
1779265370.8089669,2148,1786,8
1779265370.8100412,2052,2005,8
1779265370.8115141,2023,2006,8
1779265370.8158422,2052,1827,8
1779265370.816246,2061,1936,8
1779265370.8166232,1993,2003,8
1779265370.81911,2032,1878,8
1779265370.820657,2126,1738,8
1779265370.822067,2178,1792,8
1779265370.829321,2084,1915,8
1779265370.831834,2021,1952,8
1779265370.8340921,2020,1938,8
1779265370.834771,2067,1872,8
1779265370.835435,2005,2044,8
1779265370.836024,1997,1977,8
1779265370.837783,2102,1687,8
1779265370.841843,2194,1679,8
1779265370.842416,2117,1866,8
1779265370.842863,2035,2000,8
1779265370.8452291,2043,1969,8
1779265370.846557,2064,1950,8
1779265370.84798,2015,2030,8
1779265370.850634,1974,1982,8
1779265370.8520489,2065,1905,8
1779265370.854673,2146,1757,8
1779265370.856121,2155,1838,8
1779265370.873663,2053,1929,8
1779265370.877308,2010,2067,8
1779265370.877414,2060,1943,8
1779265370.877604,2066,1947,8
1779265370.877706,1992,2019,8
1779265370.877779,2035,1888,8
1779265370.8778791,2121,1697,8
1779265370.8779619,2166,1768,8
1779265370.87806,2087,1836,8
1779265370.878128,2006,1922,8
1779265370.878191,2025,1962,8
1779265370.880832,2059,1959,8
1779265370.887119,1984,1983,8
1779265370.893273,1990,1895,8
1779265370.903098,2080,1720,8
1779265370.9031942,2179,1645,8
1779265370.903275,2115,1819,8
1779265370.903349,2034,1862,8
1779265370.903418,2010,1891,8
1779265370.903496,2079,1820,8
1779265370.903573,2006,1942,8
1779265370.9036689,1976,1974,8
1779265370.903808,2049,1830,8
1779265370.903884,2173,1693,8
1779265370.9065049,2146,1829,8
1779265370.907892,2056,1986,8
1779265370.910628,2012,2020,8
1779265370.9120052,2063,1919,8
1779265370.9312088,2026,1819,8
1779265370.934019,1975,1955,8
1779265370.934106,2016,1806,8
1779265370.93418,2123,1607,8
1779265370.9342499,2174,1665,8
1779265370.934321,2084,1838,8
1779265370.934415,2007,1956,8
1779265370.934527,2017,1929,8
1779265370.934648,2059,1797,8
1779265370.934714,2002,1955,8
1779265370.934779,1995,1927,8
1779265370.936147,2080,1833,8
1779265370.944159,2161,1751,8
1779265370.9554188,2119,1869,8
1779265370.958664,2042,1892,8
1779265370.9587588,2023,1866,8
1779265370.958832,2085,1856,8
1779265370.958904,2035,1974,8
1779265370.958975,1999,1986,8
1779265370.9590452,2063,1822,8
1779265370.959114,2165,1652,8
1779265370.9591832,2155,1774,8
1779265370.9592519,2046,1885,8
1779265370.960681,1987,1929,8
1779265370.962023,2052,1778,8
1779265370.9647338,2060,1830,8
1779265370.966888,1982,1943,8
1779265370.968328,2014,1871,8
1779265370.969884,2133,1724,8
1779265370.983525,2166,1701,8
1779265370.990606,2080,1963,8
1779265370.991018,2017,1982,8
1779265370.991124,2028,1907,8
1779265370.991194,2053,1845,8
1779265370.9912581,1991,2034,8
1779265370.991322,1992,1958,8
1779265370.991384,2093,1743,8
1779265370.9914439,2197,1618,8
1779265370.9915142,2110,1837,8
1779265370.992831,2022,1961,8
1779265370.9942322,2016,1953,8
1779265371.0116491,2080,1781,8
1779265371.012599,2040,1900,8
1779265371.015456,2009,1877,8
1779265371.015554,2056,1758,8
1779265371.0156329,2175,1661,8
1779265371.0157042,2161,1811,8
1779265371.015807,2051,1978,8
1779265371.015877,2007,2028,8
1779265371.015945,2064,1875,8
1779265371.016075,2066,1845,8
1779265371.016161,2000,1939,8
1779265371.018952,2005,1825,8
1779265371.020386,2137,1674,8
1779265371.021732,2176,1705,8
1779265371.024298,2093,1874,8
1779265371.026934,2025,1939,8
1779265371.037392,2024,1944,8
1779265371.0475771,2072,1934,8
1779265371.050941,1983,1939,8
1779265371.051033,1980,1890,8
1779265371.0511098,2078,1796,8
1779265371.051183,2182,1727,8
1779265371.051253,2119,1933,8
1779265371.051328,2026,1947,8
1779265371.0513978,2004,1946,8
1779265371.051467,2051,1838,8
1779265371.051539,2034,1942,8
1779265371.0516338,1972,2047,8
1779265371.051696,2051,1865,8
1779265371.0544481,2169,1758,8
1779265371.0562031,2159,1910,8
1779265371.069021,2054,1982,8
1779265371.074093,1997,2056,8
1779265371.0773828,2057,1909,8
1779265371.077478,2038,1915,8
1779265371.077552,1970,2004,8
1779265371.07762,2006,1962,8
1779265371.07777,2111,1796,8
1779265371.0779362,2166,1780,8
1779265371.078028,2084,1897,8
1779265371.078094,2023,1940,8
1779265371.078156,2050,1939,8
1779265371.080804,2077,1940,8
1779265371.082149,2005,2019,8
1779265371.084779,1997,1872,8
1779265371.086116,2076,1767,8
1779265371.088763,2182,1758,8
1779265371.102497,2119,1896,8
1779265371.109314,2025,1906,8
1779265371.1124249,2009,1881,8
1779265371.1125498,2048,1890,8
1779265371.11264,2028,1968,8
1779265371.112715,2010,2027,8
1779265371.1127858,2057,1940,8
1779265371.112855,2166,1770,8
1779265371.11298,2171,1773,8
1779265371.113111,2065,1970,8
1779265371.113725,1997,1949,8
1779265371.113931,2068,1896,8
1779265371.114295,2063,1838,8
1779265371.115718,1997,1880,8
1779265371.139414,2002,1905,8
1779265371.1399958,2099,1782,8
1779265371.1400561,2172,1794,8
1779265371.140107,2094,1897,8
1779265371.1401548,2013,1911,8
1779265371.140203,2043,1911,8
1779265371.140987,2064,1935,8
1779265371.141282,1995,2008,8
1779265371.141574,2001,1941,8
1779265371.141645,2053,1867,8
1779265371.141711,2191,1822,8
1779265371.1417751,2109,1853,8
1779265371.141838,2036,1946,8
1779265371.247862,2017,2018,8
1779265371.2479491,2070,1978,8
1779265371.248617,2047,2009,8
1779265371.248673,2001,1945,8
1779265371.2487779,2053,1900,8
1779265371.248842,2172,1829,8
1779265371.248893,2162,1865,8
1779265371.248996,2062,2050,8
1779265371.249095,2009,2107,8
1779265371.249145,2052,1907,8
1779265371.249192,2064,1945,8
1779265371.2492402,1996,1981,8
1779265371.2492878,2002,1921,8
1779265371.249335,2139,1874,8
1779265371.2493818,2187,1818,8
1779265371.24943,2090,1858,8
1779265371.2494771,2018,1942,8
1779265371.249525,2008,1861,8
1779265371.249572,2058,1877,8
1779265371.249619,1992,1949,8
1779265371.249665,1971,1955,8
1779265371.2497122,2062,1862,8
1779265371.249759,2136,1781,8
1779265371.249805,2080,1854,8
1779265371.249852,2041,1938,8
1779265371.250876,2047,1935,8
1779265371.250944,2106,1768,8
1779265371.2510238,2014,1935,8
1779265371.2510772,1952,1900,8
1779265371.251536,1918,1859,8
1779265371.2515829,2120,1774,8
1779265371.25163,2219,1834,8
1779265371.2535229,2133,1990,8
1779265371.253576,2021,1805,8
1779265371.253983,2012,1939,8
1779265371.254035,2034,1937,8
1779265371.2540832,2007,2008,8
1779265371.25413,2082,1640,8
1779265371.254176,2123,1509,8
1779265371.254223,2026,2067,8
1779265371.2542698,2077,1868,8
1779265371.254317,2085,2024,8
1779265371.2543628,2043,1903,8
1779265371.25441,2049,1955,8
1779265371.254457,1943,1919,8
1779265371.254504,1951,1752,8
1779265371.254551,2172,1893,8
1779265371.254598,2224,1435,8
1779265371.254644,2086,1750,8
1779265371.25469,1755,2010,8
1779265371.254737,1889,1868,8
1779265371.2554722,2127,1603,8
1779265371.255525,2162,1886,8
1779265371.255573,2185,2050,8
1779265371.262262,2156,1987,8
1779265371.262336,2255,1749,8
1779265371.2623858,2246,1573,8
1779265371.262435,2047,1781,8
1779265371.262561,2043,1810,8
1779265371.26268,2199,1951,8
1779265371.2640471,2000,1710,8
1779265371.267118,1671,1922,8
1779265371.28978,1571,1937,8
1779265371.289841,1970,1697,8
1779265371.2898922,2502,1674,8
1779265371.2899399,2330,1820,8
1779265371.289988,1878,1976,8
1779265371.290035,1909,1769,8
1779265371.290082,2226,1755,8
1779265371.2901278,2297,2112,8
1779265371.290175,2230,1832,8
1779265371.290221,2201,1740,8
1779265371.290267,2142,1739,8
1779265371.290314,2039,1949,8
1779265371.293897,1937,2044,8
1779265371.294307,1960,1970,8
1779265371.3053591,2113,1920,8
1779265371.307961,2040,2066,8
1779265371.309163,1807,2081,8
1779265371.309859,2019,1995,8
1779265371.311668,1938,1920,8
1779265371.315924,2032,2086,8
1779265371.316224,2029,2022,8
1779265371.317002,2050,2067,8
1779265371.317269,2048,2299,8
1779265371.320056,2063,2128,8
1779265371.3203561,1676,2183,8
1779265371.320412,2053,2058,8
1779265371.320491,2313,1970,8
1779265371.321812,2259,2257,8
1779265371.324393,2215,2089,8
1779265371.325713,2043,2228,8
1779265371.328259,2150,2237,8
1779265371.329612,2229,2230,8
1779265371.3321118,2081,2585,8
1779265371.3400478,1918,2555,8
1779265371.342054,2027,2677,8
1779265371.342388,2041,2652,8
1779265371.344982,1869,2718,8
1779265371.345705,1483,2700,8
1779265371.352756,1741,3100,8
1779265371.3533142,2037,3159,8
1779265371.356525,2163,3503,8
1779265371.3566148,2189,3619,8
1779265371.356689,2232,3632,8
1779265371.35676,2316,3830,8
1779265371.3568268,2321,3929,8
1779265371.35819,2182,4095,8
1779265371.35962,1765,4095,8
1779265371.380558,1661,4095,8
1779265371.385386,1862,4030,8
1779265371.385719,2134,3858,8
1779265371.38626,2147,3816,8
1779265371.386417,2047,3909,8
1779265371.386812,2073,4070,8
1779265371.3872058,2166,4095,8
1779265371.3883672,2403,4095,8
1779265371.388526,2252,4095,8
1779265371.388764,2152,4095,8
1779265371.3889139,1855,4004,8
1779265371.3889751,1682,3948,8
1779265371.389024,1869,3962,8
1779265371.389072,1937,4029,8
1779265371.392944,2081,4095,8
1779265371.3930821,2110,4095,8
1779265371.394467,2334,4095,8
1779265371.3957891,2302,4095,8
1779265371.4169788,2103,4068,8
1779265371.417324,1534,4021,8
1779265371.4176772,1831,4012,8
1779265371.418,2349,4028,8
1779265371.4202518,2329,4074,8
1779265371.421162,1770,4095,8
1779265371.421254,1878,4095,8
1779265371.4213388,2422,4095,8
1779265371.421411,2485,4087,8
1779265371.421529,2173,4058,8
1779265371.421578,2020,4044,8
1779265371.421652,2109,4047,8
1779265371.4217558,2117,4062,8
1779265371.424356,1911,3909,8
1779265371.425676,2108,3394,8
1779265371.436171,2174,3902,8
1779265371.4364212,1990,4095,8
1779265371.4365811,1548,3986,8
1779265371.436864,1765,3929,8
1779265371.4371462,2243,3955,8
1779265371.4396741,2544,4015,8
1779265371.44257,2219,2822,8
1779265371.442817,1999,2317,8
1779265371.4467578,1847,2845,8
1779265371.449836,1639,2878,8
1779265371.450083,1934,3838,8
1779265371.4502149,1984,3497,8
1779265371.4516218,2123,3462,8
1779265371.4542239,2300,2634,8
1779265371.4555361,2397,1941,8
1779265371.458107,2141,2109,8
1779265371.465353,1827,2545,8
1779265371.467329,2098,2347,8
1779265371.4691,2191,2660,8
1779265371.471503,2371,3203,8
1779265371.477796,2173,3074,8
1779265371.481194,2006,3055,8
1779265371.481354,2112,1874,8
1779265371.481434,1904,2140,8
1779265371.481507,1971,2151,8
1779265371.481576,2155,2188,8
1779265371.481646,2017,2319,8
1779265371.4817128,1846,3096,8
1779265371.484231,2086,2694,8
1779265371.485628,1931,2720,8
1779265371.4902668,2105,2036,8
1779265371.4918442,2232,2229,8
1779265371.493912,1992,2032,8
1779265371.494381,2028,1892,8
1779265371.497343,2149,1790,8
1779265371.505099,1888,2342,8
1779265371.505863,1911,2576,8
1779265371.5059142,2060,2319,8
1779265371.506021,2039,1784,8
1779265371.5061219,2101,1192,8
1779265371.507467,2103,1627,8
1779265371.5100741,1997,1842,8
1779265371.512575,1970,1925,8
1779265371.513887,2170,2115,8
1779265371.516469,2095,2331,8
1779265371.5236402,1733,2204,8
1779265371.525567,1508,1741,8
1779265371.527935,1732,1013,8
1779265371.5285618,2382,1728,8
1779265371.5291378,2317,1902,8
1779265371.531018,2149,1889,8
1779265371.5353441,2180,1930,8
1779265371.53569,2094,2525,8
1779265371.535945,2120,2081,8
1779265371.536182,2184,1989,8
1779265371.5388002,2275,1461,8
1779265371.540215,2149,1741,8
1779265371.5415528,1870,2252,8
1779265371.548676,1710,2333,8
1779265371.549269,2030,1900,8
1779265371.55189,2091,2216,8
1779265371.5522418,1782,2206,8
1779265371.55365,2026,1970,8
1779265371.5555441,2287,1823,8
1779265371.557225,2228,1395,8
1779265371.564509,2148,2094,8
1779265371.56465,2115,2614,8
1779265371.564733,1753,2047,8
1779265371.564806,1660,1949,8
1779265371.566221,1955,2214,8
1779265371.567622,2291,2161,8
1779265371.5703151,2255,2034,8
1779265371.571721,2030,1480,8
1779265371.57441,1977,2052,8
1779265371.5809128,2042,2322,8
1779265371.5837262,1974,2154,8
1779265371.585251,2135,1920,8
1779265371.586886,2086,2175,8
1779265371.58747,1950,2182,8
1779265371.589115,1802,1875,8
1779265371.593475,2043,1182,8
1779265371.596002,2230,1517,8
1779265371.596241,2172,2050,8
1779265371.5963159,2057,2437,8
1779265371.596361,2040,1790,8
1779265371.598269,1977,1895,8
1779265371.5997472,1873,2306,8
1779265371.606018,1929,1900,8
1779265371.608608,2021,1387,8
1779265371.608984,2184,1398,8
1779265371.610741,2080,1836,8
1779265371.611812,2012,2206,8
1779265371.613654,2000,2235,8
1779265371.613814,2012,2133,8
1779265371.617991,1986,2232,8
1779265371.6184168,1982,2135,8
1779265371.621341,2055,1592,8
1779265371.621514,1995,1440,8
1779265371.624202,1953,1759,8
1779265371.625552,1974,1962,8
1779265371.628132,2060,1998,8
1779265371.630526,2144,1700,8
1779265371.637137,2107,2036,8
1779265371.639082,2086,2053,8
1779265371.6409621,2101,1691,8
1779265371.6458519,2168,1222,8
1779265371.650115,2042,1589,8
1779265371.650334,1972,1976,8
1779265371.650516,1871,2038,8
1779265371.6527328,1893,1745,8
1779265371.653306,1867,1884,8
1779265371.65359,1886,2137,8
1779265371.6537201,2003,1808,8
1779265371.653836,2254,1455,8
1779265371.6564102,2355,1409,8
1779265371.657745,2218,1945,8
1779265371.663302,2099,2215,8
1779265371.664269,2079,1908,8
1779265371.6665988,2109,1691,8
1779265371.6687481,2027,2073,8
1779265371.669315,1988,2063,8
1779265371.671264,2054,1538,8
1779265371.675585,2121,1065,8
1779265371.675927,2038,1520,8
1779265371.6763241,1918,1932,8
1779265371.6789901,1909,1786,8
1779265371.680626,1965,1563,8
1779265371.681834,2002,1852,8
1779265371.684466,2008,1821,8
1779265371.6858082,2124,1441,8
1779265371.688429,2121,914,8
1779265371.695294,2184,1284,8
1779265371.697956,2131,1819,8
1779265371.700293,2073,1930,8
1779265371.700927,2084,1582,8
1779265371.702025,2141,1743,8
1779265371.707627,2027,1927,8
1779265371.7081091,1967,1499,8
1779265371.708458,2127,1198,8
1779265371.7087271,2055,1270,8
1779265371.7106838,2052,1724,8
1779265371.711348,1990,1887,8
1779265371.7114491,2067,1463,8
1779265371.714036,2134,1578,8
1779265371.715358,2040,1911,8
1779265371.7218618,2020,1667,8
1779265371.7240582,2076,989,8
1779265371.725869,2169,835,8
1779265371.72683,2140,1529,8
1779265371.727058,2037,1778,8
1779265371.729106,2007,1559,8
1779265371.736095,2051,1252,8
1779265371.736303,2017,1535,8
1779265371.736417,1889,1693,8
1779265371.7365398,2039,1267,8
1779265371.737848,2223,811,8
1779265371.7404191,2181,1127,8
1779265371.741728,2010,1680,8
1779265371.744303,2008,1703,8
1779265371.745698,2050,1284,8
1779265371.7527559,2099,1596,8
1779265371.753304,1968,1921,8
1779265371.7549498,1969,1555,8
1779265371.755146,2052,1025,8
1779265371.757913,2149,978,8
1779265371.759882,2019,1573,8
1779265371.765013,2078,1893,8
1779265371.768161,2076,1488,8
1779265371.768498,2189,1415,8
1779265371.768589,2088,1886,8
1779265371.768715,2048,1841,8
1779265371.770026,2026,1012,8
1779265371.771381,2222,881,8
1779265371.7778041,2204,1487,8
1779265371.779396,2110,1824,8
1779265371.781579,2036,1652,8
1779265371.7841642,2060,1365,8
1779265371.7852302,1992,1795,8
1779265371.786859,1960,1800,8
1779265371.791082,1988,1421,8
1779265371.7915368,2172,979,8
1779265371.791965,2136,1415,8
1779265371.7939441,2052,1753,8
1779265371.7946959,1908,1967,8
1779265371.796015,1968,1634,8
1779265371.797342,1945,1765,8
1779265371.800144,1974,2064,8
1779265371.80152,2035,1795,8
1779265371.804162,2087,1404,8
1779265371.805774,2216,1124,8
1779265371.8114371,2222,1690,8
1779265371.812016,2148,1845,8
1779265371.815617,2086,1829,8
1779265371.817236,2075,1859,8
1779265371.817906,1989,2128,8
1779265371.818051,1990,1905,8
1779265371.8238878,2078,1441,8
1779265371.8244,2222,1088,8
1779265371.82462,2179,1629,8
1779265371.827295,2034,1861,8
1779265371.8273458,1980,1937,8
1779265371.830045,2006,1726,8
1779265371.831429,2016,2027,8
1779265371.8379111,2027,2233,8
1779265371.83837,2087,1905,8
1779265371.84006,2161,1477,8
1779265371.841933,2156,1785,8
1779265371.842456,2026,2079,8
1779265371.844844,1999,2321,8
1779265371.8495061,2023,2135,8
1779265371.849611,2032,2001,8
1779265371.849866,1976,2238,8
1779265371.851871,2021,1954,8
1779265371.85332,2091,1604,8
1779265371.855911,2103,1523,8
1779265371.857315,1933,2102,8
1779265371.8598652,1875,2247,8
1779265371.862443,2019,2078,8
1779265371.8684092,2125,2064,8
1779265371.869517,2045,2378,8
1779265371.870527,1959,2244,8
1779265371.872406,2038,1973,8
1779265371.874687,2149,1551,8
1779265371.875249,2231,1842,8
1779265371.875823,2186,2277,8
1779265371.882258,2014,2299,8
1779265371.882796,1997,2066,8
1779265371.8831758,1989,2315,8
1779265371.8862238,1962,2277,8
1779265371.886376,2094,2080,8
1779265371.8877518,2247,1700,8
1779265371.890187,2189,1871,8
1779265371.900942,2058,2358,8
1779265371.901542,2010,2527,8
1779265371.902803,2028,2287,8
1779265371.910079,2039,2322,8
1779265371.910687,1991,2505,8
1779265371.913356,2007,2169,8
1779265371.9135401,2090,1745,8
1779265371.9136782,2168,1721,8
1779265371.9137988,2059,2150,8
1779265371.9138749,2003,2404,8
1779265371.913943,2050,2277,8
1779265371.914067,2060,2117,8
1779265371.9154198,2035,2413,8
1779265371.918061,2025,2271,8
1779265371.919522,2106,1938,8
1779265371.922393,2217,1566,8
1779265371.923806,2081,1973,8
1779265371.93343,2024,2269,8
1779265371.9362009,2005,2143,8
1779265371.938503,1999,1914,8
1779265371.94365,1973,2011,8
1779265371.9470751,1927,2004,8
1779265371.9474502,1996,1789,8
1779265371.947594,2217,1340,8
1779265371.9477592,2301,1482,8
1779265371.947838,2182,2060,8
1779265371.947933,2073,2092,8
1779265371.948117,2171,1772,8
1779265371.94822,2208,1790,8
1779265371.949634,2092,2096,8
1779265371.959431,2027,1853,8
1779265371.963369,2122,1492,8
1779265371.971519,2226,1375,8
1779265371.974865,2115,1780,8
1779265371.974978,1984,1968,8
1779265371.975065,1954,1882,8
1779265371.9751859,2038,1713,8
1779265371.9753542,2033,1904,8
1779265371.975463,1926,1802,8
1779265371.975542,2055,1347,8
1779265371.975608,2148,969,8
1779265371.97574,2198,1459,8
1779265371.9758122,2197,1793,8
1779265371.977314,2102,1714,8
1779265371.980108,2143,1507,8
1779265371.981622,2108,1740,8
1779265371.984264,2060,1913,8
1779265371.985548,2042,1649,8
1779265371.997191,1987,1201,8
1779265372.008498,1852,1395,8
1779265372.009347,1558,1750,8
1779265372.00986,1871,1997,8
1779265372.012928,2209,1654,8
1779265372.013231,2258,1685,8
1779265372.01331,2181,2002,8
1779265372.013382,2190,1800,8
1779265372.013576,2319,1355,8
1779265372.01366,2417,1240,8
1779265372.013788,2183,1749,8
1779265372.013896,2013,1910,8
1779265372.013963,2024,1796,8
1779265372.014024,2005,1753,8
1779265372.0153978,1854,1955,8
1779265372.0180118,1916,1781,8
1779265372.026508,2148,1401,8
1779265372.028558,2197,1145,8
1779265372.029205,2150,1484,8
1779265372.029599,2004,1856,8
1779265372.031266,2024,1848,8
1779265372.034563,2131,1633,8
1779265372.042062,2066,1834,8
1779265372.0426822,1985,1880,8
1779265372.04311,2003,1543,8
1779265372.043436,2170,1191,8
1779265372.046703,2191,1436,8
1779265372.04684,2139,1828,8
1779265372.046918,2022,1921,8
1779265372.047076,2013,1742,8
1779265372.047214,1978,1833,8
1779265372.049841,1926,2085,8
1779265372.051212,1940,1876,8
1779265372.053848,2068,1487,8
1779265372.0552058,2172,1459,8
1779265372.057815,2115,1940,8
1779265372.064589,2061,1993,8
1779265372.0690088,2009,1899,8
1779265372.072778,2034,1915,8
1779265372.0754318,1958,2229,8
1779265372.081291,1873,1942,8
1779265372.085053,1999,1450,8
1779265372.0851488,2177,1196,8
1779265372.08529,2166,1551,8
1779265372.0854468,2104,1908,8
1779265372.0855649,2080,1859,8
1779265372.0856938,2102,1730,8
1779265372.085817,2075,1835,8
1779265372.085951,1995,2031,8
1779265372.086018,2003,1839,8
1779265372.0874722,2160,1489,8
1779265372.09042,2188,1722,8
1779265372.0995462,2099,2079,8
1779265372.100109,2024,2126,8
1779265372.102022,2034,1946,8
1779265372.1063192,2058,1958,8
1779265372.1119628,2000,2237,8
1779265372.112596,2006,2048,8
1779265372.11307,2103,1747,8
1779265372.113651,2171,1571,8
1779265372.116726,2069,1954,8
1779265372.116836,2004,2015,8
1779265372.1169128,1973,2005,8
1779265372.117037,1976,1808,8
1779265372.117194,1972,2099,8
1779265372.117295,1984,2084,8
1779265372.119964,2120,1749,8
1779265372.121331,2223,1377,8
1779265372.123832,2157,1774,8
1779265372.1252449,2066,2125,8
1779265372.1279402,2049,2078,8
1779265372.135763,2086,1894,8
1779265372.137038,2058,2102,8
1779265372.139245,1991,2135,8
1779265372.141473,1994,1855,8
1779265372.14222,2115,1379,8
1779265372.143005,2162,1662,8
1779265372.151243,2055,2033,8
1779265372.155194,1990,2152,8
1779265372.156398,2032,1980,8
1779265372.156503,2048,1842,8
1779265372.156606,2000,2263,8
1779265372.156733,1991,2052,8
1779265372.156845,2116,1682,8
1779265372.15692,2161,1523,8
1779265372.1582952,2095,1994,8
1779265372.1596532,2050,2148,8
1779265372.171613,2033,2207,8
1779265372.1721568,2123,2024,8
1779265372.175073,2039,2271,8
1779265372.177971,2002,2161,8
1779265372.1841521,2059,1790,8
1779265372.184549,2182,1531,8
1779265372.18507,2139,1904,8
1779265372.185438,2045,2158,8
1779265372.1858492,1985,2139,8
1779265372.188948,2028,1992,8
1779265372.189261,2040,2197,8
1779265372.189404,1991,2228,8
1779265372.189591,2059,1919,8
1779265372.1896782,2140,1643,8
1779265372.189845,2130,1616,8
1779265372.191224,2022,2024,8
1779265372.19389,1990,2048,8
1779265372.1952949,2067,1936,8
1779265372.197933,2089,2006,8
1779265372.199303,2028,2159,8
1779265372.2090828,1992,1830,8
1779265372.2112482,2084,1510,8
1779265372.214016,2248,1441,8
1779265372.21564,2127,1931,8
1779265372.223979,2036,2027,8
1779265372.224459,2046,1893,8
1779265372.224868,2083,1674,8
1779265372.2285829,2017,1952,8
1779265372.228919,1961,1908,8
1779265372.228988,2053,1631,8
1779265372.2290409,2181,1392,8
1779265372.2290921,2126,1641,8
1779265372.229142,2056,1950,8
1779265372.229246,1993,1938,8
1779265372.229325,2075,1724,8
1779265372.2321138,2053,1917,8
1779265372.233759,2020,1965,8
1779265372.2406669,2019,1650,8
1779265372.241508,2181,1386,8
1779265372.243625,2172,1523,8
1779265372.2440372,2109,1930,8
1779265372.250103,2035,2023,8
1779265372.256583,2027,1764,8
1779265372.259837,2055,1769,8
1779265372.259999,1989,2172,8
1779265372.260153,1994,1866,8
1779265372.260247,2125,1612,8
1779265372.2603111,2185,1481,8
1779265372.260394,2114,1789,8
1779265372.2604501,1996,2060,8
1779265372.261836,1989,2030,8
1779265372.263236,2037,1714,8
1779265372.265864,1993,2173,8
1779265372.2672262,1967,2230,8
1779265372.269831,2056,1939,8
1779265372.271442,2184,1597,8
1779265372.280065,2121,1885,8
1779265372.2835462,2037,2070,8
1779265372.2838771,1991,2234,8
1779265372.287008,2077,2189,8
1779265372.288996,2049,2436,8
1779265372.291208,1945,2536,8
1779265372.297663,1942,2160,8
1779265372.3005178,2102,1979,8
1779265372.301332,2157,2012,8
1779265372.301419,2078,2360,8
1779265372.301517,2025,2644,8
1779265372.301589,2058,2532,8
1779265372.301674,2065,2238,8
1779265372.301839,2004,2521,8
1779265372.301924,2019,2297,8
1779265372.3033988,2091,1864,8
1779265372.306091,2121,1811,8
1779265372.313698,2120,2064,8
1779265372.316722,2035,2128,8
1779265372.3198159,1988,2254,8
1779265372.3290722,2012,1888,8
1779265372.331867,1986,2033,8
1779265372.333291,1992,1963,8
1779265372.3333929,2031,1556,8
1779265372.333486,2134,1375,8
1779265372.333559,2136,1723,8
1779265372.3336298,2065,1924,8
1779265372.333813,2024,2003,8
1779265372.3339121,2050,1931,8
1779265372.334007,2031,1940,8
