timestamp,ch1,ch2,label
1779264119.7681322,2092,1926,u
1779264119.768213,2059,1918,u
1779264119.768363,2068,2102,u
1779264119.7742562,2066,1937,u
1779264119.776242,2011,1731,u
1779264119.7778182,2060,1914,u
1779264119.780305,2140,2458,u
1779264119.780687,2134,2388,u
1779264119.780881,2099,2040,u
1779264119.783055,2058,1868,u
1779264119.7844312,2071,2022,u
1779264119.7870028,2084,2025,u
1779264119.788328,1984,1753,u
1779264119.793482,2020,1873,u
1779264119.794891,2118,2290,u
1779264119.796614,2195,2519,u
1779264119.799083,2118,2120,u
1779264119.7993212,2045,1848,u
1779264119.801787,2016,1919,u
1779264119.803126,2072,2102,u
1779264119.804443,2017,1793,u
1779264119.807007,1998,1853,u
1779264119.808316,2071,2235,u
1779264119.813494,2165,2548,u
1779264119.8139038,2140,2141,u
1779264119.8173912,2082,1825,u
1779264119.819341,2031,1774,u
1779264119.819584,2080,2067,u
1779264119.8219662,2050,1932,u
1779264119.822133,2009,1824,u
1779264119.8245919,2050,2050,u
1779264119.8271759,2155,2469,u
1779264119.828484,2168,2392,u
1779264119.8343701,2104,1991,u
1779264119.8362792,2034,1887,u
1779264119.837622,2061,2018,u
1779264119.8390012,2073,2063,u
1779264119.839963,2003,1734,u
1779264119.8423522,2025,1906,u
1779264119.842454,2094,2287,u
1779264119.8450282,2168,2440,u
1779264119.846432,2127,2105,u
1779264119.849052,2055,1862,u
1779264119.853708,2036,1989,u
1779264119.855111,2080,2079,u
1779264119.85649,2037,1809,u
1779264119.857882,2000,1820,u
1779264119.860398,2081,2221,u
1779264119.860745,2177,2538,u
1779264119.862848,2148,2203,u
1779264119.864595,2041,1897,u
1779264119.867255,2025,1822,u
1779264119.868562,2075,2093,u
1779264119.876694,2060,2019,u
1779264119.878704,2014,1820,u
1779264119.8811789,2045,1980,u
1779264119.8816772,2146,2397,u
1779264119.8819761,2173,2376,u
1779264119.883987,2099,2004,u
1779264119.8841321,2037,1888,u
1779264119.884305,2045,2044,u
1779264119.8867898,2070,2082,u
1779264119.8881621,2010,1751,u
1779264119.890601,2011,1887,u
1779264119.894559,2111,2303,u
1779264119.895823,2184,2490,u
1779264119.899195,2110,2192,u
1779264119.900408,2041,1914,u
1779264119.90158,2041,1931,u
1779264119.9034848,2089,2116,u
1779264119.904799,2026,1813,u
1779264119.9061592,2012,1766,u
1779264119.908726,2067,2138,u
1779264119.910144,2186,2504,u
1779264119.914887,2130,2272,u
1779264119.915781,2057,1881,u
1779264119.917655,2047,1756,u
1779264119.919408,2086,2063,u
1779264119.920685,2032,2018,u
1779264119.923871,1996,1755,u
1779264119.9251819,2059,1945,u
1779264119.926492,2148,2388,u
1779264119.9290628,2161,2345,u
1779264119.930376,2085,2023,u
1779264119.935186,2036,1903,u
1779264119.936011,2053,1991,u
1779264119.936405,2066,2058,u
1779264119.938294,2007,1879,u
1779264119.942179,2013,2046,u
1779264119.9423392,2108,2380,u
1779264119.944631,2148,2371,u
1779264119.94722,2110,2110,u
1779264119.9485261,2044,1900,u
1779264119.950869,2038,1895,u
1779264119.952173,2065,2060,u
1779264119.9568589,2034,1706,u
1779264119.95738,1990,1829,u
1779264119.959507,2061,2196,u
1779264119.9659781,2157,2510,u
1779264119.966083,2157,2171,u
1779264119.9663181,2058,1930,u
1779264119.9664588,2017,1879,u
1779264119.9691122,2061,2173,u
1779264119.970429,2054,2064,u
1779264119.972835,1990,1781,u
1779264119.977176,2051,1993,u
1779264119.97768,2131,2388,u
1779264119.981127,2158,2422,u
1779264119.9816651,2094,2047,u
1779264119.984044,2032,1906,u
1779264119.984245,2043,2089,u
1779264119.987071,2063,2085,u
1779264119.988384,2020,1740,u
1779264119.990954,1996,1809,u
1779264119.992257,2096,2262,u
1779264119.9996219,2168,2521,u
1779264119.99974,2113,2107,u
1779264119.9999092,2041,1956,u
1779264120.001602,2027,1932,u
1779264120.003784,2083,2112,u
1779264120.006579,2034,1809,u
1779264120.0067048,2014,1915,u
1779264120.008126,2075,2199,u
1779264120.010738,2171,2545,u
1779264120.013813,2138,2328,u
1779264120.018111,2066,1948,u
1779264120.018949,2026,1727,u
1779264120.021745,2076,2035,u
1779264120.024758,2057,1940,u
1779264120.024986,2010,1760,u
1779264120.025256,2045,2001,u
1779264120.0274491,2108,2390,u
1779264120.0287528,2158,2438,u
1779264120.03024,2071,2040,u
1779264120.032903,2029,1830,u
1779264120.034223,2025,1958,u
1779264120.037858,2059,2023,u
1779264120.0404742,1994,1766,u
1779264120.041507,2027,1970,u
1779264120.0444102,2094,2314,u
1779264120.04481,2169,2563,u
1779264120.0470028,2139,2237,u
1779264120.048338,2058,1984,u
1779264120.050928,2043,1908,u
1779264120.052237,2093,2110,u
1779264120.054828,2065,1800,u
1779264120.0583522,2031,1803,u
1779264120.059485,2088,2081,u
1779264120.061101,2187,2433,u
1779264120.065182,2189,2187,u
1779264120.06563,2110,1918,u
1779264120.0676181,2074,1883,u
1779264120.068971,2088,2123,u
1779264120.070281,2085,2042,u
1779264120.0728881,2060,1910,u
1779264120.074189,2074,2082,u
1779264120.079038,2189,2396,u
1779264120.081218,2207,2391,u
1779264120.081373,2114,2039,u
1779264120.0832808,2065,1809,u
1779264120.085669,2078,2004,u
1779264120.0878,2094,2094,u
1779264120.0891142,2013,1673,u
1779264120.090417,2026,1824,u
1779264120.093017,2122,2267,u
1779264120.0943239,2188,2471,u
1779264120.0994492,2116,2085,u
1779264120.100577,2058,1885,u
1779264120.1021209,2049,1933,u
1779264120.104894,2088,2146,u
1779264120.106566,2044,1874,u
1779264120.108763,2005,1873,u
1779264120.109068,2076,2145,u
1779264120.110382,2159,2669,u
1779264120.113058,2173,2271,u
1779264120.114569,2065,1858,u
1779264120.1196082,2038,1813,u
1779264120.120814,2062,2033,u
1779264120.1225028,2052,1915,u
1779264120.1236851,2006,1793,u
1779264120.125631,2054,1981,u
1779264120.127135,2142,2441,u
1779264120.1293561,2169,2345,u
1779264120.13103,2108,1945,u
1779264120.132362,2025,1846,u
1779264120.1349351,2065,2034,u
1779264120.136244,2088,2107,u
1779264120.139602,2011,1824,u
1779264120.1420538,2009,1888,u
1779264120.142402,2104,2274,u
1779264120.145391,2154,2552,u
1779264120.1469738,2123,2129,u
1779264120.149194,2035,1915,u
1779264120.1507661,2041,1900,u
1779264120.152123,2077,2079,u
1779264120.154709,2043,1888,u
1779264120.160753,2021,1771,u
1779264120.161568,2059,2100,u
1779264120.161686,2151,2503,u
1779264120.1633122,2151,2231,u
1779264120.1661599,2054,1927,u
1779264120.167816,2027,1876,u
1779264120.17016,2063,2014,u
1779264120.1702049,2044,1936,u
1779264120.1727629,1994,1753,u
1779264120.174144,2041,2010,u
1779264120.1767418,2156,2452,u
1779264120.180358,2166,2448,u
1779264120.180783,2088,2088,u
1779264120.1832771,2053,1894,u
1779264120.185051,2045,1952,u
1779264120.187871,2060,2093,u
1779264120.189964,2005,1854,u
1779264120.19139,1983,1922,u
1779264120.192725,2106,2289,u
1779264120.194156,2168,2500,u
1779264120.196727,2120,2090,u
1779264120.2019231,2060,1823,u
1779264120.202042,2028,1868,u
1779264120.202483,2082,2138,u
1779264120.205674,2036,1902,u
1779264120.2083972,2018,1743,u
1779264120.208586,2090,2151,u
1779264120.210687,2164,2506,u
1779264120.2121532,2150,2230,u
1779264120.215501,2072,1993,u
1779264120.2171881,2033,1827,u
1779264120.219711,2056,2101,u
1779264120.221657,2061,1990,u
1779264120.225502,1997,1838,u
1779264120.226487,2034,2020,u
1779264120.226932,2131,2354,u
1779264120.228835,2151,2355,u
1779264120.233303,2085,2024,u
1779264120.2334101,2030,1925,u
1779264120.235837,2048,2015,u
1779264120.237143,2063,1984,u
1779264120.238456,2000,1697,u
1779264120.24102,1997,1828,u
1779264120.2461262,2081,2264,u
1779264120.2470558,2159,2533,u
1779264120.248374,2108,2125,u
1779264120.24863,2027,1847,u
1779264120.253103,2026,1870,u
1779264120.253354,2075,2124,u
1779264120.255585,2058,1946,u
1779264120.257004,2005,1896,u
1779264120.258413,2070,2125,u
1779264120.2608461,2167,2473,u
1779264120.2621708,2154,2261,u
1779264120.26753,2063,1975,u
1779264120.269144,2023,1890,u
1779264120.2703848,2066,2026,u
1779264120.2737339,2028,1967,u
1779264120.274219,1989,1794,u
1779264120.276139,2019,1933,u
1779264120.27676,2112,2394,u
1779264120.2782028,2154,2365,u
1779264120.28102,2091,2030,u
1779264120.282399,2020,1861,u
1779264120.288795,2047,1935,u
1779264120.289147,2066,2064,u
1779264120.291755,2001,1789,u
1779264120.2919738,2009,1873,u
1779264120.293752,2091,2265,u
1779264120.29603,2169,2441,u
1779264120.296246,2125,2121,u
1779264120.2991092,2037,1837,u
1779264120.300351,2011,1817,u
1779264120.3026829,2043,2053,u
1779264120.306533,2024,1849,u
1779264120.307636,1992,1804,u
1779264120.309404,2033,2151,u
1779264120.3140218,2136,2516,u
1779264120.314516,2119,2269,u
1779264120.316722,2040,1933,u
1779264120.3169432,2006,1885,u
1779264120.318259,2066,2039,u
1779264120.320838,2010,1966,u
1779264120.322026,1966,1801,u
1779264120.327837,2012,1962,u
1779264120.329494,2099,2328,u
1779264120.329794,2141,2398,u
1779264120.334342,2048,2105,u
1779264120.334583,1988,1911,u
1779264120.33488,1992,1963,u
1779264120.3372748,2036,2058,u
1779264120.338372,1972,1768,u
1779264120.3409479,1986,1798,u
1779264120.342259,2071,2274,u
1779264120.3501859,2151,2565,u
1779264120.3530161,2080,2178,u
1779264120.353157,2032,1847,u
1779264120.354937,2006,1871,u
1779264120.355152,2060,2147,u
1779264120.35743,2011,1905,u
1779264120.3575292,1993,1787,u
1779264120.358837,2053,2127,u
1779264120.3601868,2147,2549,u
1779264120.362914,2161,2403,u
1779264120.369005,2066,1963,u
1779264120.369431,2052,1886,u
1779264120.370899,2035,1960,u
1779264120.372304,2054,1980,u
1779264120.3755221,1991,1842,u
1779264120.3757849,2002,1971,u
1779264120.37786,2126,2351,u
1779264120.379531,2158,2468,u
1779264120.3808692,2077,2066,u
1779264120.382333,2021,1867,u
1779264120.3884218,2037,1967,u
1779264120.3892941,2075,2078,u
1779264120.3909981,2000,1768,u
1779264120.392498,2004,1842,u
1779264120.395896,2084,2238,u
1779264120.396121,2160,2435,u
1779264120.3962991,2098,2102,u
1779264120.398953,2045,1914,u
1779264120.400264,2027,1944,u
1779264120.402645,2080,2156,u
1779264120.408525,2034,2014,u
1779264120.409504,2010,1906,u
1779264120.409908,2072,2080,u
1779264120.414013,2149,2484,u
1779264120.4159591,2141,2257,u
1779264120.416129,2067,1930,u
1779264120.41632,2020,1826,u
1779264120.4185889,2052,2035,u
1779264120.421134,2064,1938,u
1779264120.4224782,2007,1723,u
1779264120.424961,2046,1950,u
1779264120.429357,2121,2371,u
1779264120.4297779,2169,2444,u
1779264120.43213,2107,2075,u
1779264120.432999,2027,1883,u
1779264120.436049,2029,1976,u
1779264120.436279,2067,2099,u
1779264120.439211,2001,1770,u
1779264120.440516,2023,1868,u
1779264120.4430988,2094,2303,u
1779264120.444405,2164,2593,u
1779264120.449535,2123,2218,u
1779264120.450443,2063,1903,u
1779264120.452241,2014,1830,u
1779264120.4526122,2075,2142,u
1779264120.457313,2042,1798,u
1779264120.4574988,2006,1791,u
1779264120.459711,2047,2124,u
1779264120.461144,2133,2501,u
1779264120.462611,2144,2227,u
1779264120.4652789,2088,1849,u
1779264120.469291,2032,1790,u
1779264120.470152,2051,2083,u
1779264120.470295,2050,2049,u
1779264120.4725802,1998,1777,u
1779264120.4746711,2035,1989,u
1779264120.4780679,2121,2408,u
1779264120.478306,2151,2467,u
1779264120.480649,2073,2086,u
1779264120.483222,2051,1830,u
1779264120.484604,2042,1955,u
1779264120.490299,2066,2078,u
1779264120.4915469,2017,1730,u
1779264120.493022,2027,1841,u
1779264120.494602,2088,2134,u
1779264120.498244,2150,2462,u
1779264120.498641,2126,2175,u
1779264120.4988391,2058,1886,u
1779264120.501039,2037,1879,u
1779264120.502377,2058,2107,u
1779264120.505465,2027,1923,u
1779264120.506986,1983,1886,u
1779264120.514508,2061,2153,u
1779264120.518878,2151,2589,u
1779264120.51958,2149,2343,u
1779264120.5221078,2064,1981,u
1779264120.52224,2036,1829,u
1779264120.5223749,2058,2102,u
1779264120.52245,2065,2012,u
1779264120.52293,1975,1759,u
1779264120.524329,2033,1967,u
1779264120.526975,2129,2323,u
1779264120.534671,2190,2352,u
1779264120.53822,2098,2092,u
1779264120.5412962,2033,2002,u
1779264120.541634,2050,2022,u
1779264120.5419788,2080,2074,u
1779264120.54219,2029,1848,u
1779264120.543912,2017,1904,u
1779264120.5447109,2103,2303,u
1779264120.544835,2193,2589,u
1779264120.546197,2130,2168,u
1779264120.5488698,2058,1938,u
1779264120.553714,2062,1929,u
1779264120.553914,2062,2140,u
1779264120.555063,2054,1890,u
1779264120.563072,2009,1788,u
1779264120.5640771,2044,2127,u
1779264120.5664299,2172,2591,u
1779264120.566797,2157,2387,u
1779264120.566932,2087,1940,u
1779264120.5670521,2026,1764,u
1779264120.5684102,2046,2075,u
1779264120.57104,2082,1994,u
1779264120.576735,2005,1735,u
1779264120.5818791,2036,2015,u
1779264120.583533,2141,2471,u
1779264120.5862248,2180,2447,u
1779264120.587133,2091,2063,u
1779264120.589399,2033,1835,u
1779264120.5895119,2034,1966,u
1779264120.589628,2052,2087,u
1779264120.5897658,2020,1787,u
1779264120.591263,2006,1895,u
1779264120.592629,2067,2243,u
1779264120.5941749,2153,2509,u
1779264120.601923,2111,2172,u
1779264120.604992,2033,1966,u
1779264120.606475,2030,1972,u
1779264120.6096551,2066,2237,u
1779264120.6103702,2036,1954,u
1779264120.612927,2012,1765,u
1779264120.6132648,2055,2046,u
1779264120.613345,2140,2525,u
1779264120.613409,2129,2330,u
1779264120.614793,2091,1938,u
1779264120.6193469,2037,1894,u
1779264120.623347,2028,2082,u
1779264120.629993,2041,1972,u
1779264120.630534,1982,1778,u
1779264120.633266,2010,2085,u
1779264120.633363,2117,2385,u
1779264120.633478,2163,2470,u
1779264120.633599,2106,2050,u
1779264120.633725,2043,1897,u
1779264120.635123,2036,2011,u
1779264120.636398,2095,2134,u
1779264120.6458519,2044,1867,u
1779264120.649516,2039,1955,u
1779264120.65267,2117,2333,u
1779264120.653219,2165,2538,u
1779264120.6560519,2154,2253,u
1779264120.656407,2067,2074,u
1779264120.6566541,2042,1977,u
1779264120.656769,2092,2136,u
1779264120.65687,2069,1874,u
1779264120.6569211,2014,1822,u
1779264120.658432,2076,2117,u
1779264120.6611001,2180,2568,u
1779264120.666445,2189,2416,u
1779264120.6685922,2104,2094,u
1779264120.668882,2055,1896,u
1779264120.670849,2081,2098,u
1779264120.67218,2081,2074,u
1779264120.674764,2038,1819,u
1779264120.6748438,2067,1941,u
1779264120.677218,2124,2374,u
1779264120.678546,2189,2443,u
1779264120.680219,2116,2079,u
1779264120.6827981,2075,1876,u
1779264120.687278,2044,1971,u
1779264120.688156,2093,2141,u
1779264120.689651,2055,1910,u
1779264120.6915898,2028,1895,u
1779264120.6953862,2104,2292,u
1779264120.6955929,2177,2570,u
1779264120.698049,2137,2145,u
1779264120.698171,2072,1883,u
1779264120.700759,2039,1903,u
1779264120.702071,2087,2147,u
1779264120.707416,2064,1941,u
1779264120.707863,2026,1868,u
1779264120.709756,2067,2221,u
1779264120.7117481,2174,2566,u
1779264120.71843,2181,2361,u
1779264120.718518,2103,1926,u
1779264120.71856,2066,1903,u
1779264120.718642,2091,2148,u
1779264120.720042,2073,2010,u
1779264120.7226398,2012,1732,u
1779264120.727353,2014,1985,u
1779264120.7283661,2129,2433,u
1779264120.730904,2196,2535,u
1779264120.7311711,2136,2139,u
1779264120.733335,2064,1900,u
1779264120.734849,2038,1976,u
1779264120.7376058,2121,2083,u
1779264120.740125,2068,1749,u
1779264120.740177,2018,1832,u
1779264120.742754,2119,2239,u
1779264120.74821,2200,2583,u
1779264120.748725,2170,2206,u
1779264120.749293,2066,1912,u
1779264120.7533681,2056,1949,u
1779264120.753938,2085,2208,u
1779264120.754096,2077,2017,u
1779264120.757906,2034,1890,u
1779264120.758136,2094,2144,u
1779264120.7604191,2184,2473,u
1779264120.763266,2194,2307,u
1779264120.7646542,2117,2031,u
1779264120.781164,2064,1910,u
1779264120.7817118,2102,2018,u
1779264120.7817888,2099,2084,u
1779264120.781857,2039,1911,u
1779264120.7819252,2070,2087,u
1779264120.7820292,2146,2454,u
1779264120.782125,2207,2550,u
1779264120.7822049,2143,2148,u
1779264120.782271,2089,1909,u
1779264120.784968,2065,1950,u
1779264120.786641,2114,2190,u
1779264120.792788,2063,1947,u
1779264120.792923,2072,1953,u
1779264120.79322,2152,2314,u
1779264120.7950048,2219,2654,u
1779264120.799216,2187,2179,u
1779264120.799616,2091,1986,u
1779264120.802017,2095,2001,u
1779264120.8021498,2142,2183,u
1779264120.80482,2091,2051,u
1779264120.8062038,2060,1882,u
1779264120.8115351,2128,2119,u
1779264120.8127732,2194,2582,u
1779264120.814485,2199,2456,u
1779264120.816473,2140,2077,u
1779264120.820485,2083,2021,u
1779264120.820992,2109,2142,u
1779264120.8214028,2110,2028,u
1779264120.823637,2058,1830,u
1779264120.824954,2081,2074,u
1779264120.8263621,2178,2568,u
1779264120.829088,2239,2641,u
1779264120.834629,2171,2212,u
1779264120.836194,2107,1817,u
1779264120.837826,2078,1925,u
1779264120.8394518,2125,2184,u
1779264120.842247,2100,1915,u
1779264120.84254,2046,1905,u
1779264120.842902,2138,2240,u
1779264120.845181,2253,2617,u
1779264120.846687,2193,2296,u
1779264120.8491142,2121,2023,u
1779264120.85045,2096,2015,u
1779264120.8547661,2131,2291,u
1779264120.856027,2117,2097,u
1779264120.8575401,2068,1935,u
1779264120.860715,2121,2165,u
1779264120.865963,2218,2665,u
1779264120.866747,2232,2536,u
1779264120.866792,2147,2139,u
1779264120.86694,2088,1996,u
1779264120.868275,2134,2193,u
1779264120.870945,2123,2187,u
1779264120.875914,2081,1939,u
1779264120.877302,2125,2042,u
1779264120.8788779,2182,2486,u
1779264120.881417,2254,2674,u
1779264120.882821,2170,2252,u
1779264120.8831239,2127,1957,u
1779264120.8883379,2118,2097,u
1779264120.888561,2157,2304,u
1779264120.8886359,2104,1989,u
1779264120.8899899,2084,2026,u
1779264120.8926458,2147,2399,u
1779264120.900084,2261,2731,u
1779264120.901338,2210,2447,u
1779264120.901921,2141,2118,u
1779264120.903635,2125,2165,u
1779264120.906377,2141,2460,u
1779264120.9065118,2141,2131,u
1779264120.906742,2104,2075,u
1779264120.909281,2153,2337,u
1779264120.910597,2269,2681,u
1779264120.912006,2257,2574,u
1779264120.918848,2179,2212,u
1779264120.9189482,2158,2112,u
1779264120.9199,2184,2281,u
1779264120.92132,2213,2187,u
1779264120.9227781,2120,2058,u
1779264120.9272032,2146,2248,u
1779264120.9274728,2249,2611,u
1779264120.929962,2304,2738,u
1779264120.930222,2248,2361,u
1779264120.932956,2155,2160,u
1779264120.9343302,2166,2242,u
1779264120.939699,2222,2474,u
1779264120.940543,2188,2051,u
1779264120.9424262,2168,2077,u
1779264120.9426298,2236,2493,u
1779264120.944461,2347,2864,u
1779264120.948142,2278,2438,u
1779264120.9483268,2202,2148,u
1779264120.950443,2201,2156,u
1779264120.9530282,2249,2451,u
1779264120.954526,2199,2203,u
1779264120.959628,2135,2075,u
1779264120.960434,2192,2421,u
1779264120.962275,2328,2804,u
1779264120.9640021,2325,2626,u
1779264120.965622,2257,2245,u
1779264120.968144,2179,2114,u
1779264120.9682932,2205,2290,u
1779264120.970515,2223,2291,u
1779264120.973035,2186,2084,u
1779264120.974345,2183,2269,u
1779264120.980451,2307,2624,u
1779264120.9809139,2325,2717,u
1779264120.982613,2262,2427,u
1779264120.98277,2221,2170,u
1779264120.985599,2210,2208,u
1779264120.988105,2233,2324,u
1779264120.988391,2185,1942,u
1779264120.990606,2160,2107,u
1779264120.991998,2209,2570,u
1779264120.994571,2340,2849,u
1779264121.0000849,2304,2389,u
1779264121.0005271,2199,2038,u
1779264121.001649,2167,2194,u
1779264121.00417,2224,2376,u
1779264121.005557,2212,2209,u
1779264121.008128,2163,2029,u
1779264121.008298,2219,2354,u
1779264121.0103831,2308,2791,u
1779264121.01296,2314,2573,u
1779264121.014303,2213,2288,u
1779264121.01689,2176,2136,u
1779264121.021271,2190,2274,u
1779264121.023045,2217,2281,u
1779264121.0232399,2147,1989,u
1779264121.0287051,2156,2053,u
1779264121.028932,2239,2523,u
1779264121.029116,2328,2654,u
1779264121.031452,2251,2214,u
1779264121.032758,2184,1997,u
1779264121.0340621,2184,2136,u
1779264121.036622,2214,2294,u
1779264121.0414982,2146,1974,u
1779264121.04227,2137,2017,u
1779264121.0436878,2206,2311,u
1779264121.049015,2280,2727,u
1779264121.0494761,2252,2371,u
1779264121.0496619,2170,2135,u
1779264121.05175,2139,2019,u
1779264121.053098,2188,2171,u
1779264121.054506,2167,2144,u
1779264121.05598,2121,1967,u
1779264121.061357,2160,2188,u
1779264121.0625439,2249,2557,u
1779264121.065917,2255,2432,u
1779264121.067395,2174,2072,u
1779264121.070195,2138,1908,u
1779264121.070517,2133,2079,u
1779264121.072743,2156,2037,u
1779264121.072885,2113,1745,u
1779264121.074251,2120,1931,u
1779264121.076829,2212,2378,u
1779264121.082146,2268,2502,u
1779264121.084407,2177,2106,u
1779264121.0873,2136,1943,u
1779264121.089857,2120,2003,u
1779264121.0901601,2160,2241,u
1779264121.0904808,2073,1873,u
1779264121.092053,2074,1887,u
1779264121.0925791,2152,2294,u
1779264121.09407,2242,2629,u
1779264121.096747,2199,2293,u
1779264121.098197,2117,1892,u
1779264121.102769,2094,1863,u
1779264121.10465,2145,2042,u
1779264121.106383,2122,1969,u
1779264121.107661,2086,1854,u
1779264121.1104078,2100,2081,u
1779264121.110551,2208,2446,u
1779264121.112718,2231,2342,u
1779264121.1141279,2153,2019,u
1779264121.116736,2100,1854,u
1779264121.11804,2115,2055,u
1779264121.1233852,2108,2039,u
1779264121.124795,2052,1788,u
1779264121.126056,2087,1993,u
1779264121.130891,2198,2365,u
1779264121.1325388,2238,2565,u
1779264121.13308,2138,2158,u
1779264121.13319,2094,1967,u
1779264121.134492,2104,2039,u
1779264121.175786,2135,2233,u
1779264121.1759942,2091,1877,u
1779264121.1761332,2060,1830,u
1779264121.1762738,2135,2146,u
1779264121.176409,2232,2589,u
1779264121.176499,2202,2261,u
1779264121.176576,2129,2015,u
1779264121.176663,2109,1916,u
1779264121.1767209,2123,2094,u
1779264121.17679,2136,1965,u
1779264121.176875,2073,1910,u
1779264121.176917,2109,2112,u
1779264121.176957,2195,2510,u
1779264121.176998,2203,2358,u
1779264121.1770391,2130,1980,u
1779264121.177079,2084,1889,u
1779264121.177119,2105,2091,u
1779264121.177173,2114,2172,u
1779264121.177217,2065,1866,u
1779264121.177266,2068,1981,u
1779264121.177307,2166,2358,u
1779264121.1786282,2234,2475,u
1779264121.180068,2176,2107,u
1779264121.189267,2091,1922,u
1779264121.18946,2095,1973,u
1779264121.189705,2138,2137,u
1779264121.190808,2093,1892,u
1779264121.191911,2081,1961,u
1779264121.196264,2147,2336,u
1779264121.198295,2226,2690,u
1779264121.1989582,2200,2263,u
1779264121.1990101,2117,1958,u
1779264121.200331,2082,1928,u
1779264121.202924,2120,2175,u
1779264121.204243,2118,2049,u
1779264121.2094789,2057,1883,u
1779264121.211488,2091,2115,u
1779264121.214456,2188,2574,u
1779264121.21744,2221,2455,u
1779264121.217599,2135,2054,u
1779264121.217748,2098,1917,u
1779264121.220196,2116,2038,u
1779264121.2202811,2122,2063,u
1779264121.22286,2073,1770,u
1779264121.2241752,2083,1971,u
1779264121.228739,2169,2406,u
1779264121.231078,2242,2604,u
1779264121.231356,2170,2219,u
1779264121.233021,2113,1979,u
1779264121.236533,2087,2030,u
1779264121.2367308,2145,2110,u
1779264121.2384682,2055,1909,u
1779264121.2410471,2071,1778,u
1779264121.242361,2120,2261,u
1779264121.244956,2211,2622,u
1779264121.248812,2205,2314,u
1779264121.2496681,2130,1931,u
1779264121.251654,2059,1894,u
1779264121.253427,2125,2117,u
1779264121.256948,2124,2031,u
1779264121.257189,2064,1886,u
1779264121.2593112,2104,2124,u
1779264121.260619,2206,2466,u
1779264121.2623308,2224,2393,u
1779264121.2649422,2153,2051,u
1779264121.269971,2081,1885,u
1779264121.270439,2107,2031,u
1779264121.2708569,2132,2156,u
1779264121.274025,2073,1874,u
1779264121.2757041,2089,2001,u
1779264121.2806761,2188,2411,u
1779264121.281503,2226,2485,u
1779264121.281614,2139,2130,u
1779264121.2829351,2081,1975,u
1779264121.28437,2092,1986,u
1779264121.29306,2147,2137,u
1779264121.293822,2073,1818,u
1779264121.294952,2070,1921,u
1779264121.299516,2133,2263,u
1779264121.300011,2236,2577,u
1779264121.300276,2205,2302,u
1779264121.3003168,2130,2009,u
1779264121.3003929,2083,2011,u
1779264121.302996,2130,2171,u
1779264121.3043141,2110,1988,u
1779264121.3104682,2062,1804,u
1779264121.311636,2081,2046,u
1779264121.315134,2205,2512,u
1779264121.316565,2231,2464,u
1779264121.3194351,2142,1946,u
1779264121.3198001,2088,1830,u
1779264121.321964,2113,2057,u
1779264121.3222,2148,2128,u
1779264121.322332,2071,1929,u
1779264121.324707,2082,1884,u
1779264121.326015,2144,2283,u
1779264121.332764,2208,2510,u
1779264121.334542,2146,2130,u
1779264121.3365078,2098,1897,u
1779264121.34053,2071,1942,u
1779264121.340757,2127,2177,u
1779264121.340972,2057,1935,u
1779264121.341151,2049,1896,u
1779264121.343394,2122,2168,u
1779264121.344728,2215,2621,u
1779264121.346046,2189,2236,u
1779264121.3488908,2105,2015,u
1779264121.3526468,2064,1944,u
1779264121.3535738,2092,2172,u
1779264121.3553689,2097,1905,u
1779264121.3611,2055,1711,u
1779264121.361589,2089,1968,u
1779264121.361752,2172,2499,u
1779264121.364256,2202,2381,u
1779264121.364342,2144,1988,u
1779264121.366986,2072,1758,u
1779264121.368308,2073,1875,u
1779264121.373586,2107,1901,u
1779264121.375683,2041,1733,u
1779264121.375891,2040,1889,u
1779264121.3778691,2128,2272,u
1779264121.379204,2215,2439,u
1779264121.3820002,2123,1999,u
1779264121.382324,2065,1802,u
1779264121.384726,2077,1891,u
1779264121.3860748,2092,2018,u
1779264121.388542,2060,1813,u
1779264121.393203,2022,1838,u
1779264121.3975549,2106,2046,u
1779264121.3985121,2176,2465,u
1779264121.402431,2170,2178,u
1779264121.402785,2095,1900,u
1779264121.403132,2050,1734,u
1779264121.403451,2126,2039,u
1779264121.4066439,2082,1969,u
1779264121.406687,2003,1687,u
1779264121.408003,2057,1922,u
1779264121.4104261,2142,2340,u
1779264121.415242,2146,2267,u
1779264121.41578,2101,2004,u
1779264121.41903,2051,1781,u
1779264121.42275,2037,1948,u
1779264121.422961,2048,1901,u
1779264121.423119,2005,1617,u
1779264121.4253912,2050,1796,u
1779264121.426697,2108,2177,u
1779264121.4281101,2172,2339,u
1779264121.43078,2111,1912,u
1779264121.434857,2046,1776,u
1779264121.436985,2038,1772,u
1779264121.437155,2054,1881,u
1779264121.4389381,2001,1613,u
1779264121.442667,1995,1614,u
1779264121.442941,2062,1981,u
1779264121.444976,2164,2381,u
1779264121.446553,2134,2080,u
1779264121.4492228,2042,1753,u
1779264121.4505339,2011,1813,u
1779264121.4550211,2053,1940,u
1779264121.455411,2066,1814,u
1779264121.4574568,1991,1648,u
1779264121.4592588,2009,1901,u
1779264121.4652538,2109,2322,u
1779264121.4659572,2146,2224,u
1779264121.466002,2060,1811,u
1779264121.4660401,2006,1658,u
1779264121.4686239,2028,1760,u
1779264121.469932,2062,1780,u
1779264121.4748049,2016,1519,u
1779264121.475688,2007,1662,u
1779264121.4777842,2080,2049,u
1779264121.479502,2150,2284,u
1779264121.483205,2110,1907,u
1779264121.483339,2037,1617,u
1779264121.4854772,2007,1614,u
1779264121.4868329,2039,1886,u
1779264121.4881432,2002,1551,u
1779264121.4907131,1994,1545,u
1779264121.4949372,2061,1925,u
1779264121.4954062,2111,2351,u
1779264121.4979799,2112,1921,u
1779264121.498139,2041,1641,u
1779264121.501052,2020,1613,u
1779264121.503544,2015,1769,u
1779264121.506158,2025,1756,u
1779264121.5063229,1990,1482,u
1779264121.508935,1997,1800,u
1779264121.51025,2117,2240,u
1779264121.516613,2151,2079,u
1779264121.517035,2064,1635,u
1779264121.517119,1984,1619,u
1779264121.518817,1994,1735,u
1779264121.521586,2045,1908,u
1779264121.5241568,1972,1500,u
1779264121.524391,2012,1651,u
1779264121.5264452,2076,2187,u
1779264121.528925,2175,2409,u
1779264121.530241,2103,1981,u
1779264121.535697,2018,1653,u
1779264121.538701,2007,1801,u
1779264121.538956,2056,1893,u
1779264121.543916,2027,1643,u
1779264121.544327,1968,1644,u
1779264121.544599,2052,1961,u
1779264121.544777,2134,2272,u
1779264121.546976,2117,2043,u
1779264121.5482829,2057,1826,u
1779264121.550859,2023,1837,u
1779264121.5521688,2059,1964,u
1779264121.556979,2052,1673,u
1779264121.559075,1994,1667,u
1779264121.5606852,2009,1835,u
1779264121.566859,2119,2252,u
1779264121.567443,2132,2303,u
1779264121.5675578,2066,1924,u
1779264121.567658,2013,1724,u
1779264121.568876,2040,1896,u
1779264121.57024,2060,1981,u
1779264121.572644,2007,1689,u
1779264121.576925,2026,1853,u
1779264121.577663,2108,2245,u
1779264121.579236,2199,2488,u
1779264121.5847838,2141,2071,u
1779264121.584951,2085,1823,u
1779264121.5851781,2049,1804,u
1779264121.5874429,2100,2031,u
1779264121.5888262,2052,1680,u
1779264121.5901382,2023,1714,u
1779264121.592702,2076,2089,u
1779264121.598194,2173,2513,u
1779264121.5992188,2128,2178,u
1779264121.600651,2057,1818,u
1779264121.600825,2016,1726,u
1779264121.603769,2063,1969,u
1779264121.606542,2050,1864,u
1779264121.606673,2006,1667,u
1779264121.608963,2046,1909,u
1779264121.610306,2149,2279,u
1779264121.6128798,2175,2272,u
1779264121.618009,2094,1865,u
1779264121.62,2043,1673,u
1779264121.621873,2057,1800,u
1779264121.623083,2084,1871,u
1779264121.6257448,1998,1571,u
1779264121.626,2022,1680,u
1779264121.626295,2090,2090,u
1779264121.6285498,2181,2327,u
1779264121.629983,2134,1847,u
1779264121.632583,2032,1575,u
1779264121.633919,2022,1558,u
1779264121.638325,2073,1750,u
1779264121.6391308,2027,1457,u
1779264121.643104,2006,1530,u
1779264121.645998,2066,1732,u
1779264121.648138,2142,2089,u
1779264121.648607,2114,1839,u
1779264121.648858,2057,1493,u
1779264121.6503181,2004,1441,u
1779264121.6529112,2056,1687,u
1779264121.654218,2042,1516,u
1779264121.659223,2001,1402,u
1779264121.660726,2051,1497,u
1779264121.660874,2128,2005,u
1779264121.663748,2143,1968,u
1779264121.66642,2085,1567,u
1779264121.6666071,2001,1360,u
1779264121.668809,2077,1561,u
1779264121.670122,2051,1600,u
1779264121.672703,1996,1270,u
1779264121.674002,2016,1538,u
1779264121.678594,2085,1793,u
1779264121.679025,2152,2086,u
1779264121.681053,2084,1734,u
1779264121.6828191,2041,1477,u
1779264121.6862788,2019,1448,u
1779264121.686477,2049,1635,u
1779264121.68885,2025,1392,u
1779264121.690156,1983,1518,u
1779264121.692666,2043,1635,u
1779264121.693878,2135,2083,u
1779264121.69915,2118,1882,u
1779264121.699971,2074,1523,u
1779264121.7016761,2018,1422,u
1779264121.703495,2069,1642,u
1779264121.7073169,2119,1516,u
1779264121.707509,2059,1401,u
1779264121.7096572,2081,1547,u
1779264121.710933,2169,2099,u
1779264121.712267,2183,2118,u
1779264121.714622,2117,1736,u
1779264121.72059,2052,1560,u
1779264121.722519,2071,1724,u
1779264121.7241821,2025,1837,u
1779264121.7260318,1975,1583,u
1779264121.729024,2003,1609,u
1779264121.729365,2161,2051,u
1779264121.729646,2193,2377,u
1779264121.732287,2038,1967,u
1779264121.732673,1951,1625,u
1779264121.7340422,2072,1566,u
1779264121.736693,2122,2205,u
1779264121.744757,2079,1987,u
1779264121.7510242,2015,1616,u
1779264121.751348,2125,1909,u
1779264121.7518332,2244,2351,u
1779264121.752182,2090,2230,u
1779264121.754594,2116,1915,u
1779264121.7548668,2242,1828,u
1779264121.754967,2203,2067,u
1779264121.755039,2077,1812,u
1779264121.756442,2034,1599,u
1779264121.7590861,2055,1893,u
1779264121.767667,2134,2312,u
1779264121.7692008,2220,2324,u
1779264121.770258,2322,2069,u
1779264121.7743301,2170,1809,u
1779264121.7748191,2111,1773,u
1779264121.775367,1934,1641,u
1779264121.775715,1916,1802,u
1779264121.7759051,1989,2487,u
1779264121.776167,2255,2269,u
1779264121.7787032,2279,2375,u
1779264121.780086,2134,2140,u
1779264121.786857,1938,1816,u
1779264121.7905111,1996,1783,u
1779264121.794673,1985,2106,u
1779264121.795528,2030,1967,u
1779264121.797874,1979,2030,u
1779264121.798711,2007,2044,u
1779264121.798857,2017,2266,u
1779264121.798927,2289,2205,u
1779264121.7989912,2197,2401,u
1779264121.8003561,2065,2180,u
1779264121.803083,2040,2122,u
1779264121.804589,2124,1760,u
1779264121.810057,1973,2051,u
1779264121.810334,1938,2369,u
1779264121.816664,2049,2935,u
1779264121.819886,2045,3059,u
1779264121.8224142,1952,2678,u
1779264121.8226519,2004,2545,u
1779264121.82351,1991,3143,u
1779264121.823591,1934,3488,u
1779264121.823704,2005,3308,u
1779264121.825105,1943,3594,u
1779264121.83373,2016,4095,u
1779264121.8399591,1982,4075,u
1779264121.840548,1958,3162,u
1779264121.8410501,1890,2826,u
1779264121.843508,1887,3146,u
1779264121.8442822,1956,3872,u
1779264121.844358,1973,4095,u
1779264121.8444989,1900,4095,u
1779264121.844578,1884,4095,u
1779264121.844705,1980,4095,u
1779264121.84615,1867,3758,u
1779264121.848809,1820,3387,u
1779264121.8567429,1822,3408,u
1779264121.8573902,1768,3747,u
1779264121.859613,1794,4095,u
1779264121.8640058,1801,4095,u
1779264121.864983,1975,4095,u
1779264121.867747,2029,4095,u
1779264121.867871,2038,4067,u
1779264121.867973,1915,3802,u
1779264121.86807,1895,3707,u
1779264121.868178,1864,3808,u
1779264121.875307,1838,4022,u
1779264121.8774478,1811,4095,u
1779264121.8791769,1838,4095,u
1779264121.881357,1969,4095,u
1779264121.8816729,2014,4095,u
1779264121.8850849,1808,3996,u
1779264121.885557,1793,3900,u
1779264121.8860438,1850,3904,u
1779264121.888818,1981,3990,u
1779264121.889143,1987,4095,u
1779264121.8904169,1731,4095,u
1779264121.892972,1818,4095,u
1779264121.89409,2009,4095,u
1779264121.900527,1925,4076,u
1779264121.903046,1777,4007,u
1779264121.9049861,1959,3980,u
1779264121.90717,2006,4008,u
1779264121.910679,1852,4061,u
1779264121.91118,1809,4095,u
1779264121.911493,1843,4095,u
1779264121.911842,1933,4095,u
1779264121.914597,2015,4095,u
1779264121.91479,2116,4051,u
1779264121.9161952,1849,4023,u
1779264121.924566,1693,4015,u
1779264121.931275,1838,3711,u
1779264121.931775,1851,2981,u
1779264121.932344,1867,3026,u
1779264121.934945,1924,3014,u
1779264121.9358258,2075,3629,u
1779264121.9359229,2007,3625,u
1779264121.936082,1867,3369,u
1779264121.936129,1922,3346,u
1779264121.936227,1926,3010,u
1779264121.938957,1944,2683,u
1779264121.940363,1953,2513,u
1779264121.946899,1994,2580,u
1779264121.947807,2007,2982,u
1779264121.949986,1916,3141,u
1779264121.951581,1911,3028,u
1779264121.954035,2044,3001,u
1779264121.9575198,2045,3107,u
1779264121.957908,2023,2896,u
1779264121.9583921,1797,2611,u
1779264121.958959,2000,2611,u
1779264121.961776,2075,2746,u
1779264121.961898,2101,2712,u
1779264121.969026,2018,2499,u
1779264121.970777,1938,2278,u
1779264121.972769,2046,2339,u
1779264121.974231,1934,2369,u
1779264121.974954,1949,2240,u
1779264121.977076,2014,2292,u
1779264121.9805079,1970,2387,u
1779264121.981189,2238,2539,u
1779264121.9835289,2001,2428,u
1779264121.98436,2018,2231,u
1779264121.984482,2032,2293,u
1779264121.985933,2077,2323,u
1779264121.98864,1957,2133,u
1779264121.994758,1761,2005,u
1779264122.000025,1969,2038,u
1779264122.0006971,2120,2414,u
1779264122.0009432,2088,2353,u
1779264122.002625,2167,2251,u
1779264122.005837,1936,2149,u
1779264122.006166,2004,2138,u
1779264122.006613,2088,2132,u
1779264122.0071812,2026,2028,u
1779264122.009774,2117,2009,u
1779264122.010064,2042,2202,u
1779264122.013073,2097,2192,u
1779264122.017508,2030,1930,u
1779264122.018244,1955,1902,u
1779264122.019024,1941,1923,u
1779264122.021253,1936,1989,u
1779264122.024854,1955,1847,u
1779264122.028179,1993,1876,u
1779264122.030496,2094,2097,u
1779264122.031581,2132,2240,u
1779264122.031756,2110,1938,u
1779264122.031831,2100,1848,u
1779264122.034434,2115,1828,u
1779264122.0358431,2091,2045,u
1779264122.045325,2017,1963,u
1779264122.04774,1961,1856,u
1779264122.052613,2130,2006,u
1779264122.053062,2084,2085,u
1779264122.053393,2015,2010,u
1779264122.053836,1970,1945,u
1779264122.0566888,2049,1945,u
1779264122.056837,2041,1879,u
1779264122.0569441,2089,1861,u
1779264122.056993,2017,1864,u
1779264122.0583959,1997,2000,u
1779264122.065218,2027,2107,u
1779264122.067327,2167,2148,u
1779264122.0692139,2087,1840,u
1779264122.07006,1980,1726,u
1779264122.0749419,1980,1883,u
1779264122.075865,1878,2009,u
1779264122.078455,1987,1836,u
1779264122.078953,2013,1912,u
1779264122.0797389,2188,2036,u
1779264122.079983,2277,2257,u
1779264122.080127,2051,2070,u
1779264122.082798,1979,1802,u
1779264122.084158,1972,1762,u
1779264122.08981,2056,1973,u
1779264122.090653,1980,1896,u
1779264122.0935621,1988,1731,u
1779264122.097194,2079,1985,u
1779264122.100756,2079,2255,u
1779264122.101195,2098,2148,u
1779264122.1016252,2067,1860,u
1779264122.102242,2100,1811,u
1779264122.102405,2086,1989,u
1779264122.105091,2072,1935,u
1779264122.106463,1898,1708,u
1779264122.1152,1925,1979,u
1779264122.117446,2018,2080,u
1779264122.119475,2092,2006,u
1779264122.122826,2018,1861,u
1779264122.123549,2036,1895,u
1779264122.126064,1924,1880,u
1779264122.126889,2037,2028,u
1779264122.1270962,2031,1906,u
1779264122.127187,2089,1852,u
1779264122.127265,2111,1939,u
1779264122.128662,2161,2135,u
1779264122.1304488,2121,2056,u
1779264122.132096,2043,1932,u
1779264122.139071,2028,1882,u
1779264122.140264,2068,1944,u
1779264122.1426518,2014,1887,u
1779264122.144752,1901,1743,u
1779264122.147027,1994,1949,u
1779264122.147362,2141,2167,u
1779264122.1511848,2079,2067,u
1779264122.1539469,2099,1875,u
1779264122.1541572,2055,1848,u
1779264122.154251,1976,1963,u
1779264122.154359,1970,1926,u
1779264122.155796,1993,1765,u
1779264122.1646888,1979,1863,u
1779264122.1685388,2049,1989,u
1779264122.1721652,2154,1972,u
1779264122.1724129,2161,1868,u
1779264122.175832,2061,1963,u
1779264122.176089,2002,1924,u
1779264122.1763468,2103,1966,u
1779264122.1764789,2026,1874,u
1779264122.1765828,2080,1743,u
1779264122.1766698,2036,1988,u
1779264122.178057,2159,2028,u
1779264122.1807842,2124,1930,u
1779264122.1881459,2036,1822,u
1779264122.1922402,2025,1878,u
1779264122.1972961,2058,1962,u
1779264122.198092,2014,1791,u
1779264122.201162,2007,1647,u
1779264122.201281,2191,1716,u
1779264122.201347,2114,1988,u
1779264122.2013938,2168,2172,u
1779264122.20144,2113,2002,u
1779264122.2014852,2095,1739,u
1779264122.202837,2109,1686,u
1779264122.2092412,2089,1807,u
1779264122.2115011,1874,1882,u
1779264122.2117739,1970,1801,u
1779264122.214072,2090,2025,u
1779264122.216178,2117,2186,u
1779264122.216467,2160,1916,u
1779264122.2197409,2189,1740,u
1779264122.220412,2059,1806,u
1779264122.221039,2066,1844,u
1779264122.223789,2028,1755,u
1779264122.223882,1998,1744,u
1779264122.226401,2144,1877,u
1779264122.227914,2254,2035,u
1779264122.236059,2073,2005,u
1779264122.2367702,2038,1799,u
1779264122.2394612,2030,1734,u
1779264122.2398431,1960,1846,u
1779264122.24024,2001,1874,u
1779264122.242574,2067,1757,u
1779264122.244753,2136,1885,u
1779264122.245093,2087,2085,u
1779264122.248971,2101,2032,u
1779264122.24928,1920,1830,u
1779264122.252843,1961,1728,u
1779264122.252908,2029,1803,u
1779264122.254282,2080,1842,u
1779264122.260787,1958,1783,u
1779264122.2618449,1960,1791,u
1779264122.264867,2034,1967,u
1779264122.2674391,2132,2168,u
1779264122.2690518,2009,1929,u
1779264122.2693472,2016,1796,u
1779264122.2723489,2019,1829,u
1779264122.2727711,2085,1837,u
1779264122.273174,1973,1695,u
1779264122.275871,1937,1703,u
1779264122.275925,2139,1887,u
1779264122.278507,2222,1870,u
1779264122.279957,2047,1820,u
1779264122.286418,2069,1712,u
1779264122.288235,2000,1773,u
1779264122.290106,2057,1916,u
1779264122.290387,2043,1646,u
1779264122.291784,2051,1466,u
1779264122.294497,2025,1764,u
1779264122.297805,2121,1960,u
1779264122.2980108,2150,1854,u
1779264122.298557,2053,1571,u
1779264122.301592,2144,1531,u
1779264122.30177,1970,1688,u
1779264122.304694,2023,1707,u
1779264122.31021,1926,1668,u
1779264122.3133178,2099,1762,u
1779264122.3137522,2197,1864,u
1779264122.316698,2136,1821,u
1779264122.318537,2020,1714,u
1779264122.321722,1991,1755,u
1779264122.322517,2021,1617,u
1779264122.322788,2027,1542,u
1779264122.3231292,2111,1345,u
1779264122.325999,2025,1365,u
1779264122.32607,2010,1545,u
1779264122.328733,2122,1910,u
1779264122.3300931,2113,1793,u
1779264122.338667,2050,1565,u
1779264122.3414369,2009,1506,u
1779264122.341805,2007,1604,u
1779264122.3444831,2029,1520,u
1779264122.349903,2062,1364,u
1779264122.350563,2043,1492,u
1779264122.351085,1996,1805,u
1779264122.351609,2103,1829,u
1779264122.351949,2094,1600,u
1779264122.354959,2034,1508,u
1779264122.355347,2059,1554,u
1779264122.355423,1990,1511,u
1779264122.356822,1947,1419,u
1779264122.358252,1980,1496,u
1779264122.367574,2081,1730,u
1779264122.3679512,2124,1794,u
1779264122.370341,2097,1616,u
1779264122.375017,2032,1560,u
1779264122.375743,1970,1648,u
1779264122.378216,2022,1647,u
1779264122.378569,2022,1571,u
1779264122.378747,1987,1635,u
1779264122.378912,2045,1847,u
1779264122.379037,2154,1997,u
1779264122.380407,2073,1819,u
1779264122.3817642,2076,1724,u
1779264122.384437,2022,1628,u
1779264122.390948,2066,1713,u
1779264122.3923998,2033,1712,u
1779264122.3945558,1972,1672,u
1779264122.394855,2001,1712,u
1779264122.3994398,2036,1890,u
1779264122.39987,2116,1816,u
1779264122.403434,2128,1771,u
1779264122.404329,2081,1673,u
1779264122.404793,2069,1726,u
1779264122.4050822,2037,1694,u
1779264122.408113,2029,1594,u
1779264122.408224,1998,1780,u
1779264122.412159,2136,1987,u
1779264122.416024,2118,2077,u
1779264122.416908,2113,1842,u
1779264122.418302,1978,1687,u
1779264122.4205031,2027,1736,u
1779264122.4248269,1912,1907,u
1779264122.4288158,2010,1722,u
1779264122.429203,2011,1721,u
1779264122.429547,2120,1963,u
1779264122.4321668,2186,2110,u
1779264122.433206,2122,1959,u
1779264122.433271,2035,1766,u
1779264122.434464,2030,1683,u
1779264122.435874,2065,1817,u
1779264122.438571,2028,1728,u
1779264122.439928,2000,1669,u
1779264122.452806,2049,1796,u
1779264122.453229,2184,2095,u
1779264122.460042,2133,2015,u
1779264122.4604852,2019,1851,u
1779264122.46063,1954,1753,u
1779264122.460743,2019,1851,u
1779264122.460831,2051,1832,u
1779264122.460971,2000,1756,u
1779264122.4610271,2011,1849,u
1779264122.461078,2086,2031,u
1779264122.4624588,2142,2129,u
1779264122.469326,2097,1879,u
1779264122.4707031,2047,1792,u
1779264122.475594,2028,1864,u
1779264122.481086,2055,1934,u
1779264122.482033,2035,1687,u
1779264122.482625,2012,1751,u
1779264122.485079,2073,1968,u
1779264122.485971,2157,2129,u
1779264122.486067,2174,1959,u
1779264122.48618,2079,1838,u
1779264122.486308,2076,1816,u
1779264122.4864352,2106,1954,u
1779264122.4878972,2097,1847,u
1779264122.4907022,2043,1774,u
1779264122.4919732,2094,1919,u
1779264122.5001779,2176,2217,u
1779264122.502576,2199,2161,u
1779264122.50694,2160,1912,u
1779264122.5110242,2110,1860,u
1779264122.511462,2091,2005,u
1779264122.512162,2084,2007,u
1779264122.5152519,2022,1844,u
1779264122.515337,2098,1839,u
1779264122.5155241,2142,2102,u
1779264122.5156,2210,2172,u
1779264122.515747,2145,1953,u
1779264122.515821,2100,1824,u
1779264122.52339,2105,1851,u
1779264122.52651,2133,2010,u
1779264122.5268621,2101,1861,u
1779264122.528934,2073,1892,u
1779264122.53544,2174,2073,u
1779264122.535904,2262,2340,u
1779264122.536492,2147,2168,u
1779264122.5368729,2078,1967,u
1779264122.5371258,2152,1951,u
1779264122.537576,2128,2064,u
1779264122.540768,2030,1952,u
1779264122.5408452,2050,1872,u
1779264122.542211,2068,2065,u
1779264122.544848,2172,2312,u
1779264122.546193,2199,2150,u
1779264122.553942,2115,1982,u
1779264122.5559921,2077,1914,u
1779264122.5581179,2101,2067,u
1779264122.561734,2124,2094,u
1779264122.562111,2060,1921,u
1779264122.566062,2052,1935,u
1779264122.566187,2143,2180,u
1779264122.566257,2180,2391,u
1779264122.566319,2124,2106,u
1779264122.566449,2062,1971,u
1779264122.567803,2079,1974,u
1779264122.575242,2130,2086,u
1779264122.575906,2030,1925,u
1779264122.5778701,2003,1907,u
1779264122.580201,2083,2129,u
1779264122.584794,2169,2389,u
1779264122.585359,2125,2171,u
1779264122.585876,2051,2052,u
1779264122.58641,2027,1994,u
1779264122.5897741,2077,2126,u
1779264122.589865,2045,1997,u
1779264122.589931,1989,1926,u
1779264122.5925388,2057,2053,u
1779264122.593876,2146,2347,u
1779264122.602011,2142,2312,u
1779264122.603337,2060,2156,u
1779264122.6056151,2030,1966,u
1779264122.6099148,2040,1987,u
1779264122.6104,2030,2048,u
1779264122.613258,1973,1936,u
1779264122.613334,2023,1923,u
1779264122.613397,2120,2194,u
1779264122.613457,2180,2279,u
1779264122.616891,2110,2022,u
1779264122.616995,2003,1861,u
1779264122.618332,2054,1932,u
1779264122.625571,2073,2125,u
1779264122.627672,1994,1915,u
1779264122.630502,2013,1902,u
1779264122.636095,2071,2079,u
1779264122.63648,2179,2313,u
1779264122.636777,2140,2128,u
1779264122.6402519,2024,1929,u
1779264122.640639,2036,2009,u
1779264122.6407669,2070,2026,u
1779264122.6409202,2081,1867,u
1779264122.641066,2014,1837,u
1779264122.642476,2054,2062,u
1779264122.64384,2178,2297,u
1779264122.646529,2178,2297,u
1779264122.652512,2079,2058,u
1779264122.65487,2040,1987,u
1779264122.6570408,2066,2089,u
1779264122.662343,2066,2055,u
1779264122.6628768,2009,1924,u
1779264122.663478,1995,2019,u
1779264122.6672142,2106,2389,u
1779264122.667681,2175,2447,u
1779264122.667815,2123,2116,u
1779264122.667973,2056,1958,u
1779264122.6681228,2040,2011,u
1779264122.675214,2071,2109,u
1779264122.676487,2035,1987,u
1779264122.6794891,2000,2043,u
1779264122.6798878,2050,2238,u
1779264122.684319,2164,2479,u
1779264122.688202,2121,2223,u
1779264122.688543,2033,2072,u
1779264122.689266,1994,2085,u
1779264122.691756,2057,2241,u
1779264122.692611,2036,2055,u
1779264122.692724,1998,1942,u
1779264122.692846,2044,2079,u
1779264122.6941922,2131,2337,u
1779264122.6968389,2127,2300,u
1779264122.698228,2061,2074,u
1779264122.706909,2033,1982,u
1779264122.711145,2057,2147,u
1779264122.715246,2108,2081,u
1779264122.716005,2011,1895,u
1779264122.7191,1998,2019,u
1779264122.719237,2113,2282,u
1779264122.719363,2174,2469,u
1779264122.719435,2117,2007,u
1779264122.719546,2055,1808,u
1779264122.719639,2006,1924,u
1779264122.719766,2046,2024,u
1779264122.726869,2010,1837,u
1779264122.728943,2007,1729,u
1779264122.732672,2056,1932,u
1779264122.736278,2140,2238,u
1779264122.7367702,2123,2095,u
1779264122.7370582,2011,1857,u
1779264122.7378519,2006,1915,u
1779264122.74031,2044,2033,u
1779264122.740582,2028,1898,u
1779264122.741615,1972,1709,u
1779264122.7417548,2027,1969,u
1779264122.7444868,2117,2280,u
1779264122.745945,2138,2289,u
1779264122.752927,2083,2099,u
1779264122.753978,1976,1913,u
1779264122.754119,2025,2009,u
1779264122.754715,2042,2001,u
1779264122.7563798,1968,1770,u
1779264122.758106,2003,1845,u
1779264122.7628732,2058,2150,u
1779264122.7655869,2139,2172,u
1779264122.765911,2090,1966,u
1779264122.7659678,2026,1852,u
1779264122.768825,2038,1939,u
1779264122.77299,2077,1977,u
1779264122.77347,2015,1737,u
1779264122.77612,1970,1815,u
1779264122.776345,2051,2134,u
1779264122.779764,2169,2334,u
1779264122.7828748,2137,2112,u
1779264122.7830222,2046,1850,u
1779264122.785252,1978,1878,u
1779264122.786582,2043,2040,u
1779264122.7878988,2046,1915,u
1779264122.790484,2003,1709,u
1779264122.796352,2017,1773,u
1779264122.799828,2110,2131,u
1779264122.803301,2126,2122,u
1779264122.806168,2065,1853,u
1779264122.806505,1997,1643,u
1779264122.806816,2057,1786,u
1779264122.8071392,2065,1848,u
1779264122.809077,1998,1646,u
1779264122.8099399,2012,1682,u
1779264122.810055,2096,2011,u
1779264122.81624,2158,2242,u
1779264122.81795,2073,1929,u
1779264122.8195992,2026,1626,u
1779264122.8199291,2008,1609,u
1779264122.822056,2053,1731,u
1779264122.823458,1985,1516,u
1779264122.829819,1993,1410,u
1779264122.8298721,2042,1751,u
1779264122.8299918,2145,2019,u
1779264122.8301141,2106,1884,u
1779264122.832784,2039,1691,u
1779264122.834153,2002,1573,u
1779264122.8414102,2037,1673,u
1779264122.843019,2026,1552,u
1779264122.843224,1989,1428,u
1779264122.8435059,1993,1591,u
1779264122.8500211,2108,1971,u
1779264122.8506188,2118,1938,u
1779264122.852619,2038,1711,u
1779264122.853539,2004,1698,u
1779264122.8536808,2023,1708,u
1779264122.8537889,2016,1725,u
1779264122.8564548,1959,1476,u
1779264122.860354,1960,1417,u
1779264122.862101,2061,1803,u
1779264122.870261,2144,1920,u
1779264122.870544,2069,1685,u
1779264122.870701,1987,1428,u
1779264122.8712478,1977,1510,u
1779264122.8732421,2028,1616,u
1779264122.873837,1994,1328,u
1779264122.874089,1953,1350,u
1779264122.876693,2022,1698,u
1779264122.8781471,2138,2068,u
1779264122.884886,2079,1701,u
1779264122.8880498,2023,1493,u
1779264122.888314,1982,1476,u
1779264122.890332,2015,1599,u
1779264122.894691,2009,1481,u
1779264122.895042,1972,1308,u
1779264122.895481,2021,1610,u
1779264122.8981829,2110,1957,u
1779264122.898346,2124,1845,u
1779264122.898453,2048,1554,u
1779264122.899791,2004,1521,u
1779264122.905152,2050,1702,u
1779264122.906542,2053,1616,u
1779264122.908289,2014,1235,u
1779264122.911655,1991,1396,u
1779264122.914675,2094,1794,u
1779264122.914955,2159,1918,u
1779264122.915154,2072,1636,u
1779264122.9178398,2029,1463,u
1779264122.9179368,1966,1509,u
1779264122.920636,2066,1603,u
1779264122.921969,2020,1291,u
1779264122.9311411,1978,1304,u
1779264122.931521,2033,1678,u
1779264122.933732,2127,1972,u
1779264122.9353201,2106,1717,u
1779264122.938236,2039,1436,u
1779264122.938551,1999,1425,u
1779264122.939154,2054,1605,u
1779264122.942875,2044,1452,u
1779264122.9429681,2005,1290,u
1779264122.9430342,2045,1529,u
1779264122.9446158,2161,1829,u
1779264122.9486878,2148,1814,u
1779264122.952086,2033,1570,u
1779264122.954268,2008,1380,u
1779264122.955783,2054,1503,u
1779264122.958844,2031,1457,u
1779264122.959127,1953,1213,u
1779264122.95942,1976,1353,u
1779264122.962058,2082,1817,u
1779264122.962256,2160,1997,u
1779264122.96486,2117,1652,u
1779264122.96618,2063,1443,u
1779264122.971663,2022,1386,u
1779264122.972706,2065,1618,u
1779264122.973598,2014,1384,u
1779264122.9752991,1983,1373,u
1779264122.977569,2044,1736,u
1779264122.979033,2130,2088,u
1779264122.9819362,2119,1680,u
1779264122.9824681,2042,1497,u
1779264122.9851542,2008,1429,u
1779264122.9864802,2072,1641,u
1779264122.987786,2036,1492,u
1779264122.993522,1971,1321,u
1779264122.993647,2029,1584,u
1779264122.994845,2144,2033,u
1779264123.000119,2128,1969,u
1779264123.0003572,2062,1523,u
1779264123.002899,2025,1476,u
1779264123.0032132,2030,1648,u
1779264123.0056162,2058,1655,u
1779264123.006967,1996,1367,u
1779264123.008287,1979,1419,u
1779264123.011033,2068,1963,u
1779264123.0160708,2087,2224,u
1779264123.0176,2078,1814,u
1779264123.021037,2001,1471,u
1779264123.0238872,2000,1550,u
1779264123.026044,2049,1771,u
1779264123.026741,2000,1528,u
1779264123.0268779,1971,1527,u
1779264123.026981,2047,1739,u
1779264123.02829,2137,2198,u
1779264123.030952,2101,1910,u
1779264123.0358021,2044,1641,u
1779264123.0367832,2028,1577,u
1779264123.03862,2024,1790,u
1779264123.042329,2025,1670,u
1779264123.045352,1980,1420,u
1779264123.045836,2030,1732,u
1779264123.0480251,2130,2085,u
1779264123.048248,2149,2061,u
1779264123.048358,2088,1685,u
1779264123.0497391,2021,1560,u
1779264123.0523121,2025,1718,u
1779264123.0571141,2052,1765,u
1779264123.058538,1962,1463,u
1779264123.058997,1989,1664,u
1779264123.0626051,2102,2087,u
1779264123.066875,2154,2222,u
1779264123.067214,2079,1867,u
1779264123.0673459,2019,1551,u
1779264123.069659,2001,1682,u
1779264123.069931,2051,1954,u
1779264123.0726662,2012,1638,u
1779264123.0742998,1996,1561,u
1779264123.080771,2025,1886,u
1779264123.081404,2139,2314,u
1779264123.08354,2131,2044,u
1779264123.085176,2010,1769,u
1779264123.08959,1998,1659,u
1779264123.089959,2041,1927,u
1779264123.0902112,2018,1736,u
1779264123.092675,1950,1592,u
1779264123.092802,2007,1878,u
1779264123.0941179,2087,2282,u
1779264123.0967438,2139,2107,u
1779264123.104334,2076,1738,u
1779264123.1056,2021,1562,u
1779264123.1060412,2033,1765,u
1779264123.106622,2033,1808,u
1779264123.110378,1990,1558,u
1779264123.110613,1996,1706,u
1779264123.110894,2090,2143,u
1779264123.113569,2150,2356,u
1779264123.113686,2092,2023,u
1779264123.116271,2076,1817,u
1779264123.117643,1968,1772,u
1779264123.123146,2035,1952,u
1779264123.123986,2015,1633,u
1779264123.125969,2012,1609,u
1779264123.1271172,2061,2006,u
1779264123.1317298,2151,2387,u
1779264123.13209,2107,2060,u
1779264123.132412,2035,1721,u
1779264123.134429,2002,1715,u
1779264123.1357481,2059,1930,u
1779264123.138468,2042,1766,u
1779264123.139782,1982,1630,u
1779264123.144125,2017,1810,u
1779264123.1442728,2092,2177,u
1779264123.146435,2129,2165,u
1779264123.148509,2057,1813,u
1779264123.152468,1970,1609,u
1779264123.152642,2042,1875,u
1779264123.155016,2069,1890,u
1779264123.156245,2002,1570,u
1779264123.157661,1931,1735,u
1779264123.1602292,2083,2148,u
1779264123.164856,2176,2336,u
1779264123.165691,2051,1907,u
1779264123.16723,2011,1646,u
1779264123.1691031,1989,1733,u
1779264123.1730418,2073,1930,u
1779264123.173252,2022,1638,u
1779264123.175661,2008,1576,u
1779264123.1757069,2054,1975,u
1779264123.1784651,2143,2299,u
1779264123.1799612,2130,2022,u
1779264123.185175,2064,1758,u
1779264123.186002,2015,1631,u
1779264123.1896589,2064,1884,u
1779264123.19135,2047,1618,u
1779264123.1978,1984,1592,u
1779264123.197918,2029,1830,u
1779264123.198145,2117,2199,u
1779264123.1983318,2138,2183,u
1779264123.198454,2087,1792,u
1779264123.1998148,2020,1516,u
1779264123.20225,2022,1671,u
1779264123.206646,2058,1737,u
1779264123.207138,1964,1501,u
1779264123.209831,2005,1634,u
1779264123.211356,2108,2084,u
1779264123.216745,2176,2311,u
1779264123.2170858,2103,1883,u
1779264123.218814,2039,1578,u
1779264123.219451,2020,1663,u
1779264123.220584,2069,1850,u
1779264123.222096,2015,1631,u
1779264123.228787,2006,1596,u
1779264123.2310688,2064,1905,u
1779264123.232984,2149,2242,u
1779264123.2346659,2148,1928,u
1779264123.234872,2027,1714,u
1779264123.239954,2038,1648,u
1779264123.240222,2074,1859,u
1779264123.240298,1999,1761,u
1779264123.240362,1980,1611,u
1779264123.241685,2000,1901,u
1779264123.243948,2130,2294,u
1779264123.249718,2153,2162,u
1779264123.25022,2085,1749,u
1779264123.2507288,2019,1684,u
1779264123.2525911,2046,1909,u
1779264123.257917,2008,1875,u
1779264123.258223,2012,1539,u
1779264123.258413,2022,1662,u
1779264123.260767,2083,2107,u
1779264123.26208,2156,2335,u
1779264123.263925,2088,1954,u
1779264123.272745,2061,1734,u
1779264123.2731688,2019,1749,u
1779264123.27506,2072,1966,u
1779264123.278869,2025,1631,u
1779264123.279259,2001,1574,u
1779264123.279636,2067,1973,u
1779264123.282112,2156,2392,u
1779264123.28226,2128,2046,u
1779264123.2824168,2046,1801,u
1779264123.283745,2015,1642,u
1779264123.286029,2052,1869,u
1779264123.291256,2051,1770,u
1779264123.2923992,2017,1661,u
1779264123.2939332,2008,1894,u
1779264123.2954712,2125,2394,u
1779264123.299951,2153,2261,u
1779264123.3003259,2076,1809,u
1779264123.300585,2020,1703,u
1779264123.3027148,2017,1906,u
1779264123.3040378,2069,1984,u
1779264123.306617,2005,1649,u
1779264123.307992,2017,1759,u
1779264123.312613,2106,2199,u
1779264123.314985,2129,2375,u
1779264123.3152928,2103,2046,u
1779264123.3173199,2039,1802,u
1779264123.321235,2024,1789,u
1779264123.321398,2043,1985,u
1779264123.323242,2001,1689,u
1779264123.3251069,1997,1610,u
1779264123.326411,2055,2089,u
1779264123.327728,2141,2412,u
1779264123.3342478,2139,2128,u
1779264123.336181,2065,1782,u
1779264123.336384,2021,1750,u
1779264123.337515,2064,1986,u
1779264123.338402,2050,1850,u
1779264123.3451772,1995,1714,u
1779264123.345396,2040,1979,u
1779264123.345595,2131,2350,u
1779264123.345643,2148,2306,u
1779264123.3482518,2064,1940,u
1779264123.349668,2023,1693,u
1779264123.355926,2031,1838,u
1779264123.3595462,2058,1920,u
1779264123.360167,1986,1726,u
1779264123.360242,1993,1751,u
1779264123.361921,2084,2223,u
1779264123.362087,2167,2464,u
1779264123.364911,2114,2103,u
1779264123.367271,2051,1809,u
1779264123.368358,2026,1791,u
1779264123.3696718,2052,2008,u
1779264123.372221,2013,1708,u
1779264123.377107,2012,1764,u
1779264123.379265,2061,2087,u
1779264123.380607,2150,2403,u
1779264123.381139,2144,2176,u
1779264123.38286,2034,1769,u
1779264123.385642,2014,1732,u
1779264123.3858528,2066,1966,u
1779264123.387787,2057,1855,u
1779264123.390374,1999,1671,u
1779264123.391721,2036,1935,u
1779264123.397964,2137,2362,u
1779264123.398479,2154,2227,u
1779264123.400022,2066,1897,u
1779264123.400322,2026,1741,u
1779264123.403203,2032,1928,u
1779264123.406034,2065,1990,u
1779264123.406194,1999,1662,u
1779264123.408427,2019,1764,u
1779264123.409748,2087,2188,u
1779264123.4122822,2152,2344,u
1779264123.4137201,2117,1947,u
1779264123.4181519,2043,1771,u
1779264123.41914,2038,1848,u
1779264123.420804,2069,2021,u
1779264123.422283,2018,1737,u
1779264123.426518,2013,1722,u
1779264123.426628,2037,2088,u
1779264123.4290218,2150,2484,u
1779264123.430379,2124,2172,u
1779264123.431703,2062,1880,u
1779264123.434218,2025,1819,u
1779264123.438199,2060,1995,u
1779264123.4394019,2033,1818,u
1779264123.443907,1980,1602,u
1779264123.446709,2032,1891,u
1779264123.4471638,2123,2294,u
1779264123.447444,2155,2235,u
1779264123.449204,2079,1883,u
1779264123.4505038,2019,1679,u
1779264123.4525068,2036,1833,u
1779264123.453845,2068,1918,u
1779264123.4594529,2012,1665,u
1779264123.460311,2018,1799,u
1779264123.4608388,2083,2232,u
1779264123.467937,2172,2379,u
1779264123.468239,2106,2000,u
1779264123.468639,2045,1792,u
1779264123.470922,2018,1815,u
1779264123.471207,2041,2011,u
1779264123.472518,1993,1729,u
1779264123.4746509,1983,1704,u
1779264123.4761002,2064,2021,u
1779264123.481272,2159,2465,u
1779264123.483051,2126,2164,u
1779264123.484787,2072,1792,u
1779264123.486444,2023,1726,u
1779264123.489405,2058,1988,u
1779264123.489589,2051,1858,u
1779264123.49141,1998,1674,u
1779264123.492666,2066,1923,u
1779264123.493995,2151,2402,u
1779264123.496722,2170,2334,u
1779264123.50042,2088,1947,u
1779264123.502053,2050,1702,u
1779264123.503882,2072,1895,u
1779264123.5051599,2096,1985,u
1779264123.507288,2034,1674,u
1779264123.512264,2026,1802,u
1779264123.5125859,2106,2181,u
1779264123.512697,2170,2404,u
1779264123.514046,2107,2033,u
1779264123.516629,2041,1802,u
1779264123.52568,2032,1866,u
1779264123.532168,2047,2029,u
1779264123.532444,2025,1792,u
1779264123.532556,2002,1727,u
1779264123.533431,2050,2088,u
1779264123.534323,2129,2472,u
1779264123.5344992,2116,2171,u
1779264123.534546,2040,1824,u
1779264123.5345879,2001,1825,u
1779264123.536007,2027,1919,u
1779264123.5493581,2014,1903,u
1779264123.5520709,2000,1754,u
1779264123.5528378,2043,2014,u
1779264123.554626,2154,2381,u
1779264123.555362,2149,2327,u
1779264123.555469,2083,1994,u
1779264123.555578,1987,1841,u
1779264123.555618,1994,1989,u
1779264123.55568,2082,2082,u
1779264123.5557618,2014,1788,u
1779264123.558339,2013,1916,u
1779264123.559703,2047,2376,u
1779264123.5648131,2148,2620,u
1779264123.566026,2130,2238,u
1779264123.567961,1990,1976,u
1779264123.5693,1961,2056,u
1779264123.573531,1950,2207,u
1779264123.57384,1986,2037,u
1779264123.574358,2024,1953,u
1779264123.577555,2093,2443,u
1779264123.5777202,2136,2833,u
1779264123.580404,2152,2493,u
1779264123.585477,2127,2065,u
1779264123.586285,2063,2049,u
1779264123.5886312,2095,2292,u
1779264123.589945,2038,2276,u
1779264123.590904,2019,2043,u
1779264123.597483,1936,2318,u
1779264123.597806,1954,2758,u
1779264123.5980532,2035,2835,u
1779264123.598408,2033,2471,u
1779264123.5997398,1966,2254,u
1779264123.60232,1833,2398,u
1779264123.606574,2031,2553,u
1779264123.6071181,1996,2399,u
1779264123.609594,2106,2543,u
1779264123.6097941,2210,3027,u
1779264123.61536,2207,3349,u
1779264123.6156008,2147,2925,u
1779264123.6158369,2042,2608,u
1779264123.618314,2009,2684,u
1779264123.619825,2066,2924,u
1779264123.622435,1764,2734,u
1779264123.6239638,1755,2603,u
1779264123.627459,1862,2757,u
1779264123.630574,2036,2960,u
1779264123.632123,2243,2844,u
1779264123.632648,2190,2496,u
1779264123.636696,2127,2328,u
1779264123.636991,2039,2613,u
1779264123.639275,1927,2336,u
1779264123.640693,2206,2248,u
1779264123.642012,2072,2796,u
1779264123.648063,1825,2841,u
1779264123.6485782,1749,2697,u
1779264123.6498392,1837,2564,u
1779264123.649944,1844,2501,u
1779264123.653265,1880,2463,u
1779264123.658963,2058,2666,u
1779264123.659431,1990,2445,u
1779264123.6595469,1848,2132,u
1779264123.659712,2081,2299,u
1779264123.662776,2171,3008,u
1779264123.664105,2181,2603,u
1779264123.666683,1867,2551,u
1779264123.6702871,1757,2828,u
1779264123.671255,1729,2984,u
1779264123.673824,1857,3061,u
1779264123.674023,1644,3613,u
1779264123.67699,1692,4095,u
1779264123.681681,1752,4095,u
1779264123.68238,2018,3420,u
1779264123.682431,1945,2943,u
1779264123.6837492,1847,3083,u
1779264123.68633,1881,3675,u
1779264123.690974,1958,3890,u
1779264123.692209,1897,3695,u
1779264123.69232,1771,4095,u
1779264123.694117,1716,4095,u
1779264123.6998138,1842,3800,u
1779264123.7003489,1800,3317,u
1779264123.7006311,1532,3272,u
1779264123.702807,1646,3631,u
1779264123.704745,1648,4095,u
1779264123.706347,1697,4095,u
1779264123.707676,1774,4095,u
1779264123.712132,1784,4095,u
1779264123.712718,1715,4095,u
1779264123.7153301,1615,3793,u
1779264123.7176168,1489,3651,u
1779264123.718994,1702,3734,u
1779264123.721808,1692,3977,u
1779264123.7220962,1403,4095,u
1779264123.724641,1438,4095,u
1779264123.726033,1884,4095,u
1779264123.7286851,2070,4095,u
1779264123.735403,1845,4009,u
1779264123.736417,1530,3883,u
1779264123.737943,1625,3873,u
1779264123.739394,1667,3961,u
1779264123.743854,1690,4092,u
1779264123.7440908,1624,4095,u
1779264123.7443001,1723,4095,u
1779264123.744629,1847,4095,u
1779264123.747107,1508,4090,u
1779264123.7484758,1668,4008,u
1779264123.7496278,1836,3971,u
1779264123.752256,1652,3990,u
1779264123.756875,1643,4051,u
1779264123.757767,1780,4095,u
1779264123.75827,1675,4095,u
1779264123.7656388,1943,4095,u
1779264123.765952,1884,4095,u
1779264123.768362,1927,4061,u
1779264123.768615,1706,4030,u
1779264123.7687318,1781,4022,u
1779264123.770047,1737,4044,u
1779264123.772629,1689,4075,u
1779264123.7782772,1610,4095,u
1779264123.780545,1520,4056,u
1779264123.780889,1757,4095,u
1779264123.7828631,2050,4075,u
1779264123.7841291,1812,3550,u
1779264123.787022,1881,3201,u
1779264123.78729,1959,3166,u
1779264123.7897868,1602,3159,u
1779264123.789839,1579,2291,u
1779264123.792612,1834,2396,u
1779264123.793955,2014,2441,u
1779264123.8005,1863,2484,u
1779264123.8107252,1941,2805,u
1779264123.8108191,1780,2470,u
1779264123.810888,1713,2042,u
1779264123.810951,1892,2494,u
1779264123.81105,1709,2437,u
1779264123.8111491,1825,1762,u
1779264123.811244,1834,2247,u
1779264123.812811,1822,2284,u
1779264123.814521,1999,2021,u
1779264123.815893,1917,2079,u
1779264123.8204648,1736,1921,u
1779264123.820993,1842,1662,u
1779264123.823174,1971,1397,u
1779264123.828953,1962,1237,u
1779264123.829056,2005,1222,u
1779264123.829325,2078,1435,u
1779264123.831868,1876,1402,u
1779264123.8320699,1806,1337,u
1779264123.83467,1755,1442,u
1779264123.8360431,1870,1587,u
1779264123.840694,1937,1566,u
1779264123.8437,1814,1587,u
1779264123.844029,1815,1654,u
1779264123.84736,1632,1548,u
1779264123.847489,1867,1695,u
1779264123.850278,1680,1940,u
1779264123.8504992,2050,2112,u
1779264123.853109,2140,1973,u
1779264123.854602,2033,1775,u
1779264123.855979,1978,1738,u
1779264123.869079,1950,1603,u
1779264123.872033,1973,1809,u
1779264123.872283,2143,1607,u
1779264123.872569,1968,1590,u
1779264123.872895,2009,1400,u
1779264123.874725,1827,1555,u
1779264123.8753338,1736,1528,u
1779264123.875385,1874,1253,u
1779264123.8754308,1869,1138,u
1779264123.876742,1997,1535,u
1779264123.878061,1930,1468,u
1779264123.880655,1995,1441,u
1779264123.884084,2100,1493,u
1779264123.885479,1987,1403,u
1779264123.88784,2174,1498,u
1779264123.8879948,2117,1429,u
1779264123.891063,1882,1455,u
1779264123.894005,1950,1637,u
1779264123.894331,2298,1486,u
1779264123.8961768,2156,1598,u
1779264123.898773,1868,1443,u
1779264123.900091,1877,1051,u
1779264123.90489,1858,1504,u
1779264123.905334,1861,1554,u
1779264123.9079318,1921,1505,u
1779264123.908077,1894,1722,u
1779264123.913734,2095,1753,u
1779264123.9139972,2104,1566,u
1779264123.9163232,2102,1736,u
1779264123.916379,2028,1927,u
1779264123.917706,1845,1589,u
1779264123.920361,1963,1688,u
1779264123.921667,2130,1655,u
1779264123.925389,2103,1700,u
1779264123.92677,2103,2019,u
1779264123.928212,2029,1877,u
1779264123.9314802,2085,1981,u
1779264123.93418,2140,1876,u
1779264123.934473,1813,1843,u
1779264123.9368289,1976,1868,u
1779264123.938165,2112,1730,u
1779264123.9396632,1936,1689,u
1779264123.9423308,1762,2033,u
1779264123.946338,1950,2284,u
1779264123.947126,2324,2196,u
1779264123.948583,2168,1837,u
1779264123.9499872,1841,1857,u
1779264123.9539561,1912,2100,u
1779264123.95415,2048,2073,u
1779264123.956299,1991,2127,u
1779264123.957661,2068,2191,u
1779264123.9602308,2090,2187,u
1779264123.961869,2087,2044,u
1779264123.9665651,2002,1922,u
1779264123.967094,1917,2019,u
1779264123.9707708,1949,2031,u
1779264123.9747741,1937,1939,u
1779264123.974964,1895,1974,u
1779264123.975117,1812,2040,u
1779264123.977375,2135,2146,u
1779264123.978784,2166,2055,u
1779264123.98048,2293,2094,u
1779264123.9818292,2090,1921,u
1779264123.987284,2055,1987,u
1779264123.988031,1933,1980,u
1779264123.9896069,2035,1847,u
1779264123.992378,1745,1781,u
1779264123.995065,2048,1784,u
1779264123.9953358,2077,2062,u
1779264123.9978418,2090,2125,u
1779264123.998271,1868,2063,u
1779264124.0009542,1909,1960,u
1779264124.00229,1991,1970,u
1779264124.007066,2199,2047,u
1779264124.007543,2043,1827,u
1779264124.0083132,1953,1779,u
1779264124.0099452,1907,1755,u
1779264124.017784,2106,2045,u
1779264124.018215,2195,2057,u
1779264124.01841,2027,2077,u
1779264124.0184479,1936,1981,u
1779264124.019753,2118,1947,u
1779264124.0223758,2039,2021,u
1779264124.023644,1808,2023,u
1779264124.027818,2065,2172,u
1779264124.028547,2079,2025,u
1779264124.0322292,2094,2006,u
1779264124.036217,2106,1934,u
1779264124.036545,1879,1876,u
1779264124.036886,1942,1961,u
1779264124.0393898,2083,1949,u
1779264124.040708,1905,1967,u
1779264124.041894,2013,1971,u
1779264124.0445068,1985,2167,u
1779264124.048662,2082,2045,u
1779264124.04961,1976,1936,u
1779264124.050467,1998,1978,u
1779264124.0549319,1907,2064,u
1779264124.057801,1967,1899,u
1779264124.0580192,2072,1911,u
1779264124.0583968,1841,1875,u
1779264124.0609531,1891,1924,u
1779264124.062355,2149,2056,u
1779264124.0639338,2139,2142,u
1779264124.0701098,2045,2042,u
1779264124.0711339,2000,1988,u
1779264124.072748,2048,2013,u
1779264124.072958,2021,2044,u
1779264124.07834,2053,2024,u
1779264124.078639,1984,1992,u
1779264124.0789309,1932,2096,u
1779264124.0812721,1903,2029,u
1779264124.0826392,2005,1972,u
1779264124.084023,1916,1779,u
1779264124.0907772,1926,2059,u
1779264124.093981,1901,2120,u
1779264124.094857,1972,1825,u
1779264124.099065,2019,1855,u
1779264124.099299,2197,2119,u
1779264124.099534,2173,2182,u
1779264124.0997279,2115,2039,u
1779264124.099906,2079,2148,u
1779264124.10176,2057,1953,u
1779264124.104352,2078,2034,u
1779264124.105669,2045,1854,u
1779264124.111289,1999,1952,u
1779264124.111798,2015,2191,u
1779264124.112632,2005,2366,u
1779264124.1149929,2034,2097,u
1779264124.116738,1972,2069,u
1779264124.119595,1896,2059,u
1779264124.119945,2032,2083,u
1779264124.12272,2071,1965,u
1779264124.124096,2013,1878,u
1779264124.1266959,1989,1905,u
1779264124.132071,2093,2088,u
1779264124.132548,1966,2098,u
1779264124.1342678,2140,1949,u
1779264124.135387,2106,1902,u
1779264124.1372192,1929,2155,u
1779264124.139803,1932,2296,u
1779264124.139915,1984,1950,u
1779264124.142239,2056,2037,u
1779264124.1448221,2168,2289,u
1779264124.146134,2028,2283,u
1779264124.151338,1862,2104,u
1779264124.151901,1942,1932,u
1779264124.1529899,2147,1930,u
1779264124.155498,2117,1790,u
1779264124.1559439,1812,1686,u
1779264124.159601,1833,1815,u
1779264124.159785,2158,1881,u
1779264124.1627991,2177,2048,u
1779264124.164164,1981,1802,u
1779264124.166483,2036,1836,u
1779264124.167731,1952,1955,u
1779264124.172151,2145,1882,u
1779264124.172968,2113,1623,u
1779264124.174637,2090,1636,u
1779264124.177376,1900,1702,u
1779264124.179968,2138,1865,u
1779264124.1801522,2241,1764,u
1779264124.182376,2202,1621,u
1779264124.1836889,2054,1560,u
1779264124.186254,1990,1690,u
1779264124.187613,1925,1703,u
1779264124.192548,1977,1724,u
1779264124.193399,2040,1579,u
1779264124.195144,2182,1522,u
1779264124.198015,2195,1647,u
1779264124.200505,2102,1426,u
1779264124.20082,1961,1345,u
1779264124.2026188,1965,1204,u
1779264124.2039309,2010,1287,u
1779264124.206508,1943,1108,u
1779264124.20782,2038,1116,u
1779264124.2156549,1997,1281,u
1779264124.215924,2178,1465,u
1779264124.216133,2130,1260,u
1779264124.2171671,2028,1261,u
1779264124.219181,2033,1282,u
1779264124.224038,2213,1263,u
1779264124.224139,2046,1047,u
1779264124.224174,2095,936,u
1779264124.22675,2186,985,u
1779264124.228129,2120,1286,u
1779264124.23455,2032,1442,u
1779264124.23706,2011,1159,u
1779264124.23888,2105,952,u
1779264124.241416,2002,1079,u
1779264124.241735,1933,1137,u
1779264124.242068,2050,836,u
1779264124.244006,2170,945,u
1779264124.244328,2132,1351,u
1779264124.245703,2058,1472,u
1779264124.248283,2057,1363,u
1779264124.253684,2050,1258,u
1779264124.254619,2081,1255,u
1779264124.2561972,2163,1028,u
1779264124.256416,2087,787,u
1779264124.259095,1960,959,u
1779264124.2616682,2115,1195,u
1779264124.261944,2178,1390,u
1779264124.264487,2212,1052,u
1779264124.265942,2077,981,u
1779264124.268645,2046,1003,u
1779264124.2701921,2010,1031,u
1779264124.2739022,1957,981,u
1779264124.275093,1915,923,u
1779264124.277803,1872,1071,u
1779264124.279336,2097,1191,u
1779264124.282252,2108,1060,u
1779264124.28235,1985,935,u
1779264124.284489,2011,1019,u
1779264124.285992,2159,1168,u
1779264124.288617,2239,952,u
1779264124.289823,2173,714,u
1779264124.294636,1981,835,u
1779264124.2976,2055,1064,u
1779264124.2994502,2183,1230,u
1779264124.302757,2066,1009,u
1779264124.304592,2053,921,u
1779264124.305204,1997,968,u
1779264124.3052711,1923,963,u
1779264124.306572,2057,655,u
1779264124.30788,1933,859,u
1779264124.310446,1937,1044,u
1779264124.3146281,2340,1301,u
1779264124.3165781,2239,1266,u
1779264124.316931,1974,984,u
1779264124.319658,1964,868,u
1779264124.3225,2160,1121,u
1779264124.324238,2083,844,u
1779264124.324835,2131,877,u
1779264124.326197,2089,972,u
1779264124.328841,2197,1233,u
1779264124.3301601,2152,1201,u
1779264124.335128,2025,1065,u
1779264124.335836,2122,1043,u
1779264124.3374348,2103,1159,u
1779264124.34043,2045,1000,u
1779264124.343056,1815,842,u
1779264124.3432908,2021,1039,u
1779264124.345429,2000,1291,u
1779264124.3467689,2095,1392,u
1779264124.348217,2115,1187,u
1779264124.349542,2197,1004,u
1779264124.355166,2114,1082,u
1779264124.355882,1914,1217,u
1779264124.356309,2014,1003,u
1779264124.357599,2038,1145,u
1779264124.3630002,2034,1536,u
1779264124.365658,2152,1706,u
1779264124.365715,2102,1384,u
1779264124.3657641,1921,1183,u
1779264124.3709812,1896,1219,u
1779264124.3710809,1989,1389,u
1779264124.376805,2169,1235,u
1779264124.378498,2238,1083,u
1779264124.380182,2174,1369,u
1779264124.3818161,2216,1753,u
1779264124.381953,2206,1579,u
1779264124.384594,2114,1395,u
1779264124.384883,2120,1330,u
1779264124.387063,2047,1502,u
1779264124.3884852,2013,1481,u
1779264124.389605,1827,1274,u
1779264124.392168,1942,1475,u
1779264124.3987908,2026,1832,u
1779264124.398956,2036,1772,u
1779264124.399143,2038,1547,u
1779264124.401101,2058,1423,u
1779264124.404663,2195,1599,u
1779264124.40484,2075,1717,u
1779264124.406973,2054,1481,u
1779264124.4082959,2091,1506,u
1779264124.4096088,2031,1698,u
1779264124.412226,2201,1928,u
1779264124.4160461,2140,1667,u
1779264124.416536,2047,1467,u
1779264124.419014,2035,1599,u
1779264124.42165,2102,1742,u
1779264124.424169,2009,1597,u
1779264124.424455,2089,1532,u
1779264124.426187,2103,1692,u
1779264124.42751,2221,2005,u
1779264124.430157,2219,1950,u
1779264124.4315038,2120,1730,u
1779264124.436435,2012,1635,u
1779264124.4375942,2061,1749,u
1779264124.439348,2064,1707,u
1779264124.4407942,1961,1522,u
1779264124.4446201,1987,1685,u
1779264124.444792,2124,2032,u
1779264124.447047,2163,2052,u
1779264124.448363,2173,1793,u
1779264124.449535,2122,1720,u
1779264124.452148,2055,1804,u
1779264124.453695,2110,1883,u
1779264124.4566011,2043,1652,u
1779264124.459472,2069,1704,u
1779264124.4596639,2132,2019,u
1779264124.46471,2208,2222,u
1779264124.464978,2235,1953,u
1779264124.4671109,2167,1776,u
1779264124.46844,2079,1765,u
1779264124.470083,2159,1937,u
1779264124.471785,2134,1746,u
1779264124.477827,2103,1734,u
1779264124.481876,2152,1955,u
1779264124.482408,2262,2262,u
1779264124.48604,2300,2131,u
1779264124.486395,2236,1917,u
1779264124.486701,2200,1803,u
1779264124.48693,2244,1965,u
1779264124.489079,2270,2001,u
1779264124.4904242,2203,1794,u
1779264124.4917388,2252,1923,u
1779264124.494497,2367,2237,u
1779264124.500397,2347,2246,u
1779264124.500674,2300,2043,u
1779264124.502393,2269,1880,u
1779264124.506251,2292,1970,u
1779264124.506489,2334,2104,u
1779264124.506637,2274,1914,u
1779264124.5086532,2240,2030,u
1779264124.509994,2327,2327,u
1779264124.512854,2418,2496,u
1779264124.5142221,2400,2191,u
1779264124.5187998,2361,2021,u
1779264124.519568,2337,1996,u
1779264124.5258749,2359,2102,u
1779264124.526026,2350,1957,u
1779264124.526297,2289,1869,u
1779264124.526678,2335,2106,u
1779264124.528726,2352,2382,u
1779264124.530132,2250,2241,u
1779264124.531871,2309,2076,u
1779264124.534435,2331,2022,u
1779264124.5395358,2380,2217,u
1779264124.541285,2111,2094,u
1779264124.54266,2052,2055,u
1779264124.546798,2164,2117,u
1779264124.547383,2284,2442,u
1779264124.549004,2349,2507,u
1779264124.5495522,2306,2301,u
1779264124.549593,2255,2076,u
1779264124.5522308,2102,2152,u
1779264124.553536,2258,2154,u
1779264124.561182,2328,2056,u
1779264124.5627468,2168,2096,u
1779264124.566855,2187,2255,u
1779264124.5670788,2376,2461,u
1779264124.567371,2303,2258,u
1779264124.569213,2148,2003,u
1779264124.5698402,2074,2107,u
1779264124.5698931,2210,2195,u
1779264124.5724978,2125,2048,u
1779264124.573805,2138,1984,u
1779264124.581747,2204,2276,u
1779264124.582129,2284,2489,u
1779264124.5840309,2270,2357,u
1779264124.585365,2143,2196,u
1779264124.588266,2128,2090,u
1779264124.5886211,2152,2118,u
1779264124.588873,2168,2225,u
1779264124.591145,2123,1993,u
1779264124.592549,2138,2099,u
1779264124.593886,2218,2395,u
1779264124.596752,2330,2434,u
1779264124.6011121,2210,2255,u
1779264124.6016629,2171,2160,u
1779264124.603709,2215,2237,u
1779264124.605196,2149,2253,u
1779264124.6068978,2095,2018,u
1779264124.609719,2132,2135,u
1779264124.609956,2168,2368,u
1779264124.612415,2319,2651,u
1779264124.613766,2156,2341,u
1779264124.616338,2140,2172,u
1779264124.6214778,2129,2156,u
1779264124.622329,2156,2250,u
1779264124.6228008,2153,2248,u
1779264124.6244118,2129,2223,u
1779264124.62623,2153,2285,u
1779264124.630114,2208,2575,u
1779264124.630239,2239,2385,u
1779264124.6323211,2170,2088,u
1779264124.633636,2161,2049,u
1779264124.6361191,2186,2146,u
1779264124.641012,2104,2160,u
1779264124.6411278,2045,2043,u
1779264124.643641,2100,2106,u
1779264124.643911,2189,2456,u
1779264124.649089,2230,2503,u
1779264124.6492128,2191,2295,u
1779264124.6515799,2152,2151,u
1779264124.651634,2157,2176,u
1779264124.654206,2154,2223,u
1779264124.6555362,2142,1972,u
1779264124.658035,2155,1974,u
1779264124.661744,2222,2294,u
1779264124.66215,2266,2542,u
1779264124.665758,2232,2365,u
1779264124.6674209,2153,2143,u
1779264124.6699462,2118,2058,u
1779264124.6701498,2168,2248,u
1779264124.672231,2115,2117,u
1779264124.6735501,2099,2055,u
1779264124.67612,2106,2218,u
1779264124.6829498,2214,2522,u
1779264124.684847,2222,2451,u
1779264124.6851048,2159,1976,u
1779264124.686253,2114,1937,u
1779264124.687079,2127,2207,u
1779264124.690751,2150,2156,u
1779264124.691017,2097,2054,u
1779264124.693321,2094,2133,u
1779264124.6946309,2194,2332,u
1779264124.696043,2219,2370,u
1779264124.6999428,2139,2241,u
1779264124.702692,2126,2072,u
1779264124.703522,2128,2105,u
1779264124.7053409,2143,2126,u
1779264124.7072861,2105,1971,u
1779264124.713465,2054,2018,u
1779264124.713598,2177,2324,u
1779264124.71372,2277,2560,u
1779264124.713826,2149,2267,u
1779264124.716455,2139,2080,u
1779264124.717769,2069,2065,u
1779264124.730933,2135,2130,u
1779264124.73394,2104,1955,u
1779264124.734087,2064,1753,u
1779264124.734168,2107,1993,u
1779264124.734234,2221,2408,u
1779264124.734296,2224,2236,u
1779264124.7343569,2118,2078,u
1779264124.7344158,2077,1918,u
1779264124.7359731,2108,2009,u
1779264124.738646,2144,1935,u
1779264124.7451708,2017,1665,u
1779264124.747067,2069,1894,u
1779264124.749589,2185,2154,u
1779264124.753862,2208,2195,u
1779264124.754516,2147,1850,u
1779264124.757049,2107,1730,u
1779264124.757182,2054,1859,u
1779264124.75734,2137,2026,u
1779264124.757442,2059,1603,u
1779264124.757567,2015,1575,u
1779264124.76026,2116,1820,u
1779264124.7616131,2205,2076,u
1779264124.767159,2126,1955,u
1779264124.770138,2094,1691,u
1779264124.776135,2072,1554,u
1779264124.776673,2139,1683,u
1779264124.779364,2132,1590,u
1779264124.779525,2053,1547,u
1779264124.779673,2119,1855,u
1779264124.779823,2201,2128,u
1779264124.779895,2191,1995,u
1779264124.782849,2142,1733,u
1779264124.784275,2061,1586,u
1779264124.7923598,2071,1723,u
1779264124.801738,2104,1712,u
1779264124.801888,1932,1543,u
1779264124.802041,1976,1699,u
1779264124.802142,2110,2025,u
1779264124.8022778,2182,2050,u
1779264124.8023648,2133,1693,u
1779264124.8025,2037,1504,u
1779264124.802609,2023,1580,u
1779264124.803939,2036,1594,u
1779264124.8065338,1999,1286,u
1779264124.8147259,2029,1355,u
1779264124.815246,2039,1659,u
1779264124.8177438,2130,1933,u
1779264124.822978,2102,1676,u
1779264124.8255439,2032,1548,u
1779264124.825637,2024,1534,u
1779264124.825776,2042,1753,u
1779264124.8258948,2018,1549,u
1779264124.826,2021,1432,u
1779264124.8261518,2053,1678,u
1779264124.8275661,2136,2002,u
1779264124.8340092,2117,1933,u
1779264124.835808,2067,1650,u
1779264124.8362062,2023,1475,u
1779264124.8395898,2097,1645,u
1779264124.844932,2025,1636,u
1779264124.845141,1973,1408,u
1779264124.845189,2018,1555,u
1779264124.845232,2142,1924,u
1779264124.8470452,2161,1999,u
1779264124.848459,2098,1751,u
1779264124.849726,2059,1534,u
1779264124.8559208,2059,1682,u
1779264124.858231,2081,1855,u
1779264124.858772,2035,1539,u
1779264124.862401,2035,1610,u
1779264124.8656352,2118,1915,u
1779264124.8659341,2186,2221,u
1779264124.8661802,2146,1869,u
1779264124.866571,2058,1578,u
1779264124.869118,2036,1608,u
1779264124.8704882,2096,1751,u
1779264124.8786528,2059,1583,u
1779264124.882154,2001,1504,u
1779264124.8853729,2052,1841,u
1779264124.888445,2151,2171,u
1779264124.888607,2168,1991,u
1779264124.888656,2081,1714,u
1779264124.888714,2021,1568,u
1779264124.888852,2075,1787,u
1779264124.888931,2127,1776,u
1779264124.8902621,2011,1487,u
1779264124.8917692,2052,1656,u
1779264124.9016142,2120,2053,u
1779264124.902069,2191,2136,u
1779264124.908169,2141,1781,u
1779264124.908649,2050,1662,u
1779264124.909426,2057,1715,u
1779264124.9121852,2102,1823,u
1779264124.912338,2055,1598,u
1779264124.9124339,2035,1675,u
1779264124.912731,2121,1933,u
1779264124.912862,2225,2153,u
1779264124.914277,2168,1951,u
1779264124.9202719,2092,1698,u
1779264124.921866,2074,1638,u
1779264124.925687,2106,1828,u
1779264124.927849,2088,1651,u
1779264124.931713,2063,1533,u
1779264124.9324942,2057,1768,u
1779264124.9329128,2163,2191,u
1779264124.933145,2187,2035,u
1779264124.9360142,2151,1721,u
1779264124.936146,2079,1616,u
1779264124.9362218,2069,1772,u
1779264124.937836,2061,1674,u
1779264124.940575,1992,1556,u
1779264124.946723,2034,1737,u
1779264124.947956,2134,2034,u
1779264124.9503338,2234,2122,u
1779264124.953074,2126,1771,u
1779264124.9534771,2055,1647,u
1779264124.95855,2065,1769,u
1779264124.9615622,2091,1849,u
1779264124.961656,2067,1589,u
1779264124.961728,2039,1606,u
1779264124.961798,2115,1965,u
1779264124.961865,2189,2238,u
1779264124.9735522,2134,1944,u
1779264124.978925,2060,1713,u
1779264124.979831,2042,1706,u
1779264124.982642,2087,1888,u
1779264124.982732,2072,1782,u
1779264124.982847,2033,1630,u
1779264124.982966,2107,1799,u
1779264124.9830341,2172,2190,u
1779264124.983099,2164,2001,u
1779264124.983159,2096,1677,u
1779264124.984521,2043,1554,u
1779264124.98596,2106,1732,u
1779264124.988415,2096,1651,u
1779264124.9936268,2067,1449,u
1779264124.994872,2044,1554,u
1779264124.9974048,2104,1964,u
1779264124.997818,2166,2080,u
1779264125.004559,2109,1720,u
1779264125.005244,2061,1602,u
1779264125.005785,2054,1626,u
1779264125.008503,2103,1797,u
1779264125.008652,2034,1523,u
1779264125.008745,2039,1491,u
1779264125.010127,2112,1819,u
1779264125.0168252,2191,2102,u
1779264125.0191622,2158,1846,u
1779264125.021157,2094,1556,u
1779264125.026507,2087,1503,u
1779264125.0271711,2102,1660,u
1779264125.027599,2062,1510,u
1779264125.030123,2029,1358,u
1779264125.0302489,2072,1650,u
1779264125.030313,2196,2076,u
1779264125.0303738,2182,1953,u
1779264125.0319302,2098,1582,u
1779264125.03456,2054,1460,u
1779264125.039489,2082,1680,u
1779264125.04352,2074,1621,u
1779264125.0441222,2026,1377,u
1779264125.045928,2048,1551,u
1779264125.048022,2144,1881,u
1779264125.051291,2172,2040,u
1779264125.052129,2122,1725,u
1779264125.05272,2056,1498,u
1779264125.0554812,2052,1525,u
1779264125.0556061,2078,1671,u
1779264125.055701,2019,1437,u
1779264125.0670762,2015,1496,u
1779264125.0697339,2075,1857,u
1779264125.073549,2174,2083,u
1779264125.076061,2135,1762,u
1779264125.076392,2083,1536,u
1779264125.0765219,2048,1553,u
1779264125.076632,2065,1763,u
1779264125.076761,2066,1615,u
1779264125.076877,2010,1531,u
1779264125.076991,2060,1746,u
1779264125.0783339,2172,2073,u
1779264125.079674,2168,2021,u
1779264125.082336,2089,1730,u
1779264125.0879219,2060,1584,u
1779264125.090684,2064,1687,u
1779264125.093208,2091,1645,u
1779264125.097923,2041,1409,u
1779264125.098689,2042,1594,u
1779264125.1010282,2123,1980,u
1779264125.101913,2166,2092,u
1779264125.102004,2106,1785,u
1779264125.102122,2046,1621,u
1779264125.1022348,2040,1647,u
1779264125.103594,2090,1735,u
1779264125.1092238,2046,1458,u
1779264125.111994,2023,1478,u
1779264125.114552,2091,1810,u
1779264125.1160572,2186,2162,u
1779264125.119411,2126,1810,u
1779264125.1198962,2096,1573,u
1779264125.12042,2044,1579,u
1779264125.120975,2071,1810,u
1779264125.123704,2058,1668,u
1779264125.123816,2011,1489,u
1779264125.126946,2046,1722,u
1779264125.128396,2170,2103,u
1779264125.1342552,2187,1981,u
1779264125.136273,2080,1633,u
1779264125.140378,2036,1525,u
1779264125.145032,2065,1687,u
1779264125.145791,2088,1680,u
1779264125.146197,2033,1479,u
1779264125.148488,2036,1678,u
1779264125.1494021,2132,2017,u
1779264125.149518,2166,2105,u
1779264125.149599,2116,1762,u
1779264125.149709,2048,1595,u
1779264125.156354,2049,1606,u
1779264125.1575391,2093,1756,u
1779264125.1599271,2035,1524,u
1779264125.161667,2028,1525,u
1779264125.1644301,2090,1831,u
1779264125.167534,2183,2149,u
1779264125.16835,2131,1897,u
1779264125.171415,2086,1566,u
1779264125.171638,2034,1473,u
1779264125.171693,2062,1634,u
1779264125.1717389,2035,1453,u
1779264125.174547,2013,1323,u
1779264125.175909,2059,1607,u
1779264125.183209,2129,2011,u
1779264125.183807,2143,1888,u
1779264125.185741,2071,1600,u
1779264125.1876569,2053,1516,u
1779264125.1883872,2067,1643,u
1779264125.192967,2068,1551,u
1779264125.193632,2002,1365,u
1779264125.194109,2025,1570,u
1779264125.197066,2121,2004,u
1779264125.197363,2199,1983,u
1779264125.197471,2131,1640,u
1779264125.20606,2036,1465,u
1779264125.208096,2036,1537,u
1779264125.208343,2101,1697,u
1779264125.2097611,2039,1387,u
1779264125.218623,1998,1458,u
1779264125.218739,2099,1796,u
1779264125.218812,2177,2152,u
1779264125.218876,2131,1786,u
1779264125.218993,2072,1536,u
1779264125.219092,2047,1507,u
1779264125.220599,2098,1626,u
1779264125.222013,2061,1460,u
1779264125.233495,1979,1356,u
1779264125.234024,2045,1615,u
1779264125.236765,2143,2002,u
1779264125.241791,2162,1887,u
1779264125.24476,2095,1572,u
1779264125.2448409,2028,1408,u
1779264125.244908,2044,1596,u
1779264125.244971,2072,1613,u
1779264125.2450418,1994,1420,u
1779264125.245106,2021,1568,u
1779264125.245257,2115,1966,u
1779264125.2465339,2181,2057,u
1779264125.253403,2112,1615,u
1779264125.2568269,2073,1442,u
1779264125.2649422,2025,1463,u
1779264125.265297,2067,1618,u
1779264125.265971,2030,1268,u
1779264125.2694678,2017,1414,u
1779264125.269546,2087,1756,u
1779264125.269608,2166,2061,u
1779264125.269668,2118,1762,u
1779264125.269778,2061,1533,u
1779264125.269841,2036,1502,u
1779264125.269911,2064,1715,u
1779264125.2725592,2043,1527,u
1779264125.2739289,2018,1465,u
1779264125.275708,2064,1719,u
1779264125.284947,2147,2088,u
1779264125.287358,2133,1940,u
1779264125.290046,2057,1632,u
1779264125.293928,2033,1523,u
1779264125.2945,2055,1782,u
1779264125.29488,2067,1727,u
1779264125.295255,2016,1458,u
1779264125.2985559,2044,1622,u
1779264125.298701,2131,2048,u
1779264125.298901,2171,2141,u
1779264125.298971,2105,1748,u
1779264125.3003259,2052,1549,u
1779264125.307661,2043,1622,u
1779264125.310708,2083,1795,u
1779264125.313484,2024,1507,u
1779264125.313605,2009,1505,u
1779264125.313747,2081,1933,u
1779264125.3160372,2165,2231,u
1779264125.323136,2130,1927,u
1779264125.323532,2065,1643,u
1779264125.323667,2041,1553,u
1779264125.32381,2101,1801,u
1779264125.323881,2063,1692,u
1779264125.3239949,1990,1548,u
1779264125.325431,2061,1781,u
1779264125.328116,2173,2223,u
1779264125.329497,2176,2098,u
1779264125.339309,2092,1791,u
1779264125.344007,2037,1610,u
1779264125.344463,2054,1815,u
1779264125.348186,2060,1773,u
1779264125.349308,2024,1483,u
1779264125.3526132,2034,1664,u
1779264125.352705,2106,2120,u
1779264125.3528278,2170,2213,u
1779264125.352918,2126,1819,u
1779264125.353042,2041,1595,u
1779264125.3531709,2040,1685,u
1779264125.3545349,2091,1834,u
1779264125.361811,2004,1535,u
1779264125.36505,2012,1671,u
1779264125.365603,2095,2041,u
1779264125.366025,2164,2401,u
1779264125.368912,2128,2004,u
1779264125.374491,2034,1690,u
1779264125.374999,2009,1685,u
1779264125.375933,2067,1918,u
1779264125.379306,2027,1746,u
1779264125.3794072,1998,1532,u
1779264125.3795142,2031,1786,u
1779264125.379581,2128,2268,u
1779264125.3796911,2133,2155,u
1779264125.3823218,2069,1809,u
1779264125.383682,2026,1625,u
1779264125.386532,2038,1827,u
1779264125.393795,2080,1849,u
1779264125.400776,2014,1575,u
1779264125.401246,2035,1746,u
1779264125.40825,2117,2164,u
1779264125.409398,2174,2257,u
1779264125.409594,2100,1821,u
1779264125.409694,2059,1799,u
1779264125.409761,2046,1865,u
1779264125.4098618,2098,1971,u
1779264125.409937,2018,1569,u
1779264125.4100401,1998,1666,u
1779264125.4101179,2089,2048,u
1779264125.411469,2177,2418,u
1779264125.4166698,2123,2041,u
1779264125.417695,2057,1636,u
1779264125.420405,2038,1579,u
1779264125.42078,2063,1796,u
1779264125.423007,2046,1789,u
1779264125.427396,1996,1721,u
1779264125.428,2061,1934,u
1779264125.428493,2150,2322,u
1779264125.431364,2150,2168,u
1779264125.431519,2080,1844,u
1779264125.4341109,2020,1700,u
1779264125.472652,2044,1893,u
1779264125.4727502,2055,1832,u
1779264125.472872,2008,1553,u
1779264125.472929,2031,1764,u
1779264125.4729779,2108,2159,u
1779264125.473022,2168,2260,u
1779264125.473123,2119,1878,u
1779264125.4731789,2057,1799,u
1779264125.473224,2037,1938,u
1779264125.47327,2069,2008,u
1779264125.473312,2030,1684,u
1779264125.4734652,2014,1683,u
1779264125.4736168,2075,2086,u
1779264125.473716,2171,2406,u
1779264125.4738078,2141,2082,u
1779264125.4739552,2054,1838,u
1779264125.4740329,2035,1737,u
1779264125.4741042,2072,1900,u
1779264125.4742138,2036,1729,u
1779264125.474277,1993,1637,u
1779264125.475612,2037,1948,u
1779264125.478176,2148,2363,u
1779264125.480004,2147,2180,u
1779264125.4815779,2081,1847,u
1779264125.484519,2027,1712,u
1779264125.48812,2070,1854,u
1779264125.488176,2076,1885,u
1779264125.489503,2020,1613,u
1779264125.498147,2028,1739,u
1779264125.5002098,2094,2228,u
1779264125.505101,2148,2353,u
1779264125.510613,2105,1958,u
1779264125.51119,2037,1693,u
1779264125.511557,2033,1781,u
1779264125.512028,2072,1999,u
1779264125.512668,2016,1687,u
1779264125.515859,2022,1634,u
1779264125.516007,2073,2027,u
1779264125.516141,2168,2377,u
1779264125.5162408,2126,2011,u
1779264125.516356,2054,1743,u
1779264125.5176,2038,1752,u
1779264125.52738,2067,1986,u
1779264125.527824,2052,1789,u
1779264125.528057,2001,1690,u
1779264125.5360892,2045,1928,u
1779264125.5366662,2134,2384,u
1779264125.536932,2147,2255,u
1779264125.53718,2096,1883,u
1779264125.537948,2024,1707,u
1779264125.538508,2049,1847,u
1779264125.540954,2064,1836,u
1779264125.541771,2011,1611,u
1779264125.541916,2002,1822,u
1779264125.5446332,2103,2267,u
1779264125.546029,2174,2433,u
1779264125.548525,2125,1983,u
1779264125.554448,2064,1780,u
1779264125.55499,2068,1881,u
1779264125.557458,2085,2063,u
1779264125.5577972,2053,1743,u
1779264125.55796,2024,1758,u
1779264125.561505,2088,2099,u
1779264125.5618382,2174,2368,u
1779264125.5654132,2141,2078,u
1779264125.566015,2048,1790,u
1779264125.5692549,2030,1714,u
1779264125.569636,2041,2006,u
1779264125.5723321,2018,1834,u
1779264125.580111,1993,1706,u
1779264125.5826938,2047,2027,u
1779264125.583082,2137,2382,u
1779264125.583353,2144,2238,u
1779264125.583636,2088,1967,u
1779264125.583967,2033,1774,u
1779264125.58693,2059,1969,u
1779264125.5924191,2072,1968,u
1779264125.593018,2006,1714,u
1779264125.5939891,2009,1855,u
1779264125.59697,2104,2289,u
1779264125.5970602,2168,2394,u
1779264125.598923,2100,2017,u
1779264125.600311,2045,1825,u
1779264125.601671,2042,1799,u
1779264125.610142,2073,2041,u
1779264125.613676,2026,1738,u
1779264125.615916,2043,1765,u
1779264125.618432,2047,2170,u
1779264125.622228,2185,2485,u
1779264125.622902,2159,2184,u
1779264125.6238852,2117,1885,u
1779264125.626969,2042,1854,u
1779264125.627118,2052,2091,u
1779264125.627282,2040,1970,u
1779264125.627425,1993,1814,u
1779264125.627496,1994,2051,u
1779264125.6275682,2100,2458,u
1779264125.630355,2093,2391,u
1779264125.6385632,2072,1998,u
1779264125.6411688,2061,1821,u
1779264125.646982,2025,1985,u
1779264125.647649,2007,2073,u
1779264125.648108,2099,1847,u
1779264125.651103,2093,2121,u
1779264125.652182,1998,2392,u
1779264125.652263,2049,2473,u
1779264125.6523268,2396,2271,u
1779264125.652412,2132,1944,u
1779264125.6524842,1999,1829,u
1779264125.6538439,1983,2021,u
1779264125.656391,1931,1798,u
1779264125.657772,2172,2011,u
1779264125.667465,2188,2244,u
1779264125.6678212,2068,2464,u
1779264125.6683068,2080,2157,u
1779264125.670374,1994,2037,u
1779264125.676157,1907,1862,u
1779264125.676699,1954,1907,u
1779264125.677312,2079,1911,u
1779264125.67773,1955,1893,u
1779264125.678102,2033,2118,u
1779264125.6785312,2159,2767,u
1779264125.681987,2192,2557,u
1779264125.6821299,1997,2146,u
1779264125.683512,1990,1921,u
1779264125.6891232,2138,2218,u
1779264125.690975,2016,1971,u
1779264125.691175,1801,1598,u
1779264125.69414,2049,2186,u
1779264125.696372,2090,2613,u
1779264125.699145,2007,2378,u
1779264125.7030249,2005,2233,u
1779264125.703418,2238,2237,u
1779264125.704065,2096,2353,u
1779264125.704361,2027,2652,u
1779264125.707742,1853,2635,u
1779264125.7078521,1706,2674,u
1779264125.710315,1921,2612,u
1779264125.7117188,2098,3224,u
1779264125.721987,1856,3152,u
1779264125.7260191,1922,2657,u
1779264125.729231,1971,2811,u
1779264125.7298582,2118,3153,u
1779264125.7334,2014,3346,u
1779264125.73425,1811,3110,u
1779264125.7343261,2046,2877,u
1779264125.734389,2191,4095,u
1779264125.734539,2228,3537,u
1779264125.734661,1771,2860,u
1779264125.734786,1699,2858,u
1779264125.736167,1888,3460,u
1779264125.742691,1871,3918,u
1779264125.7446852,1738,3887,u
1779264125.749088,1945,4000,u
1779264125.753361,1924,4095,u
1779264125.7536588,1987,3976,u
1779264125.754432,1953,3341,u
1779264125.756795,1747,3154,u
1779264125.7578502,1700,3442,u
1779264125.757955,2041,3999,u
1779264125.758068,1754,4095,u
1779264125.758183,1762,4095,u
1779264125.759527,1804,4095,u
1779264125.76216,1940,4095,u
1779264125.769273,1782,3845,u
1779264125.77186,1846,3625,u
1779264125.776274,1722,3658,u
1779264125.780229,1754,3888,u
1779264125.781059,1806,4095,u
1779264125.783594,1754,4095,u
1779264125.784641,2069,4095,u
1779264125.78472,1943,4095,u
1779264125.7848132,2034,4056,u
1779264125.784947,1888,3890,u
1779264125.785022,1889,3837,u
1779264125.786431,2006,3913,u
1779264125.793222,1757,4053,u
1779264125.7959511,1847,4095,u
1779264125.798485,1840,4095,u
1779264125.8033211,1774,4095,u
1779264125.804091,1933,4095,u
1779264125.8045819,1970,4021,u
1779264125.807689,1755,3961,u
1779264125.807838,1856,3967,u
1779264125.807929,1864,4028,u
1779264125.8079948,1741,4095,u
1779264125.808107,1844,4095,u
1779264125.8094668,2041,4095,u
1779264125.812086,1999,4095,u
1779264125.813477,1865,4072,u
1779264125.820649,1774,4029,u
1779264125.823929,1742,4014,u
1779264125.824343,2031,4034,u
1779264125.827122,1984,4068,u
1779264125.828993,1787,4095,u
1779264125.833287,1853,4095,u
1779264125.8338618,1939,4095,u
1779264125.837086,1896,4088,u
1779264125.837229,1908,4061,u
1779264125.8373601,1921,4046,u
1779264125.837493,1920,4044,u
1779264125.837631,1837,4055,u
1779264125.846194,1756,3323,u
1779264125.848156,1912,3269,u
1779264125.848622,2114,3755,u
1779264125.8523562,2096,4046,u
1779264125.856033,1994,3845,u
1779264125.856626,1784,3807,u
1779264125.856996,1716,3725,u
1779264125.860227,1723,3433,u
1779264125.860367,1850,3016,u
1779264125.8605142,1755,2755,u
1779264125.8606389,1783,2949,u
1779264125.862019,1833,3283,u
1779264125.8634949,1882,3075,u
1779264125.866409,1848,2877,u
1779264125.873044,1911,2820,u
1779264125.875894,2067,2376,u
1779264125.877863,1884,2415,u
1779264125.880328,1801,2594,u
1779264125.884296,1732,2125,u
1779264125.884688,1909,2368,u
1779264125.88529,1920,2520,u
1779264125.8858721,1966,2464,u
1779264125.888213,1783,2620,u
1779264125.8891509,1810,2496,u
1779264125.8892338,1923,2699,u
1779264125.889398,1867,2525,u
1779264125.896749,1827,2408,u
1779264125.89996,1867,2343,u
1779264125.9045398,1955,2547,u
1779264125.908452,2005,2469,u
1779264125.909268,1823,2277,u
1779264125.9124851,1776,2335,u
1779264125.9129448,1859,2321,u
1779264125.913047,1828,2378,u
1779264125.9132779,1893,2275,u
1779264125.913465,1926,2372,u
1779264125.913528,2122,2596,u
1779264125.913588,2160,2362,u
1779264125.9162529,1976,2184,u
1779264125.917412,1873,2067,u
1779264125.925693,1970,2219,u
1779264125.928895,1942,2239,u
1779264125.932246,1883,2069,u
1779264125.938244,1847,2308,u
1779264125.9390268,2007,2275,u
1779264125.942142,1930,2370,u
1779264125.942234,2061,2469,u
1779264125.94238,2228,2172,u
1779264125.9424472,2025,2123,u
1779264125.942559,2024,2390,u
1779264125.942707,2028,2292,u
1779264125.9427998,2093,2294,u
1779264125.944171,2056,2404,u
1779264125.949773,2083,2406,u
1779264125.9512792,1997,2449,u
1779264125.953394,2057,2305,u
1779264125.953761,2050,2302,u
1779264125.958015,1959,2408,u
1779264125.96175,1933,2271,u
1779264125.9624279,1973,2364,u
1779264125.964872,2034,2576,u
1779264125.965844,2086,2555,u
1779264125.965961,1925,2415,u
1779264125.966043,1879,2056,u
1779264125.968607,1775,2089,u
1779264125.9698749,2173,2397,u
1779264125.97747,2188,2481,u
1779264125.9783082,2209,2396,u
1779264125.980566,2149,2304,u
1779264125.982692,2072,2574,u
1779264125.984135,2235,2021,u
1779264125.989311,2256,2128,u
1779264125.989752,1907,2251,u
1779264125.9904408,1990,2363,u
1779264125.993216,1966,2197,u
1779264125.993359,1949,1848,u
1779264125.993498,1824,1868,u
1779264125.993613,1925,2072,u
1779264126.004163,2144,2216,u
1779264126.004787,2118,2269,u
1779264126.0050912,2151,2186,u
1779264126.009311,2077,2189,u
1779264126.0133052,2066,2070,u
1779264126.013747,1988,1960,u
1779264126.014426,2077,1919,u
1779264126.015158,2016,2149,u
1779264126.0175622,2021,2338,u
1779264126.018417,2103,2097,u
1779264126.018539,1992,1866,u
1779264126.0186582,1861,1911,u
1779264126.019837,1916,1875,u
1779264126.022479,2058,1998,u
1779264126.023901,2018,1988,u
1779264126.029686,2016,2015,u
1779264126.0314581,2059,1963,u
1779264126.0431428,2355,2118,u
1779264126.043408,2116,2002,u
1779264126.04354,1897,1958,u
1779264126.043635,1896,1930,u
1779264126.043726,1952,2066,u
1779264126.043825,1957,1884,u
1779264126.043919,1927,2019,u
1779264126.044037,1976,2097,u
1779264126.045415,2224,1962,u
1779264126.04821,2077,2049,u
1779264126.053165,2024,1848,u
1779264126.055636,2140,1839,u
1779264126.0571141,2002,2022,u
1779264126.0582132,2125,1898,u
1779264126.0596359,2057,1847,u
1779264126.062668,2027,1919,u
1779264126.0629492,2108,2205,u
1779264126.066029,2236,2174,u
1779264126.06613,2036,1815,u
1779264126.067449,1886,1970,u
1779264126.074167,2052,2091,u
1779264126.075799,1870,2050,u
1779264126.076129,1765,1916,u
1779264126.078434,1899,1956,u
1779264126.083222,2261,2275,u
1779264126.083953,2244,2069,u
1779264126.085813,1990,1874,u
1779264126.08673,2104,1884,u
1779264126.086856,2114,1957,u
1779264126.088268,2198,1868,u
1779264126.089609,2056,1816,u
1779264126.0921128,1877,1862,u
1779264126.0997,2046,1998,u
1779264126.101092,2147,2125,u
1779264126.10207,2035,2056,u
1779264126.1035478,1812,1888,u
1779264126.106946,2010,1844,u
1779264126.107338,1932,2049,u
1779264126.107608,1937,2044,u
1779264126.1101272,2174,2000,u
1779264126.1101818,2126,2069,u
1779264126.111499,2168,2103,u
1779264126.1141021,1935,2062,u
1779264126.115425,1916,1986,u
1779264126.121014,2004,2019,u
1779264126.121552,2055,2149,u
1779264126.12356,2087,1956,u
1779264126.125176,2074,1844,u
1779264126.127424,1876,1902,u
1779264126.1309261,2060,2171,u
1779264126.133253,2216,2236,u
1779264126.1339788,2087,1987,u
1779264126.13411,2025,1862,u
1779264126.135458,1970,2030,u
1779264126.141289,1905,1993,u
1779264126.142198,1941,1835,u
1779264126.143998,1889,2014,u
1779264126.144199,1965,2149,u
1779264126.14746,2146,2195,u
1779264126.1506538,2050,2128,u
1779264126.151416,2035,2183,u
1779264126.153857,2005,2127,u
1779264126.15405,2071,2131,u
1779264126.155519,2093,2028,u
1779264126.1581151,2032,1870,u
1779264126.159441,1840,1904,u
1779264126.165765,2172,2192,u
1779264126.167913,2160,2149,u
1779264126.168282,1911,2045,u
1779264126.170083,2065,1957,u
1779264126.1706932,2093,1939,u
1779264126.174966,2089,2046,u
1779264126.1751769,2011,2125,u
1779264126.1779451,2067,2072,u
1779264126.178027,2112,2046,u
1779264126.179358,2134,1990,u
1779264126.184973,2103,1975,u
1779264126.185473,2007,2093,u
1779264126.187861,1911,1949,u
1779264126.188046,1920,1932,u
1779264126.1901581,1862,1927,u
1779264126.194315,2025,1890,u
1779264126.1947331,2315,2012,u
1779264126.197356,2223,2260,u
1779264126.1977642,2229,2057,u
1779264126.200215,2158,1776,u
1779264126.201535,2152,1885,u
1779264126.207902,2187,2392,u
1779264126.208853,2108,2056,u
1779264126.208997,2227,1940,u
1779264126.2110121,2081,1982,u
1779264126.214617,2028,2364,u
1779264126.217788,1864,2145,u
1779264126.217973,1946,2149,u
1779264126.218335,1972,2050,u
1779264126.220855,2137,1994,u
1779264126.2221801,2171,2085,u
1779264126.223507,1967,2015,u
1779264126.227799,1895,2139,u
1779264126.229627,2273,2332,u
1779264126.231293,2249,2231,u
1779264126.2336261,2019,2122,u
1779264126.235074,2091,2084,u
1779264126.2382212,2017,2183,u
1779264126.238555,2102,1887,u
1779264126.241189,1894,1926,u
1779264126.241292,1958,2059,u
1779264126.244212,2110,2280,u
1779264126.2455308,2318,2324,u
1779264126.2541928,2084,2123,u
1779264126.254484,2082,1960,u
1779264126.254752,2023,1959,u
1779264126.256897,2041,2232,u
1779264126.2613719,2080,1951,u
1779264126.261604,1940,1836,u
1779264126.26206,2027,1897,u
1779264126.264669,2075,2053,u
1779264126.2657511,1904,1984,u
1779264126.265837,1980,1819,u
1779264126.273134,2002,1921,u
1779264126.274049,2156,1969,u
1779264126.276074,2260,1753,u
1779264126.277258,2004,1804,u
1779264126.279511,1882,1851,u
1779264126.2828119,2142,1969,u
1779264126.283264,2185,2108,u
1779264126.2859762,2283,2037,u
1779264126.286061,2035,2006,u
1779264126.286171,1939,2029,u
1779264126.287534,1959,1877,u
1779264126.2899652,2009,1739,u
1779264126.291339,2077,1820,u
1779264126.2972531,2019,2032,u
1779264126.29935,1984,2119,u
1779264126.29971,2163,2071,u
1779264126.3019688,2231,2093,u
1779264126.303377,2066,2000,u
1779264126.303615,2122,1990,u
1779264126.307054,2112,1895,u
1779264126.309566,1967,1701,u
1779264126.309779,2072,1849,u
1779264126.315786,2175,2094,u
1779264126.316362,2132,1955,u
1779264126.319298,2035,1734,u
1779264126.319713,2022,1694,u
1779264126.321814,2162,1674,u
1779264126.323308,1984,1418,u
1779264126.326588,1795,1213,u
1779264126.329462,2278,1355,u
1779264126.329567,2339,1488,u
1779264126.329636,2226,1580,u
1779264126.332361,2121,1338,u
1779264126.333677,1964,1184,u
1779264126.338421,1913,1312,u
1779264126.3394072,1993,1243,u
1779264126.341496,2011,1110,u
1779264126.34166,2121,1094,u
1779264126.3471968,2046,1057,u
1779264126.347637,2077,1245,u
1779264126.3481019,2042,995,u
1779264126.350334,2079,594,u
1779264126.351648,2099,431,u
1779264126.354374,2174,560,u
1779264126.358937,2030,436,u
1779264126.359802,1984,664,u
1779264126.359972,2115,541,u
1779264126.362088,2197,500,u
1779264126.36784,2171,411,u
1779264126.368107,1924,268,u
1779264126.368426,1932,121,u
1779264126.370782,2005,367,u
1779264126.3720891,2146,223,u
1779264126.373441,1986,522,u
1779264126.3760698,2010,523,u
1779264126.382741,2258,499,u
1779264126.385891,2156,587,u
1779264126.386056,2058,590,u
1779264126.3889978,2065,484,u
1779264126.38929,2115,512,u
1779264126.39117,2090,391,u
1779264126.391875,2030,456,u
1779264126.391917,1949,573,u
1779264126.3932679,1987,462,u
1779264126.3958569,2082,828,u
1779264126.4009979,2012,843,u
1779264126.401907,2165,786,u
1779264126.402424,2057,665,u
1779264126.404654,2199,545,u
1779264126.406639,2011,427,u
1779264126.410542,1940,668,u
1779264126.410806,1994,548,u
1779264126.4133189,2224,629,u
1779264126.4134321,2292,862,u
1779264126.416041,2084,723,u
1779264126.417357,2005,530,u
1779264126.4221609,2191,651,u
1779264126.42273,2144,531,u
1779264126.424802,2053,651,u
1779264126.4263191,2047,661,u
1779264126.427972,2048,756,u
1779264126.43102,2105,920,u
1779264126.433311,2027,741,u
1779264126.4336672,2241,761,u
1779264126.436279,1858,749,u
1779264126.4377012,2130,525,u
1779264126.444048,2092,601,u
1779264126.4454532,2112,745,u
1779264126.445657,2064,681,u
1779264126.447523,2151,1013,u
1779264126.44766,2078,957,u
1779264126.449367,2048,779,u
1779264126.452241,2030,879,u
1779264126.454824,1993,977,u
1779264126.456256,1972,507,u
1779264126.457559,2022,815,u
1779264126.463839,2066,731,u
1779264126.464119,2197,1222,u
1779264126.464642,2165,1145,u
1779264126.4669209,2115,942,u
1779264126.4688692,2067,915,u
1779264126.472878,2035,1060,u
1779264126.473153,1905,810,u
1779264126.4732742,1938,815,u
1779264126.476347,2090,889,u
1779264126.47758,2121,1215,u
1779264126.480171,2180,1323,u
1779264126.4851468,1990,1208,u
1779264126.486038,2009,1077,u
1779264126.4891,2101,1071,u
1779264126.4907,1999,1054,u
1779264126.490871,2099,779,u
1779264126.493647,2145,1046,u
1779264126.494118,2135,1357,u
1779264126.496589,2222,1512,u
1779264126.498086,2235,1431,u
1779264126.4994218,2141,1194,u
1779264126.5052722,2036,1260,u
1779264126.506114,2024,1380,u
1779264126.5062459,2062,1152,u
1779264126.5087922,1937,1113,u
1779264126.5118022,1896,1221,u
1779264126.514876,2077,1670,u
1779264126.5152378,2391,1424,u
1779264126.515501,2116,1233,u
1779264126.517762,2075,1260,u
1779264126.520468,2036,1339,u
1779264126.521823,2077,1180,u
1779264126.526625,2039,1058,u
1779264126.5295832,1965,1371,u
1779264126.531349,2051,1739,u
1779264126.5334709,2318,1542,u
1779264126.5365639,2121,1547,u
1779264126.536723,2022,1305,u
1779264126.5370939,2111,1472,u
1779264126.539392,2058,1563,u
1779264126.539715,2067,1345,u
1779264126.542675,2083,1333,u
1779264126.544134,2104,1690,u
1779264126.549212,2175,1829,u
1779264126.550082,1999,1525,u
1779264126.553387,1986,1383,u
1779264126.555083,1991,1356,u
1779264126.5579698,2085,1658,u
1779264126.558251,2020,1408,u
1779264126.5585139,1927,1352,u
1779264126.560949,2028,1683,u
1779264126.562529,2237,1969,u
1779264126.563914,2244,1795,u
1779264126.565248,2085,1552,u
1779264126.571754,2028,1483,u
1779264126.573282,2124,1664,u
1779264126.574656,2103,1569,u
1779264126.576261,1999,1382,u
1779264126.5814059,2020,1647,u
1779264126.5819561,2116,2007,u
1779264126.582203,2173,1968,u
1779264126.582324,2127,1654,u
1779264126.583749,2029,1523,u
1779264126.58636,2070,1618,u
1779264126.591072,2102,1707,u
1779264126.592793,2101,1584,u
1779264126.5941582,2058,1598,u
1779264126.594471,2127,1910,u
1779264126.5964081,2224,2059,u
1779264126.600481,2142,1781,u
1779264126.6007712,2062,1605,u
1779264126.6029959,2011,1614,u
1779264126.6043131,2078,1834,u
1779264126.6057322,2059,1608,u
1779264126.608336,2112,1450,u
1779264126.612782,2169,1815,u
1779264126.614099,2191,2312,u
1779264126.61565,2186,1991,u
1779264126.617185,2115,1627,u
1779264126.618675,2041,1621,u
1779264126.6216059,2108,1877,u
1779264126.6219652,2111,1779,u
1779264126.6243021,2060,1610,u
1779264126.6256871,2079,1769,u
1779264126.628148,2190,2060,u
1779264126.6295612,2201,2035,u
1779264126.634741,2169,1770,u
1779264126.634893,2100,1718,u
1779264126.6370401,2163,1890,u
1779264126.639053,2198,1917,u
1779264126.643114,2175,1714,u
1779264126.643391,2138,1794,u
1779264126.6436322,2215,2078,u
1779264126.645934,2268,2224,u
1779264126.647259,2268,1913,u
1779264126.64968,2240,1767,u
1779264126.654896,2160,1826,u
1779264126.6558259,2211,1894,u
1779264126.656283,2190,1724,u
1779264126.658134,2166,1768,u
1779264126.660185,2239,1974,u
1779264126.666639,2290,2293,u
1779264126.667295,2240,2108,u
1779264126.6674812,2213,1901,u
1779264126.6675231,2185,1820,u
1779264126.670114,2236,1979,u
1779264126.671433,2292,1879,u
1779264126.6776059,2145,1715,u
1779264126.6777542,2186,1946,u
1779264126.6785789,2329,2266,u
1779264126.680146,2297,2231,u
1779264126.683399,2197,1988,u
1779264126.686124,2243,1859,u
1779264126.686284,2178,1933,u
1779264126.68883,2252,2106,u
1779264126.6901498,2331,1907,u
1779264126.6914601,2194,1978,u
1779264126.69873,1969,2192,u
1779264126.700269,2349,2440,u
1779264126.700437,2351,2118,u
1779264126.700724,2133,1879,u
1779264126.702568,2002,1991,u
1779264126.7065148,2120,2104,u
1779264126.7068732,2198,1946,u
1779264126.7086852,2039,1878,u
1779264126.7100108,2131,2198,u
1779264126.711314,2455,2460,u
1779264126.7138948,2480,2288,u
1779264126.7176251,2144,2099,u
1779264126.7181509,2120,1963,u
1779264126.7203782,1979,2169,u
1779264126.7230332,2075,2016,u
1779264126.725586,2167,1880,u
1779264126.726013,1945,2111,u
1779264126.728139,2191,2398,u
1779264126.729656,2277,2299,u
1779264126.731232,2026,2078,u
1779264126.7338,2084,1994,u
1779264126.7381601,2223,1993,u
1779264126.7382798,2133,2121,u
1779264126.7407281,2100,1936,u
1779264126.743433,2066,2017,u
1779264126.743718,2137,2362,u
1779264126.7462459,2213,2526,u
1779264126.748512,2127,2219,u
1779264126.749832,2085,2089,u
1779264126.7516448,2119,2071,u
1779264126.754377,2235,2271,u
1779264126.762669,2143,2032,u
1779264126.767031,2128,1923,u
1779264126.767541,2156,2181,u
1779264126.769427,2198,2524,u
1779264126.769603,2253,2222,u
1779264126.769691,2155,2067,u
1779264126.76975,2105,1965,u
1779264126.7698078,2186,2144,u
1779264126.7712471,2162,2071,u
1779264126.773951,2129,1968,u
1779264126.7751958,2200,2218,u
1779264126.778731,2150,2453,u
1779264126.7814279,2297,2374,u
1779264126.7825139,2171,2175,u
1779264126.784371,2158,2036,u
1779264126.7872472,2105,2205,u
1779264126.787647,2172,2270,u
1779264126.789737,2129,1935,u
1779264126.7911239,2119,2045,u
1779264126.793704,2151,2350,u
1779264126.7996428,2163,2504,u
1779264126.802167,2222,2305,u
1779264126.8039832,2150,2114,u
1779264126.805116,2128,2005,u
1779264126.807874,2144,2166,u
1779264126.808291,2116,2016,u
1779264126.810313,2088,2035,u
1779264126.81042,2167,2367,u
1779264126.811726,2223,2578,u
1779264126.8134358,2238,2341,u
1779264126.815972,2082,2120,u
1779264126.819597,2081,2102,u
1779264126.821982,2116,2295,u
1779264126.825114,2062,2149,u
1779264126.827782,2014,2069,u
1779264126.828212,2044,2147,u
1779264126.828511,2151,2486,u
1779264126.830795,2197,2515,u
1779264126.8323069,2146,2244,u
1779264126.833633,2163,2081,u
1779264126.836533,2063,2072,u
1779264126.840368,2094,2162,u
1779264126.8459158,2051,1992,u
1779264126.848661,2006,2054,u
1779264126.849105,2162,2272,u
1779264126.8493629,2198,2350,u
1779264126.849525,2066,2218,u
1779264126.849782,2104,2166,u
1779264126.852184,2102,2042,u
1779264126.8535402,2114,2090,u
1779264126.856019,2066,1985,u
1779264126.857379,2049,1944,u
1779264126.86138,2080,2174,u
1779264126.8660228,2186,2426,u
1779264126.8673139,2200,2316,u
1779264126.870267,2109,2074,u
1779264126.870538,2039,1980,u
1779264126.8707788,2133,2050,u
1779264126.872854,2063,2108,u
1779264126.874183,2049,2009,u
1779264126.875505,2084,2152,u
1779264126.87812,2164,2438,u
1779264126.884301,2198,2446,u
1779264126.884588,2149,2160,u
1779264126.8862221,2071,2128,u
1779264126.890487,2054,2133,u
1779264126.890701,2098,2184,u
1779264126.890965,2065,1938,u
1779264126.891212,2023,2113,u
1779264126.894227,2100,2411,u
1779264126.89636,2189,2644,u
1779264126.8979142,2138,2328,u
1779264126.9029398,2105,2050,u
1779264126.9038029,2038,1992,u
1779264126.904337,2079,2146,u
1779264126.9069078,2069,1927,u
1779264126.910909,2058,1956,u
1779264126.911075,2081,2218,u
1779264126.9112792,2207,2502,u
1779264126.914288,2125,2370,u
1779264126.915626,2049,2094,u
1779264126.9181912,2023,2026,u
1779264126.922878,2099,2168,u
1779264126.923316,2081,2048,u
1779264126.923403,2039,1872,u
1779264126.9252841,2053,2086,u
1779264126.9281979,2138,2396,u
1779264126.931633,2171,2369,u
1779264126.931793,2126,1960,u
1779264126.933533,2116,1772,u
1779264126.9361029,2067,1883,u
1779264126.937429,2090,2020,u
1779264126.9427588,2019,1706,u
1779264126.943618,2069,1796,u
1779264126.944434,2098,2128,u
1779264126.947822,2178,2260,u
1779264126.9479418,2120,1966,u
1779264126.9514618,2075,1809,u
1779264126.9518,2074,1852,u
1779264126.953857,2082,2065,u
1779264126.955186,2091,1783,u
1779264126.9577549,2016,1664,u
1779264126.959157,2040,1951,u
1779264126.966105,2151,2269,u
1779264126.966327,2190,2096,u
1779264126.9674292,2105,1864,u
1779264126.96786,2052,1690,u
1779264126.971858,2064,2000,u
1779264126.972197,2066,1855,u
1779264126.974366,1975,1573,u
1779264126.9756749,2054,1811,u
1779264126.9782588,2139,2223,u
1779264126.979717,2193,2168,u
1779264126.9845881,2095,1820,u
1779264126.986031,2023,1689,u
1779264126.98755,2079,1808,u
1779264126.989242,2030,1866,u
1779264126.991799,2042,1631,u
1779264126.9920902,2003,1544,u
1779264126.9942698,2079,1913,u
1779264126.995567,2147,2170,u
1779264126.9982479,2101,1851,u
1779264126.99959,2079,1636,u
1779264127.003433,2012,1663,u
1779264127.005234,2074,1781,u
1779264127.006586,2028,1464,u
1779264127.0083451,2006,1445,u
1779264127.0118961,2116,1711,u
1779264127.0123,2163,1955,u
1779264127.014566,2119,1831,u
1779264127.015929,2051,1590,u
1779264127.017349,1991,1473,u
1779264127.019982,2054,1643,u
1779264127.034667,2064,1470,u
1779264127.0347788,2011,1314,u
1779264127.0348532,2043,1536,u
1779264127.034919,2119,1950,u
1779264127.03498,2183,1997,u
1779264127.035043,2107,1645,u
1779264127.035142,2064,1477,u
1779264127.0352159,2066,1606,u
1779264127.037917,2058,1629,u
1779264127.039344,2010,1391,u
1779264127.054083,2038,1485,u
1779264127.0567749,2087,1824,u
1779264127.057337,2127,2009,u
1779264127.05816,2117,1675,u
1779264127.05825,2050,1484,u
1779264127.058315,2039,1497,u
1779264127.0586371,2071,1630,u
1779264127.0587049,2047,1353,u
1779264127.058767,1995,1273,u
1779264127.060313,2088,1560,u
1779264127.061685,2180,1890,u
1779264127.075369,2148,1717,u
1779264127.0778089,2083,1404,u
1779264127.077885,2037,1334,u
1779264127.0779479,2084,1457,u
1779264127.0780108,2049,1321,u
1779264127.078072,2025,1187,u
1779264127.078159,2067,1349,u
1779264127.0782201,2146,1799,u
1779264127.079644,2173,1808,u
1779264127.0823581,2102,1490,u
1779264127.092814,2045,1267,u
1779264127.096226,2095,1321,u
1779264127.098878,2092,1367,u
1779264127.0989811,2028,1124,u
1779264127.099093,2022,1340,u
1779264127.0991979,2087,1580,u
1779264127.099286,2196,1832,u
1779264127.099354,2115,1531,u
1779264127.099416,2057,1366,u
1779264127.102061,2056,1393,u
1779264127.103434,2074,1604,u
1779264127.108823,2023,1260,u
1779264127.1103842,2003,1341,u
1779264127.114435,2062,1459,u
1779264127.118817,2140,1882,u
1779264127.119156,2135,1723,u
1779264127.122148,2074,1359,u
1779264127.122355,2029,1338,u
1779264127.122504,2071,1538,u
1779264127.122622,2053,1353,u
1779264127.1240761,2015,1239,u
1779264127.125536,2028,1414,u
1779264127.131485,2110,1906,u
1779264127.132195,2150,1967,u
1779264127.1353102,2099,1635,u
1779264127.141568,2028,1434,u
1779264127.142296,2031,1544,u
1779264127.1443279,2064,1664,u
1779264127.145071,2007,1346,u
1779264127.145411,2026,1459,u
1779264127.1454852,2075,1896,u
1779264127.145544,2171,2127,u
1779264127.148187,2129,1690,u
1779264127.149537,2067,1502,u
1779264127.155508,2045,1497,u
1779264127.1565619,2068,1736,u
1779264127.158257,2042,1450,u
1779264127.1603231,2016,1394,u
1779264127.1606662,2096,1718,u
1779264127.167636,2152,2098,u
1779264127.168082,2149,1935,u
1779264127.168232,2101,1661,u
1779264127.168276,2048,1575,u
1779264127.169584,2068,1712,u
1779264127.172257,2074,1558,u
1779264127.176922,2024,1386,u
1779264127.178251,2034,1667,u
1779264127.181395,2146,2090,u
1779264127.182373,2166,2064,u
1779264127.189515,2122,1666,u
1779264127.189648,2071,1537,u
1779264127.189715,2057,1679,u
1779264127.189802,2066,1766,u
1779264127.1898959,2035,1462,u
1779264127.191205,2020,1587,u
1779264127.193801,2108,1987,u
1779264127.1958458,2159,2176,u
1779264127.2004852,2116,1902,u
1779264127.2027972,2059,1622,u
1779264127.203103,2043,1667,u
1779264127.205141,2085,1861,u
1779264127.20643,2058,1629,u
1779264127.211662,2008,1530,u
1779264127.211793,2080,1833,u
1779264127.211943,2152,2327,u
1779264127.213641,2152,2090,u
1779264127.216233,2085,1686,u
1779264127.221023,2021,1618,u
1779264127.221968,2056,1792,u
1779264127.223642,2032,1639,u
1779264127.223964,1998,1423,u
1779264127.225852,2019,1671,u
1779264127.232724,2108,2129,u
1779264127.232969,2153,2199,u
1779264127.233093,2077,1751,u
1779264127.233134,2031,1612,u
1779264127.2356029,2041,1767,u
1779264127.241694,2076,1767,u
1779264127.241847,2028,1489,u
1779264127.2435179,2024,1638,u
1779264127.244926,2096,2033,u
1779264127.250755,2185,2287,u
1779264127.251026,2126,1857,u
1779264127.2513988,2063,1673,u
1779264127.2534652,2047,1656,u
1779264127.254213,2093,1942,u
1779264127.255601,2044,1674,u
1779264127.258214,2033,1662,u
1779264127.2644942,2092,1950,u
1779264127.266127,2133,2280,u
1779264127.268343,2153,2104,u
1779264127.272267,2084,1729,u
1779264127.272987,2044,1664,u
1779264127.275124,2051,1877,u
1779264127.275344,2074,1740,u
1779264127.275479,2022,1460,u
1779264127.275584,2030,1732,u
1779264127.278262,2152,2255,u
1779264127.2799208,2182,2266,u
1779264127.284838,2124,1780,u
1779264127.2862349,2048,1583,u
1779264127.289054,2053,1719,u
1779264127.290849,2070,1849,u
1779264127.291073,2022,1567,u
1779264127.29409,2015,1684,u
1779264127.2943518,2104,1910,u
1779264127.297005,2181,2194,u
1779264127.297117,2121,1851,u
1779264127.299745,2054,1631,u
1779264127.301054,2038,1668,u
1779264127.3071208,2101,1874,u
1779264127.307581,2060,1662,u
1779264127.3091588,2044,1629,u
1779264127.3103418,2093,1953,u
1779264127.314982,2159,2352,u
1779264127.3152,2164,2204,u
1779264127.3154361,2105,1842,u
1779264127.317884,2063,1692,u
1779264127.3192499,2069,1842,u
1779264127.321826,2066,1764,u
1779264127.323193,2028,1525,u
1779264127.32745,2042,1814,u
1779264127.32968,2126,2233,u
1779264127.333308,2164,2320,u
1779264127.336412,2108,1987,u
1779264127.3366091,2059,1726,u
1779264127.33691,2053,1826,u
1779264127.337218,2056,1929,u
1779264127.340193,2014,1585,u
1779264127.341627,2050,1790,u
1779264127.344223,2097,2205,u
1779264127.3491552,2159,2389,u
1779264127.350074,2116,1937,u
1779264127.351966,2063,1701,u
1779264127.3531241,2058,1761,u
1779264127.355113,2061,2060,u
1779264127.357933,2056,1805,u
1779264127.358138,1995,1786,u
1779264127.36048,2072,2045,u
1779264127.361804,2170,2439,u
1779264127.363289,2128,2182,u
1779264127.365879,2099,1870,u
1779264127.369508,2049,1798,u
1779264127.370474,2099,1976,u
1779264127.3729548,2061,1817,u
1779264127.373228,2004,1654,u
1779264127.376223,2046,1823,u
1779264127.380955,2144,2260,u
1779264127.38153,2158,2347,u
1779264127.381736,2107,1999,u
1779264127.383043,2050,1758,u
1779264127.3856242,2046,1864,u
1779264127.39024,2079,1962,u
1779264127.391098,2026,1650,u
1779264127.391236,2034,1776,u
1779264127.3935418,2097,2258,u
1779264127.3990898,2167,2506,u
1779264127.399275,2128,2098,u
1779264127.399515,2062,1888,u
1779264127.401858,2070,1906,u
1779264127.4031308,2094,2091,u
1779264127.4055731,2075,1845,u
1779264127.411787,2008,1822,u
1779264127.414499,2077,2162,u
1779264127.4146402,2183,2514,u
1779264127.414922,2168,2260,u
1779264127.415076,2074,1837,u
1779264127.418056,2049,1700,u
1779264127.420732,2069,1940,u
1779264127.423247,2050,1843,u
1779264127.4233851,2011,1665,u
1779264127.4259572,2056,1920,u
1779264127.427262,2132,2390,u
1779264127.431942,2155,2334,u
1779264127.432801,2119,1959,u
1779264127.434931,2054,1822,u
1779264127.436928,2042,1911,u
1779264127.43706,2067,2025,u
1779264127.44326,2023,1690,u
1779264127.443348,2034,1894,u
1779264127.443443,2099,2266,u
1779264127.4460611,2178,2458,u
1779264127.447409,2126,2103,u
1779264127.452758,2044,1883,u
1779264127.453635,2031,1826,u
1779264127.455876,2091,2056,u
1779264127.465138,2039,1825,u
1779264127.4665,2025,1733,u
1779264127.466986,2063,2007,u
