timestamp,ch1,ch2,label
1779263869.5203068,1993,2107,æ
1779263869.520362,2083,1963,æ
1779263869.521577,2174,1834,æ
1779263869.524768,2133,1995,æ
1779263869.52654,2059,2070,æ
1779263869.5284748,2028,2078,æ
1779263869.5295732,2072,2029,æ
1779263869.5320199,2060,2128,æ
1779263869.5328891,2020,2160,æ
1779263869.533016,2066,1986,æ
1779263869.53313,2125,1774,æ
1779263869.534493,2139,1864,æ
1779263869.5371351,2057,2045,æ
1779263869.538538,2005,2088,æ
1779263869.544385,2043,2005,æ
1779263869.546819,2080,2026,æ
1779263869.551184,1995,2156,æ
1779263869.551734,1993,2073,æ
1779263869.552089,2108,1906,æ
1779263869.554475,2198,1778,æ
1779263869.554913,2114,2056,æ
1779263869.555041,2032,2100,æ
1779263869.556467,2049,2086,æ
1779263869.559124,2080,1910,æ
1779263869.5659971,2015,2043,æ
1779263869.5675788,1986,1999,æ
1779263869.567901,2067,1898,æ
1779263869.568198,2169,1813,æ
1779263869.571659,2122,1982,æ
1779263869.5729961,2041,2106,æ
1779263869.573345,2005,2077,æ
1779263869.5755231,2056,1858,æ
1779263869.576892,2030,2077,æ
1779263869.578261,1971,2228,æ
1779263869.585322,2030,2001,æ
1779263869.5863712,2156,1772,æ
1779263869.588084,2167,1815,æ
1779263869.592334,2083,2025,æ
1779263869.592903,2046,2136,æ
1779263869.5954182,2031,2049,æ
1779263869.595507,2075,1932,æ
1779263869.595559,1996,2103,æ
1779263869.596867,2002,1951,æ
1779263869.598315,2083,1809,æ
1779263869.607601,2165,1803,æ
1779263869.609715,2089,1976,æ
1779263869.611156,2029,2049,æ
1779263869.6124601,2029,1993,æ
1779263869.612792,2085,1952,æ
1779263869.6131752,2035,2176,æ
1779263869.613569,1996,2098,æ
1779263869.615808,2058,1925,æ
1779263869.617208,2155,1693,æ
1779263869.618489,2135,1925,æ
1779263869.621102,2052,1973,æ
1779263869.625802,2026,2017,æ
1779263869.6263528,2042,1898,æ
1779263869.626529,2046,1968,æ
1779263869.628747,1983,2038,æ
1779263869.6319182,2038,1974,æ
1779263869.6352441,2157,1870,æ
1779263869.635411,2178,1866,æ
1779263869.636744,2081,1966,æ
1779263869.638131,2028,2069,æ
1779263869.640703,2025,2009,æ
1779263869.6465569,2051,1958,æ
1779263869.647975,1985,2098,æ
1779263869.649559,2021,1991,æ
1779263869.649822,2128,1767,æ
1779263869.652853,2213,1742,æ
1779263869.654112,2110,1922,æ
1779263869.654279,2048,2060,æ
1779263869.656806,2055,2045,æ
1779263869.658165,2108,1947,æ
1779263869.660738,2038,2139,æ
1779263869.662119,1997,2071,æ
1779263869.6679318,2048,1848,æ
1779263869.673119,2161,1756,æ
1779263869.674898,2146,1913,æ
1779263869.6776829,2082,1950,æ
1779263869.6779242,2050,2093,æ
1779263869.6780002,2087,1982,æ
1779263869.678045,2071,2071,æ
1779263869.6781938,2019,2169,æ
1779263869.6808162,2051,2034,æ
1779263869.682184,2156,1737,æ
1779263869.6875782,2171,1804,æ
1779263869.68856,2068,1952,æ
1779263869.6891022,2022,2077,æ
1779263869.692202,2044,1962,æ
1779263869.692713,2062,1890,æ
1779263869.695123,1983,2141,æ
1779263869.697679,1983,2000,æ
1779263869.698991,2120,1755,æ
1779263869.7003021,2187,1730,æ
1779263869.702889,2091,1946,æ
1779263869.7067258,2038,2031,æ
1779263869.707652,2035,2033,æ
1779263869.710142,2098,1932,æ
1779263869.71134,2024,2107,æ
1779263869.714724,1995,2106,æ
1779263869.7149749,2069,1946,æ
1779263869.717221,2188,1772,æ
1779263869.71855,2142,1955,æ
1779263869.72113,2054,2081,æ
1779263869.722624,2009,2116,æ
1779263869.727495,2074,2005,æ
1779263869.728663,2071,2060,æ
1779263869.730912,2004,2081,æ
1779263869.732393,2038,1942,æ
1779263869.733291,2168,1774,æ
1779263869.73575,2199,1771,æ
1779263869.7381299,2112,1970,æ
1779263869.7383401,2046,2096,æ
1779263869.7409768,2054,1999,æ
1779263869.742326,2068,1933,æ
1779263869.747892,2004,2090,æ
1779263869.748832,1999,2042,æ
1779263869.749244,2118,1867,æ
1779263869.7512681,2205,1772,æ
1779263869.754499,2110,1996,æ
1779263869.756172,2027,2046,æ
1779263869.756544,2032,2046,æ
1779263869.7591538,2094,1971,æ
1779263869.7605062,2032,2068,æ
1779263869.763134,2000,2000,æ
1779263869.764708,2072,1840,æ
1779263869.7686882,2204,1681,æ
1779263869.769238,2198,1920,æ
1779263869.771491,2063,2061,æ
1779263869.773618,2039,2069,æ
1779263869.776254,2073,1983,æ
1779263869.7764878,2073,2095,æ
1779263869.778503,2013,2086,æ
1779263869.781033,2040,1949,æ
1779263869.782391,2157,1805,æ
1779263869.788478,2164,1908,æ
1779263869.78864,2051,2040,æ
1779263869.789633,2012,2065,æ
1779263869.791915,2062,2029,æ
1779263869.7940018,2091,1998,æ
1779263869.795467,2022,2135,æ
1779263869.797173,2020,2056,æ
1779263869.79998,2130,1828,æ
1779263869.8001852,2221,1823,æ
1779263869.802725,2151,2058,æ
1779263869.80415,2070,2095,æ
1779263869.8104162,2050,2069,æ
1779263869.8113458,2079,2050,æ
1779263869.8143601,2016,2136,æ
1779263869.816433,1975,2132,æ
1779263869.818174,2023,1912,æ
1779263869.8184562,2192,1792,æ
1779263869.818592,2151,1955,æ
1779263869.82094,2049,2044,æ
1779263869.8224351,2023,2007,æ
1779263869.8251479,2068,1911,æ
1779263869.832854,2083,2035,æ
1779263869.834374,2017,2136,æ
1779263869.8367648,2040,1995,æ
1779263869.838691,2152,1848,æ
1779263869.839099,2185,1884,æ
1779263869.841225,2076,2015,æ
1779263869.8419409,2012,2049,æ
1779263869.842133,2049,2029,æ
1779263869.842228,2064,2042,æ
1779263869.844883,2013,2180,æ
1779263869.846279,2031,2066,æ
1779263869.853386,2136,1872,æ
1779263869.854631,2224,1786,æ
1779263869.8569129,2152,1994,æ
1779263869.857279,2080,2141,æ
1779263869.859682,2043,2135,æ
1779263869.8613381,2092,2010,æ
1779263869.863214,2043,2115,æ
1779263869.8636851,2017,2048,æ
1779263869.866555,2070,1908,æ
1779263869.8666391,2176,1770,æ
1779263869.87325,2146,1913,æ
1779263869.87417,2072,2094,æ
1779263869.874638,2027,2121,æ
1779263869.876032,2078,1928,æ
1779263869.8763452,2088,2043,æ
1779263869.8792279,2013,2139,æ
1779263869.8806798,2043,2013,æ
1779263869.8830872,2157,1833,æ
1779263869.8845341,2193,1885,æ
1779263869.887106,2106,2052,æ
1779263869.888414,2025,2097,æ
1779263869.892949,2041,2014,æ
1779263869.893734,2070,2031,æ
1779263869.895564,2013,2171,æ
1779263869.8970392,1986,2092,æ
1779263869.900104,2068,1922,æ
1779263869.900464,2201,1842,æ
1779263869.90225,2123,2088,æ
1779263869.904819,2042,2157,æ
1779263869.90633,2038,2022,æ
1779263869.908895,2083,1938,æ
1779263869.913701,2028,2117,æ
1779263869.9142132,1985,2119,æ
1779263869.91469,2071,1997,æ
1779263869.9178739,2168,1773,æ
1779263869.919536,2159,1878,æ
1779263869.921132,2062,2089,æ
1779263869.9235148,2050,2097,æ
1779263869.92483,2087,1938,æ
1779263869.926143,2080,2072,æ
1779263869.928622,2007,2192,æ
1779263869.933706,2040,2032,æ
1779263869.9342,2169,1810,æ
1779263869.934313,2176,1875,æ
1779263869.9364438,2081,2063,æ
1779263869.939447,2021,2101,æ
1779263869.9410071,2061,2058,æ
1779263869.94349,2084,2008,æ
1779263869.9448068,2023,2148,æ
1779263869.9461792,1997,2115,æ
1779263869.9487412,2111,1911,æ
1779263869.950318,2241,1839,æ
1779263869.953863,2149,2038,æ
1779263869.95663,2049,2167,æ
1779263869.95784,2022,2155,æ
1779263869.961262,2100,2016,æ
1779263869.961588,2039,2192,æ
1779263869.9638999,1996,2077,æ
1779263869.965218,2029,1884,æ
1779263869.966528,2153,1775,æ
1779263869.969002,2140,1986,æ
1779263869.9703062,2066,2052,æ
1779263869.974423,2035,2094,æ
1779263869.9745028,2067,2009,æ
1779263869.977134,2085,2016,æ
1779263869.978983,2006,2188,æ
1779263869.981567,2043,2058,æ
1779263869.983857,2159,1914,æ
1779263869.985173,2195,1903,æ
1779263869.986481,2070,2045,æ
1779263869.9889789,1994,2105,æ
1779263869.990279,2034,2097,æ
1779263869.9952781,2081,1984,æ
1779263869.997378,1989,2194,æ
1779263869.9976478,1997,2159,æ
1779263870.00054,2097,1980,æ
1779263870.0007539,2212,1774,æ
1779263870.00466,2138,1952,æ
1779263870.004862,2065,2206,æ
1779263870.006173,2046,2142,æ
1779263870.008738,2096,1984,æ
1779263870.01012,2073,2147,æ
1779263870.015766,2013,2081,æ
1779263870.016296,2089,1977,æ
1779263870.0181398,2201,1835,æ
1779263870.0182688,2157,1966,æ
1779263870.021377,2055,2065,æ
1779263870.0231712,2002,2110,æ
1779263870.025533,2019,2049,æ
1779263870.027102,2056,2131,æ
1779263870.0284219,2010,2146,æ
1779263870.0308852,2016,2056,æ
1779263870.035249,2112,1903,æ
1779263870.0360692,2176,1940,æ
1779263870.036959,2087,2079,æ
1779263870.038553,2024,2186,æ
1779263870.0414011,2047,2127,æ
1779263870.043114,2089,2066,æ
1779263870.045436,1991,2093,æ
1779263870.046775,1990,2111,æ
1779263870.0481339,2072,1983,æ
1779263870.0504692,2200,1843,æ
1779263870.055945,2132,2026,æ
1779263870.05635,2067,2096,æ
1779263870.056909,2030,2100,æ
1779263870.058602,2063,2001,æ
1779263870.061514,2033,2114,æ
1779263870.063317,1990,2147,æ
1779263870.065578,2067,2080,æ
1779263870.066895,2175,1892,æ
1779263870.068224,2150,1963,æ
1779263870.0706508,2072,2053,æ
1779263870.076898,2035,2188,æ
1779263870.077374,2040,2068,æ
1779263870.079054,2022,2182,æ
1779263870.0792289,1967,2223,æ
1779263870.081782,2009,2049,æ
1779263870.0834181,2149,1845,æ
1779263870.085204,2230,1982,æ
1779263870.086517,2132,2155,æ
1779263870.0890849,2065,2205,æ
1779263870.090401,2063,2001,æ
1779263870.093097,2092,1879,æ
1779263870.097876,2000,2127,æ
1779263870.099361,1978,1931,æ
1779263870.099541,2074,1879,æ
1779263870.103831,2181,1804,æ
1779263870.104227,2120,2015,æ
1779263870.104508,2061,2050,æ
1779263870.1066072,2018,2126,æ
1779263870.1092281,2094,2001,æ
1779263870.1105769,2069,2329,æ
1779263870.113204,2034,2127,æ
1779263870.1177459,2060,2025,æ
1779263870.120269,2149,1947,æ
1779263870.120615,2093,1905,æ
1779263870.122406,2009,2017,æ
1779263870.125747,1952,2199,æ
1779263870.126067,2039,2198,æ
1779263870.126325,2100,2070,æ
1779263870.128694,2034,2312,æ
1779263870.130126,2053,2188,æ
1779263870.1325629,2219,1971,æ
1779263870.142106,2259,1809,æ
1779263870.143421,2113,2063,æ
1779263870.147785,2028,2150,æ
1779263870.147938,2046,2027,æ
1779263870.1480389,2114,1995,æ
1779263870.148148,2007,2257,æ
1779263870.148235,2006,2136,æ
1779263870.148347,2083,2034,æ
1779263870.1510432,2219,1810,æ
1779263870.152713,2110,2159,æ
1779263870.15822,2001,2190,æ
1779263870.1588328,1991,2020,æ
1779263870.159803,2019,1945,æ
1779263870.163724,1977,2199,æ
1779263870.1650188,1945,2169,æ
1779263870.166902,2014,2028,æ
1779263870.167062,2133,1865,æ
1779263870.169812,2154,2038,æ
1779263870.171125,2076,2105,æ
1779263870.1724439,2049,2078,æ
1779263870.179234,2069,2047,æ
1779263870.179871,2060,2147,æ
1779263870.1817348,1989,2253,æ
1779263870.1819289,1933,2048,æ
1779263870.183866,2099,1844,æ
1779263870.186954,2226,1967,æ
1779263870.1871512,2138,2135,æ
1779263870.1893198,2054,2174,æ
1779263870.190636,2047,2149,æ
1779263870.1932101,2072,2189,æ
1779263870.194531,2015,2321,æ
1779263870.198438,2054,2142,æ
1779263870.19979,2119,1927,æ
1779263870.201117,2175,1824,æ
1779263870.204149,2118,2007,æ
1779263870.206199,2038,2154,æ
1779263870.206413,1945,2174,æ
1779263870.2085829,2046,2104,æ
1779263870.211252,2080,2160,æ
1779263870.2144818,1963,2064,æ
1779263870.214549,1945,2009,æ
1779263870.2210162,2057,1892,æ
1779263870.222833,2116,1981,æ
1779263870.223043,2060,2116,æ
1779263870.2247381,2048,2123,æ
1779263870.22535,2120,2014,æ
1779263870.2283242,2105,2126,æ
1779263870.228663,1905,2222,æ
1779263870.230886,2025,2193,æ
1779263870.232206,2289,1979,æ
1779263870.234719,2386,1824,æ
1779263870.239241,2185,2058,æ
1779263870.240129,2036,2153,æ
1779263870.242204,2000,2097,æ
1779263870.24239,2036,2060,æ
1779263870.249291,2057,2307,æ
1779263870.2495081,2054,2216,æ
1779263870.249553,2084,2035,æ
1779263870.250868,2100,1620,æ
1779263870.252185,1992,2099,æ
1779263870.254848,1913,2241,æ
1779263870.256151,1998,2182,æ
1779263870.260247,2102,2181,æ
1779263870.261121,2113,2212,æ
1779263870.262815,2053,2271,æ
1779263870.2657611,1988,1959,æ
1779263870.267786,1942,1896,æ
1779263870.26966,1943,2162,æ
1779263870.270974,1893,2196,æ
1779263870.272288,2021,2055,æ
1779263870.274869,2148,1809,æ
1779263870.27618,2180,2073,æ
1779263870.280989,2104,2198,æ
1779263870.281496,2302,2146,æ
1779263870.28295,2577,1857,æ
1779263870.284895,2445,1845,æ
1779263870.2880452,1969,2125,æ
1779263870.28829,1846,2165,æ
1779263870.291201,1750,2194,æ
1779263870.2924218,1846,2023,æ
1779263870.294904,2076,2230,æ
1779263870.296215,2303,2077,æ
1779263870.301152,2038,2244,æ
1779263870.301242,1938,1885,æ
1779263870.3031838,1618,2211,æ
1779263870.305772,1495,2181,æ
1779263870.307883,1705,2303,æ
1779263870.31014,2073,2378,æ
1779263870.3103418,2510,2669,æ
1779263870.312989,2634,2771,æ
1779263870.3144262,2757,2861,æ
1779263870.3170009,2537,2572,æ
1779263870.321028,2706,2592,æ
1779263870.321897,2744,3475,æ
1779263870.324016,2421,3698,æ
1779263870.325736,1718,3859,æ
1779263870.328776,1837,3712,æ
1779263870.3289,1545,3417,æ
1779263870.331295,1341,3482,æ
1779263870.332615,2074,3821,æ
1779263870.3352408,2614,4095,æ
1779263870.336551,2287,4095,æ
1779263870.3416908,1972,4095,æ
1779263870.342622,2242,4095,æ
1779263870.3443,2119,4034,æ
1779263870.344537,2085,3801,æ
1779263870.3473558,1460,3738,æ
1779263870.34959,1486,3848,æ
1779263870.351871,2206,4057,æ
1779263870.353197,2456,4095,æ
1779263870.3545,1547,4095,æ
1779263870.3570619,1489,4095,æ
1779263870.36184,2252,4095,æ
1779263870.362675,2227,3987,æ
1779263870.3631518,2072,3909,æ
1779263870.366646,2056,3924,æ
1779263870.367776,2127,4009,æ
1779263870.370105,1782,4095,æ
1779263870.3702898,2052,4095,æ
1779263870.373027,2712,4095,æ
1779263870.374208,2513,4095,æ
1779263870.37677,2175,4067,æ
1779263870.382159,2390,4007,æ
1779263870.3829272,2005,3990,æ
1779263870.383362,2126,4016,æ
1779263870.38513,2510,4070,æ
1779263870.387743,2398,4095,æ
1779263870.389954,1780,4095,æ
1779263870.392193,1608,4095,æ
1779263870.392395,1737,4092,æ
1779263870.395075,1830,4047,æ
1779263870.396205,1849,4030,æ
1779263870.398774,2186,4032,æ
1779263870.40514,2300,3209,æ
1779263870.406807,2088,1897,æ
1779263870.408301,1862,1240,æ
1779263870.410926,1711,1691,æ
1779263870.411272,1849,1849,æ
1779263870.4136372,2221,2415,æ
1779263870.4137988,1866,2516,æ
1779263870.415444,2090,2161,æ
1779263870.416801,1674,876,æ
1779263870.419167,1739,606,æ
1779263870.4227798,2319,960,æ
1779263870.423274,2584,868,æ
1779263870.425823,2316,503,æ
1779263870.427243,1735,650,æ
1779263870.430997,1612,513,æ
1779263870.431198,1905,41,æ
1779263870.4329789,2169,0,æ
1779263870.43431,1933,297,æ
1779263870.4371352,1835,724,æ
1779263870.438454,2037,736,æ
1779263870.4434571,2530,388,æ
1779263870.443986,2172,0,æ
1779263870.445718,1668,0,æ
1779263870.4485052,1888,0,æ
1779263870.450791,2059,0,æ
1779263870.4510348,1732,0,æ
1779263870.4533088,1108,278,æ
1779263870.4546251,1145,395,æ
1779263870.4572139,2160,303,æ
1779263870.4585202,2690,76,æ
1779263870.46474,2630,0,æ
1779263870.466021,2082,0,æ
1779263870.466279,2204,0,æ
1779263870.466364,2503,0,æ
1779263870.471405,2276,71,æ
1779263870.4717078,1886,183,æ
1779263870.473721,1699,188,æ
1779263870.475043,1467,101,æ
1779263870.4763432,1172,0,æ
1779263870.4789171,1485,0,æ
1779263870.480281,2181,0,æ
1779263870.483584,2497,0,æ
1779263870.485086,2236,0,æ
1779263870.486584,2263,69,æ
1779263870.489132,2407,100,æ
1779263870.491549,2377,78,æ
1779263870.4937458,2229,21,æ
1779263870.495061,2145,0,æ
1779263870.496347,1691,0,æ
1779263870.498977,1706,0,æ
1779263870.500285,2061,0,æ
1779263870.503947,2101,17,æ
1779263870.506499,1933,46,æ
1779263870.5066,2036,48,æ
1779263870.511921,1951,26,æ
1779263870.5144908,2063,0,æ
1779263870.514742,1999,0,æ
1779263870.514781,1886,0,æ
1779263870.516153,1511,0,æ
1779263870.51887,1577,0,æ
1779263870.520344,2174,17,æ
1779263870.524568,2466,25,æ
1779263870.525418,2219,20,æ
1779263870.529098,2166,5,æ
1779263870.5307908,2235,0,æ
1779263870.5308852,2231,0,æ
1779263870.535692,2021,0,æ
1779263870.535786,1959,0,æ
1779263870.537108,1769,4,æ
1779263870.538414,1852,11,æ
1779263870.540968,1881,12,æ
1779263870.544426,2118,6,æ
1779263870.544906,2038,0,æ
1779263870.547915,2008,0,æ
1779263870.549836,1927,0,æ
1779263870.553259,2370,0,æ
1779263870.553657,2798,0,æ
1779263870.555465,2357,4,æ
1779263870.557151,1968,6,æ
1779263870.5582578,1844,5,æ
1779263870.5608718,1783,130,æ
1779263870.5680408,1762,246,æ
1779263870.568247,2224,293,æ
1779263870.568563,2103,480,æ
1779263870.5698838,2057,404,æ
1779263870.571529,1997,584,æ
1779263870.5742168,2067,796,æ
1779263870.5744672,2166,807,æ
1779263870.576677,1951,859,æ
1779263870.5791402,2085,1427,æ
1779263870.580499,2592,1386,æ
1779263870.5867782,2689,1418,æ
1779263870.593693,1697,917,æ
1779263870.5939689,1878,1398,æ
1779263870.594359,2488,1351,æ
1779263870.5966809,2146,1496,æ
1779263870.5968919,1981,1529,æ
1779263870.596998,1813,1495,æ
1779263870.5970838,2043,1542,æ
1779263870.598464,1962,1453,æ
1779263870.601414,1988,1547,æ
1779263870.606718,2073,1501,æ
1779263870.60763,1995,1748,æ
1779263870.6081212,2009,1515,æ
1779263870.6099358,2156,1570,æ
1779263870.6128,2387,1721,æ
1779263870.615476,2152,1731,æ
1779263870.6157382,1835,1810,æ
1779263870.618091,2147,1686,æ
1779263870.6184351,2343,1545,æ
1779263870.6210449,2088,1940,æ
1779263870.622373,1572,2056,æ
1779263870.62726,1709,2023,æ
1779263870.6273658,2271,1809,æ
1779263870.630956,2195,1902,æ
1779263870.6318169,2119,1988,æ
1779263870.6352482,2322,1922,æ
1779263870.635405,1869,1770,æ
1779263870.637527,1566,1845,æ
1779263870.6388328,2609,2191,æ
1779263870.6401742,2878,2027,æ
1779263870.642742,2262,2068,æ
1779263870.65023,1793,1762,æ
1779263870.650369,1762,2110,æ
1779263870.650647,2098,2043,æ
1779263870.650787,2337,1881,æ
1779263870.653682,2366,1938,æ
1779263870.6565561,2182,2133,æ
1779263870.6567712,1788,1788,æ
1779263870.658925,1627,1717,æ
1779263870.66131,1973,2187,æ
1779263870.6626291,1562,1785,æ
1779263870.667237,1493,1834,æ
1779263870.668472,2484,2038,æ
1779263870.6701171,2827,2185,æ
1779263870.670275,2479,2208,æ
1779263870.6753411,2261,1923,æ
1779263870.675596,2133,2121,æ
1779263870.67773,1635,2313,æ
1779263870.679083,1994,2250,æ
1779263870.6804988,2351,1847,æ
1779263870.6832268,2246,2006,æ
1779263870.684698,2024,2161,æ
1779263870.6884348,1944,2043,æ
1779263870.6888409,1950,1999,æ
1779263870.690929,2158,1933,æ
1779263870.694008,2272,2165,æ
1779263870.696743,1918,1765,æ
1779263870.696983,1838,2197,æ
1779263870.699007,2148,2014,æ
1779263870.7004402,2137,1924,æ
1779263870.7030022,1915,2104,æ
1779263870.704321,2136,2064,æ
1779263870.708981,2230,2136,æ
1779263870.709431,2154,2048,æ
1779263870.711062,1876,2044,æ
1779263870.7127922,1931,1836,æ
1779263870.7162712,2112,1886,æ
1779263870.716444,2227,1981,æ
1779263870.718535,2184,2220,æ
1779263870.721119,1799,1835,æ
1779263870.722432,1809,1925,æ
1779263870.7250051,2180,2158,æ
1779263870.73079,2315,1896,æ
1779263870.731006,2098,1859,æ
1779263870.732495,2092,1869,æ
1779263870.734019,2167,1830,æ
1779263870.7365,2284,2100,æ
1779263870.7367501,1984,1796,æ
1779263870.738354,1975,1865,æ
1779263870.741066,2180,2112,æ
1779263870.742367,2107,1817,æ
1779263870.7449222,1882,1872,æ
1779263870.748158,1771,1833,æ
1779263870.7485912,1679,1736,æ
1779263870.750926,2275,1786,æ
1779263870.753602,2643,2191,æ
1779263870.756041,2356,1904,æ
1779263870.758035,1943,1714,æ
1779263870.759347,1903,1876,æ
1779263870.760651,2073,1695,æ
1779263870.7632241,2410,1892,æ
1779263870.76453,2338,1765,æ
1779263870.7692978,1946,1789,æ
1779263870.770354,1765,1767,æ
1779263870.7716942,1844,1724,æ
1779263870.774142,1750,1854,æ
1779263870.7765381,1819,1942,æ
1779263870.776702,2415,1940,æ
1779263870.778406,2304,1775,æ
1779263870.782763,2247,1783,æ
1779263870.78284,2541,1972,æ
1779263870.784193,2715,1672,æ
1779263870.791053,2421,1664,æ
1779263870.792563,2076,1770,æ
1779263870.7928,1852,1813,æ
1779263870.793916,1855,1841,æ
1779263870.798048,2080,1711,æ
1779263870.798217,1963,1709,æ
1779263870.798429,1767,1769,æ
1779263870.8005571,1791,1937,æ
1779263870.803315,2179,2188,æ
1779263870.804629,2432,1822,æ
1779263870.809977,2257,1829,æ
1779263870.810475,1829,1837,æ
1779263870.811269,1804,1832,æ
1779263870.813937,2331,1816,æ
1779263870.818063,2233,1762,æ
1779263870.818447,2152,1845,æ
1779263870.8185909,2133,1855,æ
1779263870.821335,2158,1942,æ
1779263870.822685,2180,1963,æ
1779263870.825291,2095,1739,æ
1779263870.826587,1898,1752,æ
1779263870.830284,1929,1712,æ
1779263870.830698,2021,1855,æ
1779263870.83296,2250,1880,æ
1779263870.835628,2194,1928,æ
1779263870.838202,1923,1904,æ
1779263870.838419,1909,1998,æ
1779263870.841107,2228,1630,æ
1779263870.842446,2297,1936,æ
1779263870.844984,2023,1885,æ
1779263870.8463879,1917,1861,æ
1779263870.8504739,2011,1729,æ
1779263870.8509629,2038,1995,æ
1779263870.8535051,2080,1927,æ
1779263870.856234,2028,1968,æ
1779263870.856417,2185,1924,æ
1779263870.858943,2259,2121,æ
1779263870.861111,2069,2066,æ
1779263870.862422,1900,1936,æ
1779263870.864991,1883,2035,æ
1779263870.866394,2235,2001,æ
1779263870.87099,2423,2032,æ
1779263870.87183,2285,2010,æ
1779263870.87406,2033,1962,æ
1779263870.876749,1906,1946,æ
1779263870.8793411,1595,1904,æ
1779263870.879644,1656,1997,æ
1779263870.881815,2281,2096,æ
1779263870.883136,2629,1899,æ
1779263870.884465,2329,1960,æ
1779263870.886952,2132,2035,æ
1779263870.888452,2100,2071,æ
1779263870.8915799,2102,2032,æ
1779263870.894271,2271,2080,æ
1779263870.894499,2281,2281,æ
1779263870.897016,2077,2031,æ
1779263870.899497,2044,1998,æ
1779263870.901221,2052,2171,æ
1779263870.902941,2110,2241,æ
1779263870.904307,2107,2142,æ
1779263870.906858,2055,1845,æ
1779263870.908162,2062,2096,æ
1779263870.9149241,1981,2130,æ
1779263870.915082,1805,2064,æ
1779263870.915215,1961,2052,æ
1779263870.9169369,2205,2055,æ
1779263870.920327,2113,2080,æ
1779263870.920636,1972,2076,æ
1779263870.922326,1877,2072,æ
1779263870.925215,1984,2111,æ
1779263870.926531,2141,2209,æ
1779263870.929112,2087,2059,æ
1779263870.9331021,2091,1986,æ
1779263870.933522,2121,2011,æ
1779263870.935128,1948,2248,æ
1779263870.937623,2031,2274,æ
1779263870.940209,2062,2161,æ
1779263870.940546,2033,2098,æ
1779263870.943116,2169,2091,æ
1779263870.944181,2130,2100,æ
1779263870.9465432,1974,2161,æ
1779263870.9491122,2085,2165,æ
1779263870.953024,2205,2265,æ
1779263870.9537761,2074,2206,æ
1779263870.95523,2015,2147,æ
1779263870.957749,2048,2067,æ
1779263870.960282,2106,2194,æ
1779263870.960426,2068,2199,æ
1779263870.963305,1970,2233,æ
1779263870.964612,2004,1955,æ
1779263870.9671822,2106,2154,æ
1779263870.9684951,2145,2271,æ
1779263870.972832,1981,2161,æ
1779263870.973216,1882,2053,æ
1779263870.9753962,1910,2111,æ
1779263870.9779918,2016,2070,æ
1779263870.980374,1969,2055,æ
1779263870.980573,1964,2097,æ
1779263870.982739,2036,2146,æ
1779263870.9852989,2208,2209,æ
1779263870.986669,2416,2179,æ
1779263870.989224,2273,2177,æ
1779263870.990634,2119,2221,æ
1779263870.996114,2111,2239,æ
1779263870.998074,2074,2189,æ
1779263870.998252,2049,2342,æ
1779263870.9994082,2014,2227,æ
1779263871.001832,2136,2308,æ
1779263871.0039759,2155,2323,æ
1779263871.005289,2078,2179,æ
1779263871.006588,2012,2247,æ
1779263871.00916,2120,2073,æ
1779263871.010459,2116,2189,æ
1779263871.014362,2072,2149,æ
1779263871.014466,2032,2170,æ
1779263871.016487,1953,2141,æ
1779263871.019095,2118,2337,æ
1779263871.021533,2063,2332,æ
1779263871.0236318,1891,2056,æ
1779263871.0249422,1926,2166,æ
1779263871.026251,2029,2317,æ
1779263871.028825,2058,2258,æ
1779263871.0313962,2088,2284,æ
1779263871.035155,2169,2417,æ
1779263871.036992,2202,2456,æ
1779263871.037112,2259,2400,æ
1779263871.0396512,2163,2368,æ
1779263871.042123,2058,2430,æ
1779263871.042291,2108,2647,æ
1779263871.0451882,2037,2575,æ
1779263871.046497,2007,2458,æ
1779263871.049073,2094,2403,æ
1779263871.050375,2190,2535,æ
1779263871.056415,2158,2560,æ
1779263871.057651,2028,2498,æ
1779263871.057835,1950,2500,æ
1779263871.060341,2038,2560,æ
1779263871.060534,2093,2465,æ
1779263871.062952,2042,2588,æ
1779263871.0650399,2072,2715,æ
1779263871.0663428,2161,2700,æ
1779263871.0689201,2136,2580,æ
1779263871.070221,2054,2738,æ
1779263871.0756328,1960,2745,æ
1779263871.076421,1967,2735,æ
1779263871.076792,1951,2789,æ
1779263871.079511,1899,2940,æ
1779263871.082855,1939,3073,æ
1779263871.083076,2081,3102,æ
1779263871.085004,2213,3124,æ
1779263871.0863051,2180,3004,æ
1779263871.0888698,2137,2952,æ
1779263871.0913122,2073,2946,æ
1779263871.09274,2108,2970,æ
1779263871.095958,2060,2992,æ
1779263871.0981529,1987,3128,æ
1779263871.0983071,2057,3404,æ
1779263871.103171,2235,3378,æ
1779263871.103276,2247,3383,æ
1779263871.105333,2096,3328,æ
1779263871.1066408,2085,3360,æ
1779263871.109209,2090,3459,æ
1779263871.110513,2110,3464,æ
1779263871.1130712,1989,3396,æ
1779263871.117166,2035,3381,æ
1779263871.117577,2132,3427,æ
1779263871.119997,2128,3423,æ
1779263871.123636,2042,3398,æ
1779263871.123792,1973,3384,æ
1779263871.125967,2006,3367,æ
1779263871.127265,2096,3532,æ
1779263871.12857,2025,3519,æ
1779263871.131136,2052,3420,æ
1779263871.132437,2154,3325,æ
1779263871.137176,2207,3290,æ
1779263871.137583,2100,3232,æ
1779263871.1394172,2028,3156,æ
1779263871.144344,2018,3132,æ
1779263871.144512,2083,3024,æ
1779263871.144664,1993,3210,æ
1779263871.146634,1974,3291,æ
1779263871.149199,2139,3088,æ
1779263871.1505039,2148,2870,æ
1779263871.153066,2096,2869,æ
1779263871.157275,2020,2916,æ
1779263871.1580951,2038,2974,æ
1779263871.158819,2092,2783,æ
1779263871.161112,2069,3002,æ
1779263871.164713,2007,2777,æ
1779263871.164868,2028,2754,æ
1779263871.166465,2078,2864,æ
1779263871.169039,2171,2753,æ
1779263871.170284,2178,2641,æ
1779263871.172517,2052,2539,æ
1779263871.1781518,2088,2441,æ
1779263871.178606,2086,2497,æ
1779263871.180425,2018,2470,æ
1779263871.180546,2071,2411,æ
1779263871.18316,2202,2356,æ
1779263871.1876428,2221,2232,æ
1779263871.187684,2095,2233,æ
1779263871.188993,2035,2392,æ
1779263871.190305,2066,2388,æ
1779263871.192868,2065,2097,æ
1779263871.198863,1961,2131,æ
1779263871.199557,1940,2229,æ
1779263871.2008162,2004,2175,æ
1779263871.2009401,2131,2107,æ
1779263871.203525,2160,2202,æ
1779263871.205964,2026,1986,æ
1779263871.207647,1943,2151,æ
1779263871.208965,1979,2622,æ
1779263871.2102761,2026,2453,æ
1779263871.212906,2005,2174,æ
1779263871.214338,2077,2344,æ
1779263871.2198248,2222,2349,æ
1779263871.2205582,2217,2253,æ
1779263871.220675,2132,2356,æ
1779263871.223084,1954,2274,æ
1779263871.2267241,2073,2283,æ
1779263871.226975,2027,2278,æ
1779263871.229009,1960,2157,æ
1779263871.230321,1907,2038,æ
1779263871.232898,2102,2147,æ
1779263871.234241,2204,2230,æ
1779263871.240072,2073,2189,æ
1779263871.2405372,2004,2205,æ
1779263871.242195,2079,2227,æ
1779263871.242389,2162,2094,æ
1779263871.247587,2065,2067,æ
1779263871.2495759,2003,2117,æ
1779263871.249771,2059,1970,æ
1779263871.251076,2156,1990,æ
1779263871.252597,2099,1891,æ
1779263871.255199,1955,1933,æ
1779263871.256693,1987,2076,æ
1779263871.259851,2086,1936,æ
1779263871.262356,2050,2016,æ
1779263871.262493,1956,1999,æ
1779263871.267318,2027,1983,æ
1779263871.267411,2146,2004,æ
1779263871.269505,2216,2048,æ
1779263871.270805,2039,2000,æ
1779263871.2733681,1950,1940,æ
1779263871.2746692,1967,2063,æ
1779263871.277271,2050,2323,æ
1779263871.280114,2029,2159,æ
1779263871.2809112,1994,1919,æ
1779263871.282645,2089,1859,æ
1779263871.28513,2116,2064,æ
1779263871.287554,2070,2367,æ
1779263871.2896771,2111,2266,æ
1779263871.290977,2023,1920,æ
1779263871.292553,2111,1793,æ
1779263871.295115,2043,1769,æ
1779263871.296489,1965,1863,æ
1779263871.3010519,2008,1945,æ
1779263871.301497,2109,1988,æ
1779263871.303642,2159,2189,æ
1779263871.306349,2114,2061,æ
1779263871.311009,2015,1776,æ
1779263871.31109,2041,1922,æ
1779263871.311201,2101,2039,æ
1779263871.3125062,2033,1992,æ
1779263871.314869,2018,1889,æ
1779263871.3162408,2091,1761,æ
1779263871.321994,2150,1811,æ
1779263871.3224452,2083,1872,æ
1779263871.32394,2032,1825,æ
1779263871.326487,2019,1824,æ
1779263871.328974,2040,1914,æ
1779263871.3291001,1987,1982,æ
1779263871.331179,1980,1973,æ
1779263871.332491,2094,1891,æ
1779263871.335066,2183,1791,æ
1779263871.336373,2154,1884,æ
1779263871.3416152,2060,1832,æ
1779263871.34208,2030,1817,æ
1779263871.344248,2036,1963,æ
1779263871.344396,2000,1902,æ
1779263871.349293,1987,1841,æ
1779263871.349445,2059,1770,æ
1779263871.351564,2176,1797,æ
1779263871.3528728,2140,1889,æ
1779263871.355293,2055,1936,æ
1779263871.356595,2003,1917,æ
1779263871.3592021,2055,1840,æ
1779263871.36406,2063,1859,æ
1779263871.365371,2026,1862,æ
1779263871.367452,2050,1868,æ
1779263871.367559,2147,1812,æ
1779263871.3711019,2188,1938,æ
1779263871.3711832,2086,1904,æ
1779263871.372972,2024,1938,æ
1779263871.374644,2047,1841,æ
1779263871.377221,2074,1807,æ
1779263871.3785229,1968,1807,æ
1779263871.382936,1943,1853,æ
1779263871.383074,2037,1656,æ
1779263871.3856928,2157,1892,æ
1779263871.387263,2100,2139,æ
1779263871.390954,2103,1834,æ
1779263871.391359,2072,1848,æ
1779263871.393652,2097,1787,æ
1779263871.395078,2055,1803,æ
1779263871.396468,2032,1843,æ
1779263871.399057,2073,1815,æ
1779263871.403807,2202,1799,æ
1779263871.40496,2178,1807,æ
1779263871.4077902,2085,1737,æ
1779263871.409628,2013,1776,æ
1779263871.412508,2050,1801,æ
1779263871.414718,2029,1863,æ
1779263871.414968,1994,1855,æ
1779263871.41501,2046,1791,æ
1779263871.416358,2171,1829,æ
1779263871.4190369,2214,1872,æ
1779263871.424219,2106,1863,æ
1779263871.427464,2020,1815,æ
1779263871.430468,2038,1796,æ
1779263871.433274,2111,1837,æ
1779263871.433698,2029,1922,æ
1779263871.4362712,2004,1843,æ
1779263871.436383,2105,1819,æ
1779263871.436456,2214,1875,æ
1779263871.436554,2153,1892,æ
1779263871.439192,2058,1879,æ
1779263871.441395,2025,1844,æ
1779263871.449211,2065,1848,æ
1779263871.449839,2047,1905,æ
1779263871.4510798,2039,1841,æ
1779263871.451364,2088,1855,æ
1779263871.454217,2176,1937,æ
1779263871.454352,2176,2002,æ
1779263871.454601,2089,2007,æ
1779263871.456851,2048,1916,æ
1779263871.4583218,2070,1862,æ
1779263871.4614441,2079,1923,æ
1779263871.466112,1993,1886,æ
1779263871.467285,2031,1933,æ
1779263871.469999,2138,1964,æ
1779263871.4709692,2188,1943,æ
1779263871.475051,2104,1955,æ
1779263871.475487,2025,1925,æ
1779263871.475831,2036,1919,æ
1779263871.478112,2071,1904,æ
1779263871.4782789,2026,1970,æ
1779263871.4809039,2015,1855,æ
1779263871.482429,2091,1848,æ
1779263871.489743,2172,1893,æ
1779263871.491147,2120,1920,æ
1779263871.493456,2054,1863,æ
1779263871.496304,2021,1919,æ
1779263871.496655,2061,1959,æ
1779263871.497115,2017,1957,æ
1779263871.499437,1978,1880,æ
1779263871.4995892,2065,1827,æ
1779263871.500959,2163,1895,æ
1779263871.502322,2132,1907,æ
1779263871.5107799,2048,1898,æ
1779263871.5139031,2017,1895,æ
1779263871.514231,2057,1892,æ
1779263871.516768,2077,1807,æ
1779263871.517219,1998,1808,æ
1779263871.517566,2020,1789,æ
1779263871.51784,2134,1859,æ
1779263871.5200799,2162,1856,æ
1779263871.5215418,2084,1856,æ
1779263871.5229561,2028,1872,æ
1779263871.524381,2026,1931,æ
1779263871.529839,2068,1907,æ
1779263871.531234,1992,1821,æ
1779263871.5316439,1967,1845,æ
1779263871.536951,2068,1880,æ
1779263871.537484,2195,1955,æ
1779263871.537607,2099,1915,æ
1779263871.539846,2027,1880,æ
1779263871.541588,2035,1784,æ
1779263871.543023,2099,1901,æ
1779263871.544405,2053,1938,æ
1779263871.551402,2006,1922,æ
1779263871.55179,2063,1989,æ
1779263871.5533419,2200,1955,æ
1779263871.553995,2180,2020,æ
1779263871.55818,2080,1985,æ
1779263871.558368,2026,2037,æ
1779263871.558646,2051,1986,æ
1779263871.561116,2053,2010,æ
1779263871.562655,1987,2040,æ
1779263871.565341,2017,2026,æ
1779263871.5703418,2113,1985,æ
1779263871.5710201,2166,1993,æ
1779263871.573544,2082,2005,æ
1779263871.574877,2017,2037,æ
1779263871.575955,2019,2097,æ
1779263871.5829911,2060,2132,æ
1779263871.583045,1989,2118,æ
1779263871.583085,1989,2095,æ
1779263871.583123,2079,2087,æ
1779263871.584491,2186,2154,æ
1779263871.5871801,2142,2138,æ
1779263871.59233,2038,2056,æ
1779263871.594984,2018,2087,æ
1779263871.59665,2050,2023,æ
1779263871.598506,2030,2103,æ
1779263871.5990222,1976,2101,æ
1779263871.601724,2051,2148,æ
1779263871.602257,2160,2200,æ
1779263871.6028202,2156,2172,æ
1779263871.605217,2045,2172,æ
1779263871.606644,2007,2165,æ
1779263871.6092238,2068,2071,æ
1779263871.615068,2076,2159,æ
1779263871.617516,2002,2222,æ
1779263871.6178691,2039,2167,æ
1779263871.6209831,2131,2185,æ
1779263871.621283,2194,2218,æ
1779263871.6242812,2123,2205,æ
1779263871.6245399,2047,2221,æ
1779263871.627147,2054,2151,æ
1779263871.627498,2079,2216,æ
1779263871.6289752,2002,2252,æ
1779263871.630435,2010,2159,æ
1779263871.633188,2081,2156,æ
1779263871.6475441,2185,2156,æ
1779263871.647978,2108,2198,æ
1779263871.648084,2027,2209,æ
1779263871.648179,2034,2157,æ
1779263871.648227,2075,2193,æ
1779263871.648267,2026,2261,æ
1779263871.648375,1985,2263,æ
1779263871.648458,2014,2261,æ
1779263871.65126,2149,2194,æ
1779263871.6526442,2164,2270,æ
1779263871.657346,2043,2275,æ
1779263871.658359,2005,2235,æ
1779263871.659005,2020,2149,æ
1779263871.661191,2064,2188,æ
1779263871.664524,1991,2261,æ
1779263871.665279,2004,2195,æ
1779263871.667539,2140,2177,æ
1779263871.670441,2195,2171,æ
1779263871.670573,2132,2274,æ
1779263871.673229,2040,2245,æ
1779263871.67464,2035,2214,æ
1779263871.681694,2069,2280,æ
1779263871.68399,2007,2313,æ
1779263871.688001,1984,2305,æ
1779263871.6882482,2064,2316,æ
1779263871.691222,2153,2296,æ
1779263871.6915588,2091,2324,æ
1779263871.6918569,2030,2319,æ
1779263871.69231,1998,2265,æ
1779263871.6928298,2074,2228,æ
1779263871.695574,2032,2265,æ
1779263871.6969652,1954,2262,æ
1779263871.7031522,2039,2275,æ
1779263871.7064161,2140,2263,æ
1779263871.706742,2160,2281,æ
1779263871.707169,2032,2235,æ
1779263871.7095098,2005,2248,æ
1779263871.711075,2030,2284,æ
1779263871.711406,2021,2281,æ
1779263871.716645,1948,2351,æ
1779263871.717563,1970,2274,æ
1779263871.717682,2091,2290,æ
1779263871.719004,2146,2260,æ
1779263871.720396,2075,2298,æ
1779263871.727366,1987,2213,æ
1779263871.72842,1988,2169,æ
1779263871.72915,2039,2184,æ
1779263871.73369,1969,2226,æ
1779263871.735174,1934,2222,æ
1779263871.735616,2051,2217,æ
1779263871.738643,2148,2179,æ
1779263871.739213,2116,2226,æ
1779263871.739557,2024,2288,æ
1779263871.742291,1976,2236,æ
1779263871.742635,2040,2155,æ
1779263871.745208,2010,2241,æ
1779263871.7540638,1996,2265,æ
1779263871.7550669,2058,2201,æ
1779263871.75683,2184,2130,æ
1779263871.7596009,2146,2242,æ
1779263871.759907,2062,2228,æ
1779263871.760433,2019,2180,æ
1779263871.760849,2040,2259,æ
1779263871.7612438,2075,2373,æ
1779263871.7638662,2009,2282,æ
1779263871.76527,2025,2211,æ
1779263871.766648,2123,2176,æ
1779263871.7693472,2180,2232,æ
1779263871.7737799,2081,2205,æ
1779263871.7747881,2021,2206,æ
1779263871.7758248,2027,2206,æ
1779263871.777587,2050,2254,æ
1779263871.779825,2019,2340,æ
1779263871.781355,2004,2306,æ
1779263871.784024,2093,2308,æ
1779263871.7869608,2192,2247,æ
1779263871.787097,2124,2216,æ
1779263871.7884212,2050,2173,æ
1779263871.794283,2017,2290,æ
1779263871.7951539,2073,2271,æ
1779263871.7973068,2038,2226,æ
1779263871.797693,1959,2277,æ
1779263871.799799,2012,2237,æ
1779263871.801236,2150,2188,æ
1779263871.8039439,2148,2294,æ
1779263871.806787,2056,2355,æ
1779263871.8068411,2015,2329,æ
1779263871.808257,2044,2273,æ
1779263871.810831,2063,2339,æ
1779263871.812587,2013,2312,æ
1779263871.81685,2033,2269,æ
1779263871.816992,2142,2269,æ
1779263871.819901,2201,2297,æ
1779263871.8219619,2087,2310,æ
1779263871.825974,2016,2311,æ
1779263871.826164,2020,2334,æ
1779263871.826486,2045,2337,æ
1779263871.829209,2006,2336,æ
1779263871.830564,1968,2263,æ
1779263871.8331552,2097,2270,æ
1779263871.834474,2187,2198,æ
1779263871.839954,2123,2282,æ
1779263871.8423932,2041,2295,æ
1779263871.842699,2036,2312,æ
1779263871.842871,2081,2243,æ
1779263871.844843,2024,2304,æ
1779263871.848799,1957,2310,æ
1779263871.849099,2028,2385,æ
1779263871.8518689,2120,2324,æ
1779263871.853198,2104,2336,æ
1779263871.85452,2026,2295,æ
1779263871.85709,2033,2301,æ
1779263871.861984,2066,2286,æ
1779263871.862602,2089,2316,æ
1779263871.863154,1984,2389,æ
1779263871.8654861,1966,2357,æ
1779263871.868883,2057,2282,æ
1779263871.8691268,2145,2277,æ
1779263871.8717089,2034,2335,æ
1779263871.874469,1998,2293,æ
1779263871.8747,2026,2313,æ
1779263871.8772721,2140,2286,æ
1779263871.878595,2069,2318,æ
1779263871.886716,2006,2359,æ
1779263871.888708,2120,2291,æ
1779263871.889042,2254,2240,æ
1779263871.892952,2159,2287,æ
1779263871.899199,2071,2245,æ
1779263871.899366,1989,2302,æ
1779263871.8994849,2048,2271,æ
1779263871.899565,2026,2303,æ
1779263871.899638,2011,2349,æ
1779263871.899714,2061,2197,æ
1779263871.90114,2207,2197,æ
1779263871.9071438,2203,2226,æ
1779263871.909699,2027,2212,æ
1779263871.910039,1970,2228,æ
1779263871.910388,2026,2269,æ
1779263871.9117398,2063,2276,æ
1779263871.914093,1919,2321,æ
1779263871.916785,1950,2331,æ
1779263871.916953,2066,2262,æ
1779263871.919747,2217,2254,æ
1779263871.921141,2131,2220,æ
1779263871.922455,2004,2269,æ
1779263871.925025,2017,2384,æ
1779263871.929537,2020,2324,æ
1779263871.93111,1939,2271,æ
1779263871.93401,1964,2268,æ
1779263871.936097,2089,2232,æ
1779263871.936414,2263,2211,æ
1779263871.938524,2140,2214,æ
1779263871.941837,1944,2363,æ
1779263871.942476,1923,2305,æ
1779263871.943184,2044,2206,æ
1779263871.9460402,2013,2235,æ
1779263871.9474041,2020,2217,æ
1779263871.956646,1971,2261,æ
1779263871.960588,2108,2136,æ
1779263871.963576,2204,2077,æ
1779263871.9670022,2146,2180,æ
1779263871.9670951,2048,2312,æ
1779263871.967188,2049,2234,æ
1779263871.967296,2095,2347,æ
1779263871.967371,1982,2330,æ
1779263871.9674711,1909,2250,æ
1779263871.9675672,2091,2169,æ
1779263871.9689941,2091,2282,æ
1779263871.9703932,2021,2225,æ
1779263871.978465,2125,2233,æ
1779263871.983924,2153,2308,æ
1779263871.986839,2157,2256,æ
1779263871.987204,2007,2284,æ
1779263871.9879282,1899,2200,æ
1779263871.992495,2157,2186,æ
1779263871.992775,2233,2209,æ
1779263871.992924,2159,2273,æ
1779263871.9930081,1969,2299,æ
1779263871.993054,1783,2325,æ
1779263871.993099,1781,2248,æ
1779263871.994488,1839,2329,æ
1779263872.006152,2184,2227,æ
1779263872.0103621,2268,2303,æ
1779263872.0109189,2424,2254,æ
1779263872.0115478,2121,2381,æ
1779263872.013618,1952,2411,æ
1779263872.013888,1814,2375,æ
1779263872.014852,1827,2395,æ
1779263872.014965,1615,2417,æ
1779263872.015064,1831,2457,æ
1779263872.015131,2183,2410,æ
1779263872.0164878,2467,2386,æ
1779263872.0222669,2528,2554,æ
1779263872.023697,2027,2365,æ
1779263872.025506,1891,2557,æ
1779263872.025972,1944,2461,æ
1779263872.0298822,2388,2554,æ
1779263872.032511,2237,2861,æ
1779263872.032945,2153,2567,æ
1779263872.035327,2023,2636,æ
1779263872.036099,1841,2678,æ
1779263872.036295,1683,2816,æ
1779263872.03904,2033,3050,æ
1779263872.0404649,2455,2744,æ
1779263872.050855,2509,2649,æ
1779263872.052512,2202,2837,æ
1779263872.055579,2091,2860,æ
1779263872.056245,1950,2913,æ
1779263872.056554,1823,2592,æ
1779263872.0586162,2086,2812,æ
1779263872.059406,2289,3019,æ
1779263872.059507,2080,3109,æ
1779263872.059594,1960,3068,æ
1779263872.0609338,1840,3223,æ
1779263872.0633228,1732,3621,æ
1779263872.064718,1869,3485,æ
1779263872.070899,2198,3487,æ
1779263872.0728052,2294,3575,æ
1779263872.073001,1585,3207,æ
1779263872.0751119,1717,3733,æ
1779263872.0769331,2248,3958,æ
1779263872.07968,1971,3783,æ
1779263872.0803862,1613,3773,æ
1779263872.08077,1623,3780,æ
1779263872.083518,2260,3929,æ
1779263872.084928,2179,4095,æ
1779263872.090397,2497,4095,æ
1779263872.095288,2889,4095,æ
1779263872.100271,2595,4095,æ
1779263872.1005251,2177,4076,æ
1779263872.100826,1946,3958,æ
1779263872.103206,1676,3916,æ
1779263872.103534,2031,3957,æ
1779263872.103689,2464,4054,æ
1779263872.103783,2075,4095,æ
1779263872.10514,1681,4095,æ
1779263872.106518,1585,4095,æ
1779263872.120089,1956,4095,æ
1779263872.126604,1985,4045,æ
1779263872.127761,2008,4001,æ
1779263872.127844,2059,4002,æ
1779263872.127912,2109,4041,æ
1779263872.128006,2121,4088,æ
1779263872.1280692,2234,4095,æ
1779263872.12813,1912,4095,æ
1779263872.128281,1861,4095,æ
1779263872.128361,2037,4079,æ
1779263872.128481,1946,4049,æ
1779263872.135079,2067,4036,æ
1779263872.1352,2221,4044,æ
1779263872.1361668,2309,4070,æ
1779263872.137727,1894,4093,æ
1779263872.1412601,1612,4095,æ
1779263872.144314,2078,4095,æ
1779263872.144576,2181,4085,æ
1779263872.144882,2315,4067,æ
1779263872.147678,2482,4058,æ
1779263872.149143,1991,4057,æ
1779263872.150465,1404,4064,æ
1779263872.157579,1679,3796,æ
1779263872.1605701,2132,3354,æ
1779263872.16078,2147,3815,æ
1779263872.161129,2363,3947,æ
1779263872.1633852,2472,3921,æ
1779263872.163637,2095,3915,æ
1779263872.167707,1922,3912,æ
1779263872.168193,1972,3671,æ
1779263872.1709151,1876,2936,æ
1779263872.170989,1443,2693,æ
1779263872.173731,1655,2601,æ
1779263872.177106,2117,2500,æ
1779263872.1780999,2592,2660,æ
1779263872.181067,2270,3241,æ
1779263872.18727,2042,3440,æ
1779263872.1902988,2204,3088,æ
1779263872.190675,2447,2551,æ
1779263872.1907651,2266,2157,æ
1779263872.190898,1990,2286,æ
1779263872.1909819,2114,2521,æ
1779263872.1937149,1969,2398,æ
1779263872.19506,1890,2736,æ
1779263872.201029,1676,2203,æ
1779263872.201588,1844,2233,æ
1779263872.202184,2036,1928,æ
1779263872.202401,1907,1706,æ
1779263872.204438,2333,1892,æ
1779263872.210773,2036,2044,æ
1779263872.211019,1425,1485,æ
1779263872.211188,1355,1630,æ
1779263872.21387,1547,1921,æ
1779263872.2149708,2283,1868,æ
1779263872.2175648,2812,1408,æ
1779263872.2189069,2684,938,æ
1779263872.223918,2433,1162,æ
1779263872.2268429,2049,1271,æ
1779263872.227089,2063,904,æ
1779263872.2309482,2167,899,æ
1779263872.231235,1919,1113,æ
1779263872.234025,1616,917,æ
1779263872.2343822,1759,952,æ
1779263872.234584,1698,604,æ
1779263872.237289,1888,1036,æ
1779263872.23861,1502,960,æ
1779263872.244695,2075,1127,æ
1779263872.245735,2764,886,æ
1779263872.248555,2388,1111,æ
1779263872.2503328,2266,826,æ
1779263872.25239,2104,741,æ
1779263872.255278,1900,359,æ
1779263872.2556841,1909,419,æ
1779263872.255996,2008,849,æ
1779263872.258629,2492,872,æ
1779263872.2588968,2356,435,æ
1779263872.261604,1959,530,æ
1779263872.262779,1612,758,æ
1779263872.269353,1687,773,æ
1779263872.270999,2230,142,æ
1779263872.271159,2291,188,æ
1779263872.272804,2248,724,æ
1779263872.273087,2231,828,æ
1779263872.2751858,1940,514,æ
1779263872.27924,1095,0,æ
1779263872.279839,1649,917,æ
1779263872.282466,2355,568,æ
1779263872.282686,2468,194,æ
1779263872.288934,2265,97,æ
1779263872.289999,2053,524,æ
1779263872.292353,2184,787,æ
1779263872.292685,2177,757,æ
1779263872.292931,2265,621,æ
1779263872.299338,2252,974,æ
1779263872.299653,1713,967,æ
1779263872.2998872,1698,1072,æ
1779263872.3026361,2222,858,æ
1779263872.302688,2389,916,æ
1779263872.305262,1749,782,æ
1779263872.306571,1524,988,æ
1779263872.313946,2000,599,æ
1779263872.3159502,1926,748,æ
1779263872.3161669,1697,1319,æ
1779263872.316384,2497,687,æ
1779263872.318122,2407,621,æ
1779263872.320019,2222,751,æ
1779263872.322761,2236,976,æ
1779263872.322992,2054,991,æ
1779263872.325808,1952,1142,æ
1779263872.32713,2168,1046,æ
1779263872.328453,1964,1168,æ
1779263872.3309598,1945,1042,æ
1779263872.335854,2248,878,æ
1779263872.336865,1987,592,æ
1779263872.338998,2141,918,æ
1779263872.3391821,2450,1364,æ
1779263872.3408,2217,1413,æ
1779263872.344882,2166,1049,æ
1779263872.345035,2258,891,æ
1779263872.3477252,1812,1088,æ
1779263872.34908,1192,1018,æ
1779263872.350442,1898,927,æ
1779263872.356632,2668,895,æ
1779263872.357149,2268,1516,æ
1779263872.358001,1871,1556,æ
1779263872.359575,1881,1445,æ
1779263872.361574,2130,1555,æ
1779263872.3652291,2234,1559,æ
1779263872.365401,2196,1251,æ
1779263872.3677251,2130,1338,æ
1779263872.369046,2241,1133,æ
1779263872.371441,2040,1421,æ
1779263872.372755,1972,1315,æ
1779263872.376458,1673,1393,æ
1779263872.377302,1925,1670,æ
1779263872.379429,2064,1662,æ
1779263872.3829079,1815,1000,æ
1779263872.383035,1995,1122,æ
1779263872.3860638,2292,1270,æ
1779263872.388439,1745,1260,æ
1779263872.388484,1791,1275,æ
1779263872.3913012,2282,1239,æ
1779263872.3927581,2270,1077,æ
1779263872.3976908,2308,1082,æ
1779263872.3982599,2148,1273,æ
1779263872.398792,1926,1421,æ
1779263872.401286,1911,1161,æ
1779263872.403221,2322,1382,æ
1779263872.4070442,2499,1180,æ
1779263872.4074082,2095,1485,æ
1779263872.40961,1929,1705,æ
1779263872.410927,1803,1552,æ
1779263872.413513,1493,1536,æ
1779263872.4340212,1601,1535,æ
1779263872.43522,2403,1293,æ
1779263872.465903,2597,1460,æ
1779263872.466301,2229,1551,æ
1779263872.466452,1871,1682,æ
1779263872.466528,1607,1591,æ
1779263872.46657,2090,1608,æ
1779263872.4667609,2465,1698,æ
1779263872.466814,2300,1580,æ
1779263872.4669309,2135,1632,æ
1779263872.467179,1801,1337,æ
1779263872.467278,1974,1475,æ
1779263872.467322,2357,1684,æ
1779263872.4674308,2018,1834,æ
1779263872.467575,1838,1466,æ
1779263872.4677372,1972,1633,æ
1779263872.467892,1919,1683,æ
1779263872.468003,2278,1569,æ
1779263872.468111,2330,1613,æ
1779263872.468195,2110,1588,æ
1779263872.468361,1974,1813,æ
1779263872.468409,1994,1899,æ
1779263872.46851,1960,1426,æ
1779263872.4686599,2154,1400,æ
1779263872.468705,2302,2148,æ
1779263872.468744,2151,1643,æ
1779263872.468784,2096,1241,æ
1779263872.4688342,2053,1613,æ
1779263872.476662,1943,1891,æ
1779263872.476743,1971,1825,æ
1779263872.4767842,2090,1641,æ
1779263872.476835,2134,1597,æ
1779263872.48576,1757,1764,æ
1779263872.4875698,1686,1591,æ
1779263872.489389,2226,1486,æ
1779263872.492247,2361,1372,æ
1779263872.492579,1981,1547,æ
1779263872.492872,1647,1818,æ
1779263872.494771,2013,1800,æ
1779263872.495394,2410,1662,æ
1779263872.4957728,2213,1775,æ
1779263872.497091,1873,1944,æ
1779263872.498529,1936,1536,æ
1779263872.5048661,2163,1352,æ
1779263872.507948,2234,1602,æ
1779263872.508184,2132,1749,æ
1779263872.508381,2158,1679,æ
1779263872.509495,1875,1516,æ
1779263872.5149288,1825,2053,æ
1779263872.517364,1866,1841,æ
1779263872.5176802,2140,1667,æ
1779263872.5177479,2225,1586,æ
1779263872.5190232,2248,1649,æ
1779263872.520399,2225,1722,æ
1779263872.527113,2090,1794,æ
1779263872.527722,2037,1749,æ
1779263872.529662,2021,1551,æ
1779263872.5312052,1918,1757,æ
1779263872.531857,1876,1733,æ
1779263872.5357969,2005,1474,æ
1779263872.5359921,2072,1558,æ
1779263872.5384588,1552,1635,æ
1779263872.53857,1940,1796,æ
1779263872.541153,2541,1812,æ
1779263872.5425751,2581,1859,æ
1779263872.548457,2307,1724,æ
1779263872.548959,2255,1743,æ
1779263872.550459,2275,1716,æ
1779263872.552225,2277,1647,æ
1779263872.552824,2173,1711,æ
1779263872.55678,2030,1929,æ
1779263872.556892,1894,1770,æ
1779263872.558899,1944,1600,æ
1779263872.561476,2115,1895,æ
1779263872.562947,1594,1825,æ
1779263872.564609,1803,1823,æ
1779263872.567987,2386,1732,æ
1779263872.5709388,2217,1718,æ
1779263872.572489,2006,1640,æ
1779263872.574313,2092,1800,æ
1779263872.577232,2005,1972,æ
1779263872.577492,2031,1892,æ
1779263872.579851,2001,1882,æ
1779263872.581311,1940,1905,æ
1779263872.5826392,2137,1734,æ
1779263872.5886238,2162,1668,æ
1779263872.58926,1974,1964,æ
1779263872.590104,2029,1906,æ
1779263872.59216,1972,1818,æ
1779263872.5952451,2026,1796,æ
1779263872.598048,2005,1760,æ
1779263872.598238,2033,2170,æ
1779263872.600798,2017,1821,æ
1779263872.6008399,2157,1627,æ
1779263872.603425,2249,1683,æ
1779263872.604745,2138,1925,æ
1779263872.6165838,2032,1991,æ
1779263872.61953,1988,1863,æ
1779263872.619987,1863,1865,æ
1779263872.622615,2014,2021,æ
1779263872.622744,2097,1907,æ
1779263872.622972,1867,1683,æ
1779263872.6230972,2039,1754,æ
1779263872.623648,2201,2001,æ
1779263872.623873,2159,2040,æ
1779263872.6253262,2152,1888,æ
1779263872.627263,2108,1908,æ
1779263872.632277,2036,2070,æ
1779263872.632351,2161,1839,æ
1779263872.633775,2166,1789,æ
1779263872.635859,2146,1685,æ
1779263872.639096,2206,1802,æ
1779263872.642011,2107,1788,æ
1779263872.642112,1888,1983,æ
1779263872.6446002,1926,1852,æ
1779263872.644825,1950,1785,æ
1779263872.647676,1945,1955,æ
1779263872.649106,1995,1665,æ
1779263872.650676,2247,1924,æ
1779263872.654235,2341,1926,æ
1779263872.654746,2185,2033,æ
1779263872.657302,2019,2026,æ
1779263872.659199,2097,1938,æ
1779263872.663522,2114,1543,æ
1779263872.6658938,2045,1863,æ
1779263872.665941,1919,1634,æ
1779263872.667247,1822,1721,æ
1779263872.668561,2063,1706,æ
1779263872.6742668,2051,1891,æ
1779263872.675182,1987,1971,æ
1779263872.6759832,1995,1852,æ
1779263872.677614,2053,1876,æ
1779263872.683549,2099,2019,æ
1779263872.68386,2089,2068,æ
1779263872.684055,2108,1919,æ
1779263872.6865191,2200,1860,æ
1779263872.6865761,2146,1971,æ
1779263872.689148,1979,1211,æ
1779263872.690453,1959,1877,æ
1779263872.695161,1977,2019,æ
1779263872.696079,1939,2104,æ
1779263872.6982799,1856,1401,æ
1779263872.699957,1928,1881,æ
1779263872.701569,2123,1750,æ
1779263872.704592,2173,1895,æ
1779263872.7047732,2113,1953,æ
1779263872.707077,2071,1922,æ
1779263872.708413,2123,1983,æ
1779263872.710997,2076,1838,æ
1779263872.715689,2015,1913,æ
1779263872.7162209,1952,1857,æ
1779263872.71903,2151,1858,æ
1779263872.719255,2289,2097,æ
1779263872.722322,2186,1772,æ
1779263872.725228,2062,1912,æ
1779263872.725566,1919,1993,æ
1779263872.727961,1770,1955,æ
1779263872.729523,1868,2058,æ
1779263872.731049,2211,2138,æ
1779263872.732425,2213,1884,æ
1779263872.736664,2080,1740,æ
1779263872.73714,2172,1918,æ
1779263872.739556,2154,2190,æ
1779263872.7414458,2166,2295,æ
1779263872.745097,2315,2113,æ
1779263872.745186,2275,2053,æ
1779263872.7475579,2094,2045,æ
1779263872.74887,2070,2057,æ
1779263872.751446,2095,1901,æ
1779263872.7527611,2081,1983,æ
1779263872.756997,1987,2105,æ
1779263872.7583702,1904,2142,æ
1779263872.760233,1969,1931,æ
1779263872.765907,1999,2011,æ
1779263872.7664378,1962,2126,æ
1779263872.768178,1957,2106,æ
1779263872.768657,2080,1989,æ
1779263872.768859,2140,1852,æ
1779263872.771589,2078,1988,æ
1779263872.772934,2011,1995,æ
1779263872.777696,2038,1956,æ
1779263872.77857,2088,2020,æ
1779263872.7787,2085,2184,æ
1779263872.7823439,2042,2121,æ
1779263872.7865212,2059,2049,æ
1779263872.786829,2169,1949,æ
1779263872.787037,2119,2042,æ
1779263872.7892962,2019,2119,æ
1779263872.790602,1973,1987,æ
1779263872.7931619,2012,2125,æ
1779263872.7982562,1994,2255,æ
1779263872.800339,1967,2339,æ
1779263872.8023412,1982,2174,æ
1779263872.803509,2102,1999,æ
1779263872.806197,2189,1990,æ
1779263872.8063722,2020,2065,æ
1779263872.806635,1949,2318,æ
1779263872.8095942,1986,2183,æ
1779263872.8109372,2107,2176,æ
1779263872.813536,2028,2334,æ
1779263872.817657,1998,2257,æ
1779263872.818502,2111,2244,æ
1779263872.81935,2187,2099,æ
1779263872.826726,2022,2255,æ
1779263872.8288069,2015,2257,æ
1779263872.828981,2016,2468,æ
1779263872.829024,2069,2510,æ
1779263872.8290648,2058,2162,æ
1779263872.8316538,2040,2214,æ
1779263872.832959,2075,2247,æ
1779263872.837714,2108,1967,æ
1779263872.838434,2050,2126,æ
1779263872.838856,1984,2473,æ
1779263872.84109,2086,2480,æ
1779263872.8428512,2112,2472,æ
1779263872.84881,2097,2385,æ
1779263872.849306,2064,2404,æ
1779263872.849535,2031,2508,æ
1779263872.850841,2209,2492,æ
1779263872.8532422,2254,2426,æ
1779263872.85456,2143,2527,æ
1779263872.859232,2054,2608,æ
1779263872.85979,1997,2415,æ
1779263872.8624132,2013,2350,æ
1779263872.8639219,1929,2512,æ
1779263872.866789,1907,2480,æ
1779263872.866922,2063,2430,æ
1779263872.8691819,2196,2417,æ
1779263872.871642,2158,2460,æ
1779263872.8730738,2048,2247,æ
1779263872.8792498,2020,2280,æ
1779263872.879735,2060,2596,æ
1779263872.881491,1982,2610,æ
1779263872.881751,1986,2511,æ
1779263872.883318,2056,2369,æ
1779263872.886965,2150,2344,æ
1779263872.8871522,2121,2470,æ
1779263872.889347,2090,2607,æ
1779263872.890663,2052,2526,æ
1779263872.8951879,2009,2575,æ
1779263872.895242,2012,2804,æ
1779263872.8976378,1972,2786,æ
1779263872.8989692,2045,2591,æ
1779263872.904022,2145,2468,æ
1779263872.905312,2186,2475,æ
1779263872.906759,2094,2620,æ
1779263872.907024,2012,2605,æ
1779263872.9100008,2051,2432,æ
1779263872.912807,2089,2502,æ
1779263872.913431,1957,2708,æ
1779263872.915829,1950,2493,æ
1779263872.917154,2063,2484,æ
1779263872.91854,2118,2527,æ
1779263872.927404,2065,2573,æ
1779263872.927577,1998,2671,æ
1779263872.927792,2063,2625,æ
1779263872.929268,2054,2384,æ
1779263872.9310021,1997,2516,æ
1779263872.9312499,1917,2660,æ
1779263872.9339468,2059,2580,æ
1779263872.936349,2220,2465,æ
1779263872.936481,2146,2369,æ
1779263872.93902,2081,2606,æ
1779263872.944729,2022,2468,æ
1779263872.9452028,1991,2346,æ
1779263872.945992,2009,2363,æ
1779263872.947573,1985,2442,æ
1779263872.949196,2043,2393,æ
1779263872.953032,2188,2269,æ
1779263872.953183,2167,2110,æ
1779263872.955452,2056,2195,æ
1779263872.9567559,1959,2235,æ
1779263872.959339,2031,2317,æ
1779263872.960737,2075,2369,æ
1779263872.96552,1961,2342,æ
1779263872.966742,2073,2181,æ
1779263872.9681122,2074,2144,æ
1779263872.970006,2189,2161,æ
1779263872.9737349,2064,2318,æ
1779263872.9738991,2008,2357,æ
1779263872.975717,1982,2360,æ
1779263872.977034,2046,2231,æ
1779263872.979709,2003,2359,æ
1779263872.9810581,1899,2170,æ
1779263872.986218,2022,1921,æ
1779263872.9881878,2229,1889,æ
1779263872.988346,2202,2039,æ
1779263872.991012,2030,2145,æ
1779263872.993834,1977,2281,æ
1779263872.9940648,2008,2178,æ
1779263872.9963799,2049,2188,æ
1779263872.996534,1990,2056,æ
1779263872.999061,1980,2070,æ
1779263873.001626,2108,1990,æ
1779263873.0057442,2195,1830,æ
1779263873.0068638,2057,1925,æ
1779263873.006988,2031,2107,æ
1779263873.009818,2093,1972,æ
1779263873.014282,2149,1927,æ
1779263873.014517,1990,2035,æ
1779263873.0146298,1933,1941,æ
1779263873.0176141,2044,1859,æ
1779263873.019053,2181,1872,æ
1779263873.020496,2003,1965,æ
1779263873.02655,1953,2309,æ
1779263873.027317,1938,2425,æ
1779263873.027709,2082,2035,æ
1779263873.030825,2054,1988,æ
1779263873.031939,2001,1986,æ
1779263873.034691,2059,1897,æ
1779263873.034985,2139,1879,æ
1779263873.037189,2191,1917,æ
1779263873.0385122,2012,2061,æ
1779263873.041076,1947,1969,æ
1779263873.046207,2060,1882,æ
1779263873.047461,2060,1963,æ
1779263873.0478778,1976,1866,æ
1779263873.0507221,1996,1800,æ
1779263873.051183,2102,1873,æ
1779263873.055043,2163,1978,æ
1779263873.055236,2074,1996,æ
1779263873.05744,2023,1836,æ
1779263873.0587552,2049,1759,æ
1779263873.061236,1994,1740,æ
1779263873.062561,1947,1886,æ
1779263873.066747,1939,1744,æ
1779263873.069581,2043,1670,æ
1779263873.069781,2149,1743,æ
1779263873.071187,2048,1851,æ
1779263873.072607,2020,1808,æ
1779263873.07527,2011,1848,æ
1779263873.077485,2038,1849,æ
1779263873.078805,2048,1971,æ
1779263873.081375,1994,1937,æ
1779263873.082687,2028,1788,æ
1779263873.087036,2133,1706,æ
1779263873.0879,2109,1783,æ
1779263873.0899599,2006,1796,æ
1779263873.0926,2008,1850,æ
1779263873.0952802,2054,1721,æ
1779263873.095486,2041,1716,æ
1779263873.09764,1976,1734,æ
1779263873.098964,2018,1700,æ
1779263873.101543,2107,1607,æ
1779263873.1028469,2181,1675,æ
1779263873.107688,2085,1762,æ
1779263873.1080909,1996,1752,æ
1779263873.1100779,2014,1686,æ
1779263873.111837,2044,1726,æ
1779263873.1154602,1979,1756,æ
1779263873.115668,1993,1687,æ
1779263873.117921,2110,1641,æ
1779263873.119225,2127,1678,æ
1779263873.12053,2099,1766,æ
1779263873.12309,2015,1801,æ
1779263873.127583,2016,1726,æ
1779263873.128028,2046,1690,æ
1779263873.1301389,1993,1731,æ
1779263873.1326988,1967,1663,æ
1779263873.1329322,2042,1498,æ
1779263873.135348,2150,1531,æ
1779263873.1374989,2134,1701,æ
1779263873.1387992,2028,1769,æ
1779263873.141367,2016,1799,æ
1779263873.1426828,2038,1728,æ
1779263873.14906,2041,1761,æ
1779263873.150708,1964,1744,æ
1779263873.150927,2013,1679,æ
1779263873.151037,2121,1641,æ
1779263873.153522,2154,1714,æ
1779263873.155968,2068,1775,æ
1779263873.157981,1991,1772,æ
1779263873.1592908,2014,1667,æ
1779263873.1606028,2061,1655,æ
1779263873.163164,1981,1706,æ
1779263873.164534,1979,1651,æ
1779263873.168716,2081,1534,æ
1779263873.169748,2158,1456,æ
1779263873.17138,2101,1595,æ
1779263873.172835,2000,1627,æ
1779263873.1762261,1993,1607,æ
1779263873.178245,2058,1561,æ
1779263873.179557,1995,1653,æ
1779263873.180853,1978,1593,æ
1779263873.183417,2040,1514,æ
1779263873.18473,2143,1539,æ
1779263873.1892,2140,1622,æ
1779263873.189934,2037,1614,æ
1779263873.191616,2004,1603,æ
1779263873.194168,2040,1558,æ
1779263873.19663,2012,1617,æ
1779263873.1969879,1950,1581,æ
1779263873.198978,1965,1537,æ
1779263873.20155,2084,1479,æ
1779263873.202857,2134,1597,æ
1779263873.2052832,2037,1673,æ
1779263873.2065768,1990,1694,æ
1779263873.2098129,1989,1639,æ
1779263873.21218,2021,1677,æ
1779263873.213732,1963,1719,æ
1779263873.216973,1952,1674,æ
1779263873.217072,2058,1626,æ
1779263873.2188292,2147,1680,æ
1779263873.221401,2078,1775,æ
1779263873.222699,1993,1772,æ
1779263873.2252522,1976,1763,æ
1779263873.226557,2035,1716,æ
1779263873.23038,1988,1831,æ
1779263873.230788,1944,1766,æ
1779263873.2329159,2016,1692,æ
1779263873.237586,2134,1683,æ
1779263873.237737,2101,1752,æ
1779263873.239779,2017,1883,æ
1779263873.241077,1988,1801,æ
1779263873.2436612,2034,1782,æ
1779263873.244962,1989,1836,æ
1779263873.247514,1929,1833,æ
1779263873.251499,1973,1800,æ
1779263873.252527,2077,1777,æ
1779263873.253799,2139,1815,æ
1779263873.256373,2037,1883,æ
1779263873.259017,1973,1915,æ
1779263873.259167,2005,1879,æ
1779263873.26099,2065,1905,æ
1779263873.263561,1960,1944,æ
1779263873.264859,1980,1902,æ
1779263873.267415,2080,1854,æ
1779263873.272583,2164,1880,æ
1779263873.275601,2092,1926,æ
1779263873.276046,2009,1852,æ
1779263873.277144,2006,1867,æ
1779263873.281638,2050,1842,æ
1779263873.28173,2018,1908,æ
1779263873.281926,1963,1889,æ
1779263873.2832341,2045,1871,æ
1779263873.284537,2141,1866,æ
1779263873.2869508,2125,1939,æ
1779263873.292626,2050,1866,æ
1779263873.292771,2006,1904,æ
1779263873.293174,2039,1967,æ
1779263873.295213,2031,1981,æ
1779263873.297735,1973,1939,æ
1779263873.3001559,2012,1895,æ
1779263873.302301,2110,1854,æ
1779263873.303651,2161,1939,æ
1779263873.304961,2066,1900,æ
1779263873.3075159,2008,1966,æ
1779263873.308813,2023,1883,æ
1779263873.315454,2056,1983,æ
1779263873.3155909,1989,2031,æ
1779263873.3167481,1984,1983,æ
1779263873.317217,2077,1928,æ
1779263873.318667,2168,1894,æ
1779263873.32091,2108,2008,æ
1779263873.323143,2017,1994,æ
1779263873.324516,1996,1938,æ
1779263873.32709,2038,1954,æ
1779263873.329493,2001,2078,æ
1779263873.33292,1969,1984,æ
1779263873.333695,2035,1938,æ
1779263873.3354409,2147,1810,æ
1779263873.337926,2138,1957,æ
1779263873.3402932,2050,1987,æ
1779263873.342436,2006,1974,æ
1779263873.342577,2028,1958,æ
1779263873.345185,2044,2061,æ
1779263873.346515,1964,2019,æ
1779263873.349083,2002,1990,æ
1779263873.3550808,2101,1949,æ
1779263873.3551722,2165,1986,æ
1779263873.356328,2087,1951,æ
1779263873.357943,2012,1975,æ
1779263873.361048,2009,2029,æ
1779263873.3612611,2056,1986,æ
1779263873.362947,1981,2016,æ
1779263873.3655171,2000,2012,æ
1779263873.366815,2105,2033,æ
1779263873.3693771,2163,2035,æ
1779263873.3706791,2088,1981,æ
1779263873.373783,2029,2022,æ
1779263873.376145,2006,2022,æ
1779263873.377772,2050,2050,æ
1779263873.380855,2026,2082,æ
1779263873.3810802,1979,2036,æ
1779263873.383134,2030,1990,æ
1779263873.38451,2146,1951,æ
1779263873.3869052,2140,2086,æ
1779263873.389466,2041,2069,æ
1779263873.390769,2005,2049,æ
1779263873.394822,2069,2033,æ
1779263873.395526,2050,2029,æ
1779263873.3970199,1972,1992,æ
1779263873.399443,1997,1994,æ
1779263873.401612,2128,1989,æ
1779263873.4037938,2187,2075,æ
1779263873.405097,2090,2147,æ
1779263873.406506,2013,2110,æ
1779263873.4090502,2024,2171,æ
1779263873.411602,2048,2113,æ
1779263873.415027,1986,2117,æ
1779263873.415427,1985,2022,æ
1779263873.417551,2054,1983,æ
1779263873.4199839,2172,1964,æ
1779263873.4223292,2102,2032,æ
1779263873.422718,2013,2092,æ
1779263873.424813,2009,2048,æ
1779263873.42743,2057,2097,æ
1779263873.4287171,2024,2197,æ
1779263873.431298,1992,2156,æ
1779263873.43281,2050,2021,æ
1779263873.4367218,2165,1982,æ
1779263873.438613,2130,2074,æ
1779263873.438755,2041,2061,æ
1779263873.443319,1998,2042,æ
1779263873.4434931,2036,2023,æ
1779263873.4457998,2029,2166,æ
1779263873.447366,1967,2166,æ
1779263873.448701,2003,2033,æ
1779263873.451154,2116,2004,æ
1779263873.4526021,2140,2093,æ
1779263873.456418,2073,2038,æ
1779263873.456887,2009,2010,æ
1779263873.459142,1994,2012,æ
1779263873.460661,2025,2001,æ
1779263873.463937,1988,2146,æ
1779263873.46616,1992,2078,æ
1779263873.467464,2087,1976,æ
1779263873.468776,2178,1939,æ
1779263873.471308,2124,2034,æ
1779263873.4726138,2042,2114,æ
1779263873.477352,2031,2095,æ
1779263873.477761,2070,2065,æ
1779263873.4794009,2036,2122,æ
1779263873.4818492,1962,2141,æ
1779263873.4839191,2035,2031,æ
1779263873.4861178,2126,2000,æ
1779263873.487419,2141,2084,æ
1779263873.4887161,2036,2143,æ
1779263873.4912698,1996,2121,æ
1779263873.4925241,2040,2044,æ
1779263873.4972749,2039,2066,æ
1779263873.497937,1992,2075,æ
1779263873.499798,1981,2032,æ
1779263873.504409,2101,2010,æ
1779263873.504509,2168,2083,æ
1779263873.50464,2071,2135,æ
1779263873.5075278,2001,2130,æ
1779263873.50883,2021,2068,æ
1779263873.511403,2052,2124,æ
1779263873.5127108,2009,2167,æ
1779263873.518545,2002,2078,æ
1779263873.520281,2091,1968,æ
1779263873.520427,2182,1946,æ
1779263873.520538,2123,2068,æ
1779263873.525022,2030,2061,æ
1779263873.525121,2033,2019,æ
1779263873.527073,2050,2062,æ
1779263873.528497,2022,2119,æ
1779263873.5310762,1967,2084,æ
1779263873.533687,2026,2026,æ
1779263873.534986,2157,1945,æ
1779263873.5385711,2157,2065,æ
1779263873.539019,2067,2171,æ
1779263873.541216,2026,2150,æ
1779263873.5436301,2086,2049,æ
1779263873.545695,2067,2057,æ
1779263873.54777,2000,2059,æ
1779263873.549093,2027,2027,æ
1779263873.550585,2138,1964,æ
1779263873.5531552,2167,1993,æ
1779263873.5545511,2081,2121,æ
1779263873.559156,2017,2107,æ
1779263873.559488,2013,2045,æ
1779263873.5612748,2039,2007,æ
1779263873.563584,1985,2102,æ
1779263873.5656378,1980,2134,æ
1779263873.567599,2068,2082,æ
1779263873.568911,2194,1994,æ
1779263873.5714712,2100,2067,æ
1779263873.572772,2021,2135,æ
1779263873.5753229,2013,2129,æ
1779263873.579378,2074,2012,æ
1779263873.579479,2028,2106,æ
1779263873.581697,2021,2102,æ
1779263873.584032,2049,2075,æ
1779263873.586048,2202,1982,æ
1779263873.588089,2169,2072,æ
1779263873.589393,2067,2109,æ
1779263873.590688,2011,2023,æ
1779263873.593246,2040,1959,æ
1779263873.59454,2050,2072,æ
1779263873.600054,1975,2102,æ
1779263873.600457,2001,2014,æ
1779263873.6035662,2096,2043,æ
1779263873.605539,2166,2050,æ
1779263873.6077209,2085,2130,æ
1779263873.607855,2022,2146,æ
1779263873.6101708,2028,2129,æ
1779263873.611516,2067,2066,æ
1779263873.612828,1987,2151,æ
1779263873.615411,1968,2140,æ
1779263873.616734,2071,1966,æ
1779263873.620747,2167,2016,æ
1779263873.6215281,2114,2114,æ
1779263873.623774,2041,2179,æ
1779263873.628709,2029,2148,æ
1779263873.6289449,2085,2134,æ
1779263873.62918,2029,2140,æ
1779263873.631231,1996,2070,æ
1779263873.632542,2049,2088,æ
1779263873.635144,2152,2019,æ
1779263873.63651,2150,2085,æ
1779263873.642273,2057,2100,æ
1779263873.645403,1990,2116,æ
1779263873.6492102,2028,2034,æ
1779263873.6516008,2036,2027,æ
1779263873.651686,2008,2075,æ
1779263873.6517272,2009,2022,æ
1779263873.651764,2104,1994,æ
1779263873.653107,2157,1995,æ
1779263873.654576,2070,2000,æ
1779263873.657402,2017,2098,æ
1779263873.662553,2034,2072,æ
1779263873.665111,2073,2099,æ
1779263873.668132,1995,2153,æ
1779263873.670958,1997,2133,æ
1779263873.6712909,2101,2036,æ
1779263873.673701,2208,2005,æ
1779263873.673878,2112,2059,æ
1779263873.673994,2023,2048,æ
1779263873.6753862,2016,2124,æ
1779263873.676766,2066,2124,æ
1779263873.684125,2043,2032,æ
1779263873.6861582,2002,2044,æ
1779263873.688119,2047,2036,æ
1779263873.689543,2141,2057,æ
1779263873.692065,2167,2045,æ
1779263873.692597,2062,1961,æ
1779263873.694278,2035,2015,æ
1779263873.6950421,2048,2052,æ
1779263873.695128,1993,2016,æ
1779263873.696609,1896,2136,æ
1779263873.699135,1920,2003,æ
1779263873.7062871,1968,1900,æ
1779263873.708701,2108,1873,æ
1779263873.710117,2129,1981,æ
1779263873.715227,2024,2238,æ
1779263873.715382,2044,2102,æ
1779263873.7154748,2074,2012,æ
1779263873.71555,2041,2040,æ
1779263873.715619,2079,2191,æ
1779263873.716961,2134,2127,æ
1779263873.7196832,2206,2036,æ
1779263873.72465,2113,2049,æ
1779263873.726677,2042,2183,æ
1779263873.732085,2016,2100,æ
1779263873.732415,2068,2033,æ
1779263873.732967,2034,2128,æ
1779263873.733462,1922,2060,æ
1779263873.735269,2043,2021,æ
1779263873.735971,2186,2020,æ
1779263873.737365,2214,1950,æ
1779263873.738728,2108,1947,æ
1779263873.747505,1900,2069,æ
1779263873.749247,1953,2237,æ
1779263873.753185,2038,1989,æ
1779263873.753707,1916,1999,æ
1779263873.756413,1993,2089,æ
1779263873.756608,2047,1904,æ
1779263873.756683,1898,1950,æ
1779263873.756747,2120,2238,æ
1779263873.756811,2330,2027,æ
1779263873.7596328,2348,1812,æ
1779263873.761003,2118,1907,æ
1779263873.766506,2000,2386,æ
1779263873.767143,2101,2173,æ
1779263873.76864,2205,1790,æ
1779263873.773982,2314,2013,æ
1779263873.7746649,2137,2050,æ
1779263873.775108,1767,2261,æ
1779263873.7767282,1370,1894,æ
1779263873.7775412,1559,2020,æ
1779263873.778938,1854,2043,æ
1779263873.781648,2204,2034,æ
1779263873.7874408,2396,2006,æ
1779263873.7900841,2367,1787,æ
1779263873.792028,2135,2181,æ
1779263873.7963789,2167,2121,æ
1779263873.79696,1892,2043,æ
1779263873.79762,1928,1906,æ
1779263873.8000782,2321,1725,æ
1779263873.800195,2198,2265,æ
1779263873.800334,2178,2115,æ
1779263873.801717,2215,1991,æ
1779263873.803076,2096,2048,æ
1779263873.810406,2029,2089,æ
1779263873.8109949,2401,1894,æ
1779263873.812609,2575,2155,æ
1779263873.8130329,2005,2158,æ
1779263873.81511,1865,2024,æ
1779263873.816559,1941,1973,æ
1779263873.816797,1952,2024,æ
1779263873.819406,1686,1894,æ
1779263873.8222651,1914,2133,æ
1779263873.823798,2298,2134,æ
1779263873.8251898,2269,1939,æ
1779263873.826611,1956,2071,æ
1779263873.831564,1861,2093,æ
1779263873.832206,1889,2138,æ
1779263873.834481,1437,2058,æ
1779263873.8347871,1967,1910,æ
1779263873.840402,2517,2052,æ
1779263873.841047,2410,2071,æ
1779263873.843168,2398,2266,æ
1779263873.8440309,2516,2110,æ
1779263873.845383,2537,2087,æ
1779263873.8492532,2020,2188,æ
1779263873.849729,1468,2127,æ
1779263873.853937,2141,1868,æ
1779263873.854947,2419,2005,æ
1779263873.857072,1903,2376,æ
1779263873.858964,1379,2098,æ
1779263873.859615,1740,2124,æ
1779263873.8659909,2358,2303,æ
1779263873.86614,2389,2576,æ
1779263873.8662221,2076,2371,æ
1779263873.8675761,2060,2009,æ
1779263873.868989,2654,2528,æ
1779263873.875255,2442,2821,æ
1779263873.878731,1358,2631,æ
1779263873.8807209,1640,2867,æ
1779263873.882688,2160,2995,æ
1779263873.885609,2168,3269,æ
1779263873.886038,1974,3692,æ
1779263873.886695,1071,3420,æ
1779263873.889308,1983,3328,æ
1779263873.889397,3020,3805,æ
1779263873.88951,2796,3886,æ
1779263873.8908422,1931,3966,æ
1779263873.8956149,1607,4001,æ
1779263873.897144,1760,3902,æ
1779263873.899311,1978,3854,æ
1779263873.901658,2423,3923,æ
1779263873.903166,2523,4060,æ
1779263873.9057422,2267,4095,æ
1779263873.9060411,1770,4095,æ
1779263873.9087622,1828,4095,æ
1779263873.9088671,1868,4095,æ
1779263873.9116611,2027,4019,æ
1779263873.913203,2104,3969,æ
1779263873.918611,2110,3975,æ
1779263873.919224,2112,4030,æ
1779263873.920341,2239,4095,æ
1779263873.9240582,2298,4095,æ
1779263873.926086,1977,4095,æ
1779263873.929205,1869,4095,æ
1779263873.929554,1951,4069,æ
1779263873.9321349,1901,4037,æ
1779263873.932446,1872,4018,æ
1779263873.93385,2183,4037,æ
1779263873.940182,2115,4073,æ
1779263873.940827,1850,4095,æ
1779263873.942913,1966,4095,æ
1779263873.9448829,2031,4095,æ
1779263873.9471848,2135,4089,æ
1779263873.950485,2153,4062,æ
1779263873.9509299,2043,4050,æ
1779263873.9516401,2018,4050,æ
1779263873.951926,1973,4066,æ
1779263873.954685,2228,4084,æ
1779263873.954824,2212,4011,æ
1779263873.95751,1697,4095,æ
1779263873.958796,1706,4085,æ
1779263873.968283,2383,4066,æ
1779263873.9685829,2503,4055,æ
1779263873.9688058,2179,4053,æ
1779263873.969234,1926,4061,æ
1779263873.971114,1901,3684,æ
1779263873.973258,2320,3022,æ
1779263873.976248,2188,2781,æ
1779263873.9769018,1778,2962,æ
1779263873.9771678,1956,3050,æ
1779263873.980287,1777,3607,æ
1779263873.981845,1471,3679,æ
1779263873.988277,2069,3507,æ
1779263873.9904199,2480,2890,æ
1779263873.990717,2405,2641,æ
1779263873.991004,2311,2472,æ
1779263873.9924648,2159,2906,æ
1779263873.995061,2177,2450,æ
1779263873.998215,2110,2483,æ
1779263873.9987671,2308,3042,æ
1779263874.001302,1942,3060,æ
1779263874.001642,1528,2515,æ
1779263874.003037,2086,2050,æ
1779263874.005664,2240,2061,æ
1779263874.007002,2320,2596,æ
1779263874.012214,2495,2250,æ
1779263874.0137768,2270,2182,æ
1779263874.01582,1924,2290,æ
1779263874.0159922,1688,2663,æ
1779263874.017876,2162,2062,æ
1779263874.019776,2270,1398,æ
1779263874.022638,1683,1518,æ
1779263874.023057,1875,1656,æ
1779263874.0255601,2216,1497,æ
1779263874.026885,1861,1536,æ
1779263874.032705,2345,1616,æ
1779263874.033361,2494,1578,æ
1779263874.0343318,2172,1231,æ
1779263874.0360708,2254,690,æ
1779263874.039683,2309,911,æ
1779263874.039828,2025,992,æ
1779263874.042665,1684,1118,æ
1779263874.042905,1770,879,æ
1779263874.0456991,1885,583,æ
1779263874.0470688,1687,123,æ
1779263874.049645,1946,993,æ
1779263874.050982,2239,323,æ
1779263874.054762,2219,216,æ
1779263874.055743,2198,743,æ
1779263874.058505,2157,830,æ
1779263874.060313,2002,500,æ
1779263874.06211,1797,420,æ
1779263874.065252,1927,621,æ
1779263874.065535,1719,713,æ
1779263874.0683079,1474,293,æ
1779263874.069619,2312,0,æ
1779263874.070957,2587,578,æ
1779263874.07356,2120,802,æ
1779263874.077954,2009,603,æ
1779263874.0797372,1996,139,æ
1779263874.081274,1865,0,æ
1779263874.081467,2339,0,æ
1779263874.0849762,2687,0,æ
1779263874.085161,2381,0,æ
1779263874.0883079,2156,237,æ
1779263874.090989,2002,492,æ
1779263874.091264,1636,469,æ
1779263874.0925791,1789,222,æ
1779263874.0951538,2279,0,æ
1779263874.1013918,1902,490,æ
1779263874.10246,1844,440,æ
1779263874.103436,2270,0,æ
1779263874.104981,2245,52,æ
1779263874.105269,1560,382,æ
1779263874.108578,1436,477,æ
1779263874.1113942,2294,325,æ
1779263874.1117592,2564,412,æ
1779263874.114523,2211,215,æ
1779263874.1158369,2383,557,æ
1779263874.117153,2456,80,æ
1779263874.119734,2411,0,æ
1779263874.123778,2275,301,æ
1779263874.1248472,2122,445,æ
1779263874.125738,1969,350,æ
1779263874.128143,1722,116,æ
1779263874.130225,1446,429,æ
1779263874.131765,1831,411,æ
1779263874.134733,2243,444,æ
1779263874.134891,2191,106,æ
1779263874.137507,2126,210,æ
1779263874.1388319,2194,460,æ
1779263874.144981,1802,689,æ
1779263874.145997,1957,423,æ
1779263874.1465259,2312,785,æ
1779263874.1482072,2085,904,æ
1779263874.150466,2086,1128,æ
1779263874.157384,1998,831,æ
1779263874.15744,1806,487,æ
1779263874.157482,1613,773,æ
1779263874.157536,2005,736,æ
1779263874.1588511,2212,736,æ
1779263874.1614468,2008,585,æ
1779263874.162784,1538,996,æ
1779263874.171681,1957,840,æ
1779263874.178912,2565,601,æ
1779263874.179253,2613,430,æ
1779263874.179733,2327,709,æ
1779263874.179936,2125,694,æ
1779263874.180371,2143,735,æ
1779263874.183212,2440,488,æ
1779263874.183299,2032,891,æ
1779263874.183371,1265,1161,æ
1779263874.18343,1554,650,æ
1779263874.1847832,1882,413,æ
1779263874.1901891,2307,708,æ
1779263874.191963,2484,900,æ
1779263874.197385,2321,846,æ
1779263874.201118,2318,803,æ
1779263874.201623,2314,882,æ
1779263874.202168,2246,817,æ
1779263874.202668,2335,606,æ
1779263874.2055838,2000,512,æ
1779263874.205733,1970,562,æ
1779263874.205866,1459,561,æ
1779263874.207106,1450,636,æ
1779263874.208534,1905,472,æ
1779263874.211215,2559,444,æ
1779263874.219299,2702,532,æ
1779263874.2220852,2099,509,æ
1779263874.226709,2179,106,æ
1779263874.227354,2306,593,æ
1779263874.22778,2330,418,æ
1779263874.22804,2087,694,æ
1779263874.230933,1834,734,æ
1779263874.231097,1820,649,æ
1779263874.231246,1820,916,æ
1779263874.231366,1630,740,æ
1779263874.2327628,1858,808,æ
1779263874.2390778,1929,736,æ
1779263874.241832,1768,707,æ
1779263874.250449,2038,1049,æ
1779263874.25297,2223,921,æ
1779263874.2540329,2007,1200,æ
1779263874.254125,2263,1068,æ
1779263874.254192,2454,1054,æ
1779263874.254255,2240,1054,æ
1779263874.254393,1919,877,æ
1779263874.25458,1855,1020,æ
1779263874.254654,2085,1092,æ
1779263874.25732,2095,1560,æ
1779263874.258697,2185,1321,æ
1779263874.265723,1891,1261,æ
1779263874.2680562,1425,1278,æ
1779263874.268414,1889,1447,æ
1779263874.275496,2702,1381,æ
1779263874.276052,2613,1318,æ
1779263874.2764668,2307,1381,æ
1779263874.276808,2049,1448,æ
1779263874.277132,1776,1563,æ
1779263874.2800498,1947,1618,æ
1779263874.280155,2005,1363,æ
1779263874.2816262,1898,1446,æ
1779263874.287064,2067,1427,æ
1779263874.290126,2476,1174,æ
1779263874.290585,2302,1324,æ
1779263874.2941928,1953,1845,æ
1779263874.294357,2049,1861,æ
1779263874.297826,2070,1591,æ
1779263874.298321,1989,1444,æ
1779263874.298739,2225,1426,æ
1779263874.301377,2288,1507,æ
1779263874.302015,2078,1510,æ
1779263874.303415,1976,1443,æ
1779263874.304898,1909,1419,æ
1779263874.307455,2144,1550,æ
1779263874.314753,2275,1648,æ
1779263874.3173,2081,1500,æ
1779263874.319343,1930,1423,æ
1779263874.3248909,1800,1751,æ
1779263874.325305,1985,1392,æ
1779263874.325876,2179,1399,æ
1779263874.326112,2077,1663,æ
1779263874.326478,2036,1637,æ
1779263874.3292422,2130,1630,æ
1779263874.329391,2309,1849,æ
1779263874.3295438,1999,1428,æ
1779263874.331025,1651,1927,æ
1779263874.339375,1632,1760,æ
1779263874.339935,2158,1316,æ
1779263874.343675,2535,1700,æ
1779263874.3471968,2197,1801,æ
1779263874.347722,1920,1768,æ
1779263874.350463,1929,1746,æ
1779263874.351511,2222,1684,æ
1779263874.351619,2292,1807,æ
1779263874.351725,1816,1799,æ
1779263874.351834,1698,1609,æ
1779263874.3531961,1741,1842,æ
1779263874.3546062,2062,1923,æ
1779263874.3574479,2251,1805,æ
1779263874.3651571,2280,1956,æ
1779263874.365407,2186,1987,æ
1779263874.365848,2208,1925,æ
1779263874.368135,2335,1918,æ
1779263874.369882,2292,1675,æ
1779263874.373276,1904,1560,æ
1779263874.373861,1187,2244,æ
1779263874.374389,2018,1927,æ
1779263874.377151,2380,1588,æ
1779263874.377263,1876,1982,æ
1779263874.378641,1829,1684,æ
1779263874.3850582,2125,2064,æ
1779263874.387645,2464,1808,æ
1779263874.388191,2565,1890,æ
1779263874.390497,2417,1998,æ
1779263874.3921869,2356,1954,æ
1779263874.395475,1952,1989,æ
1779263874.396013,1845,2001,æ
1779263874.398622,2099,1953,æ
1779263874.39887,2015,1986,æ
1779263874.399602,1784,1792,æ
1779263874.40099,1971,1903,æ
1779263874.403625,1837,1902,æ
1779263874.4049878,1826,1858,æ
1779263874.411131,2177,2105,æ
1779263874.41236,2031,2094,æ
1779263874.414101,1797,1917,æ
1779263874.414742,1973,2096,æ
1779263874.4185212,1929,2247,æ
1779263874.421977,2279,1894,æ
1779263874.4223711,2492,2142,æ
1779263874.42293,2291,1873,æ
1779263874.4231832,2103,2132,æ
1779263874.4259589,2041,1997,æ
1779263874.4272919,2146,1942,æ
1779263874.43224,2071,2069,æ
1779263874.432816,2005,1857,æ
1779263874.433315,1988,1855,æ
1779263874.4357991,2042,2059,æ
1779263874.437844,1732,1928,æ
1779263874.4426408,1665,2036,æ
1779263874.443028,1991,2160,æ
1779263874.443459,2110,1724,æ
1779263874.446131,2225,2370,æ
1779263874.447575,2095,2246,æ
1779263874.44891,1980,1940,æ
1779263874.4515111,2065,1958,æ
1779263874.4562402,2248,1935,æ
1779263874.4569001,2276,2036,æ
1779263874.457825,1932,2082,æ
1779263874.4603982,1912,2001,æ
1779263874.4627059,1535,1968,æ
1779263874.462872,1773,2100,æ
1779263874.467558,2341,1945,æ
1779263874.468002,2602,2019,æ
1779263874.4701529,2335,2151,æ
1779263874.4714801,2021,2158,æ
1779263874.472933,2112,1903,æ
1779263874.477076,2226,2186,æ
1779263874.47762,2325,1974,æ
1779263874.48029,2224,2117,æ
1779263874.4840052,2051,2227,æ
1779263874.4842072,2073,1988,æ
1779263874.48778,2142,1749,æ
1779263874.4879959,2138,2072,æ
1779263874.490495,2068,2106,æ
1779263874.4907389,1906,2080,æ
1779263874.493252,1747,2089,æ
1779263874.494591,1919,1916,æ
1779263874.500659,1824,1976,æ
1779263874.501624,1991,2129,æ
1779263874.503795,2110,1941,æ
1779263874.503927,2294,2082,æ
1779263874.50564,2317,2021,æ
1779263874.507545,2162,2021,æ
1779263874.5109,2168,2024,æ
1779263874.5111868,2143,1957,æ
1779263874.514169,1782,2191,æ
1779263874.515622,1787,2187,æ
1779263874.516939,1993,1949,æ
1779263874.5241501,2085,1927,æ
1779263874.5256279,2067,2067,æ
1779263874.527263,2083,1953,æ
1779263874.527411,2080,2226,æ
1779263874.5275662,2204,2080,æ
1779263874.531171,2168,2021,æ
1779263874.531528,1993,2197,æ
1779263874.534894,1897,1954,æ
1779263874.535211,1919,1961,æ
1779263874.537848,1985,1768,æ
1779263874.5391822,1984,1926,æ
1779263874.5438862,2011,2215,æ
1779263874.545516,2045,2194,æ
1779263874.547284,2170,1963,æ
1779263874.548862,2092,1960,æ
1779263874.549408,2042,1969,æ
1779263874.5536551,2093,1959,æ
1779263874.553926,2154,1966,æ
1779263874.5564039,2043,2114,æ
1779263874.556555,1985,2021,æ
1779263874.5589771,2024,1928,æ
1779263874.565793,2029,1859,æ
1779263874.568161,2000,1978,æ
1779263874.568455,1964,2040,æ
1779263874.570322,2109,1949,æ
1779263874.574665,2188,1766,æ
1779263874.575043,2158,2016,æ
1779263874.5753942,2062,1977,æ
1779263874.5755131,1853,2099,æ
1779263874.5778298,2153,2052,æ
1779263874.579167,2238,1987,æ
1779263874.580725,2090,2065,æ
1779263874.589793,2093,1922,æ
1779263874.591394,2213,2036,æ
1779263874.593073,2281,2007,æ
1779263874.596417,2228,2074,æ
1779263874.59681,2128,2150,æ
1779263874.597019,2084,1939,æ
1779263874.597208,2076,2058,æ
1779263874.597396,1933,2053,æ
1779263874.599754,1844,2019,æ
1779263874.601119,1962,1955,æ
1779263874.603588,2132,2256,æ
1779263874.608192,2117,1903,æ
1779263874.608727,2052,2156,æ
1779263874.609594,2071,2068,æ
1779263874.6118588,2084,2083,æ
1779263874.615156,1959,2104,æ
1779263874.618266,1896,2119,æ
1779263874.618491,1989,2120,æ
1779263874.6187048,2187,2030,æ
1779263874.620588,2186,2100,æ
1779263874.6231732,2064,2102,æ
1779263874.624557,1991,2208,æ
1779263874.629879,2018,1968,æ
1779263874.6304572,2005,2154,æ
1779263874.6314108,1995,2296,æ
1779263874.632986,1990,2170,æ
1779263874.636105,2105,2080,æ
1779263874.639286,2134,2144,æ
1779263874.639518,2015,2474,æ
1779263874.6419141,2028,2496,æ
1779263874.6432261,2106,2372,æ
1779263874.6445801,2085,2396,æ
1779263874.6511412,2032,2423,æ
1779263874.6520581,2078,2290,æ
1779263874.652583,2138,2336,æ
1779263874.6530812,2239,2398,æ
1779263874.65507,2128,2315,æ
1779263874.657053,2090,2358,æ
1779263874.661336,2066,2352,æ
1779263874.6616168,2077,2255,æ
1779263874.6640792,2029,2379,æ
1779263874.6654289,1987,2534,æ
1779263874.666541,1996,2375,æ
1779263874.669245,2117,2323,æ
1779263874.6768,2143,2395,æ
1779263874.677014,2069,2396,æ
1779263874.6790469,1992,2445,æ
1779263874.687496,2017,2486,æ
1779263874.687794,2022,2635,æ
1779263874.687933,1935,2742,æ
1779263874.688132,2044,2571,æ
1779263874.688212,2237,2419,æ
1779263874.6883142,2233,2530,æ
1779263874.689526,2118,2599,æ
1779263874.690839,2074,2699,æ
1779263874.6958458,2095,2641,æ
1779263874.697292,2128,2610,æ
1779263874.697823,2041,2684,æ
1779263874.700522,2025,2606,æ
1779263874.701469,2084,2551,æ
1779263874.7057002,2154,2521,æ
1779263874.705882,2061,2481,æ
1779263874.707834,2019,2412,æ
1779263874.7095912,2024,2585,æ
1779263874.710931,2004,2500,æ
1779263874.7170491,1964,2671,æ
1779263874.7175949,1969,2647,æ
1779263874.718085,2059,2536,æ
1779263874.721421,2193,2600,æ
1779263874.7219021,2121,2645,æ
1779263874.7234821,2041,2653,æ
1779263874.7266839,2012,2805,æ
1779263874.72687,2105,2631,æ
1779263874.7293801,2156,2611,æ
1779263874.730711,2046,2643,æ
1779263874.733243,2016,2740,æ
1779263874.734699,2117,2473,æ
1779263874.7386072,2221,2724,æ
1779263874.739758,2092,2614,æ
1779263874.741268,2047,2554,æ
1779263874.743111,2037,2546,æ
1779263874.747336,2071,2632,æ
1779263874.747972,1975,2635,æ
1779263874.750326,1953,2745,æ
1779263874.7516968,2016,2611,æ
1779263874.7530081,2092,2481,æ
1779263874.755573,2060,2780,æ
1779263874.760494,2026,2992,æ
1779263874.760973,2069,2680,æ
1779263874.761137,2123,2528,æ
1779263874.7645252,2065,2630,æ
1779263874.765106,2008,2718,æ
1779263874.769307,2101,2621,æ
1779263874.7695649,2225,2383,æ
1779263874.772001,2195,2507,æ
1779263874.773311,2057,2575,æ
1779263874.775677,2027,2600,æ
1779263874.776908,2032,2557,æ
1779263874.781516,2041,2614,æ
1779263874.782447,1980,2554,æ
1779263874.784147,2018,2370,æ
1779263874.7856798,2124,2322,æ
1779263874.790227,2123,2298,æ
1779263874.79048,2043,2421,æ
1779263874.792546,1970,2521,æ
1779263874.792802,2005,2471,æ
1779263874.795499,2074,2445,æ
1779263874.7972212,2006,2376,æ
1779263874.8009658,2011,2310,æ
1779263874.801492,2074,2448,æ
1779263874.803819,2167,2363,æ
1779263874.8064058,2136,2295,æ
1779263874.809303,2084,2351,æ
1779263874.809448,2040,2357,æ
1779263874.8117702,2071,2247,æ
1779263874.812952,2058,2246,æ
1779263874.815316,1996,2267,æ
1779263874.8166301,2029,2245,æ
1779263874.822268,2190,2166,æ
1779263874.8227258,2168,2303,æ
1779263874.823143,2081,2398,æ
1779263874.82569,2000,1971,æ
1779263874.829831,2056,2099,æ
1779263874.8299909,2018,2162,æ
1779263874.832286,1983,2100,æ
1779263874.833599,2027,1878,æ
1779263874.834901,2104,1922,æ
1779263874.837537,2150,1970,æ
1779263874.84211,2069,2004,æ
1779263874.842946,2022,1967,æ
1779263874.843387,2051,1900,æ
1779263874.844773,2060,1997,æ
1779263874.849963,2001,2046,æ
1779263874.8501089,1980,2024,æ
1779263874.852402,2054,1911,æ
1779263874.8536289,2191,1890,æ
1779263874.854935,2158,2028,æ
1779263874.857515,2048,2127,æ
1779263874.861962,2026,2158,æ
1779263874.862412,2069,2040,æ
1779263874.864985,1994,2172,æ
1779263874.866373,1946,2267,æ
1779263874.867761,2031,2029,æ
1779263874.870538,2158,2081,æ
1779263874.870635,2148,2281,æ
1779263874.873378,2068,2294,æ
1779263874.8746922,2024,2197,æ
1779263874.87726,2034,2109,æ
1779263874.87856,2052,2206,æ
1779263874.881831,1971,2238,æ
1779263874.88472,2029,2221,æ
1779263874.884984,2141,2043,æ
1779263874.8876429,2204,1913,æ
1779263874.890454,2109,2033,æ
1779263874.892668,2022,2007,æ
1779263874.89291,2019,1874,æ
1779263874.8954759,2052,1697,æ
1779263874.8967838,1996,1769,æ
1779263874.899141,1985,1721,æ
1779263874.90237,2064,1611,æ
1779263874.904992,2169,1647,æ
1779263874.905174,2080,1858,æ
1779263874.906789,1976,1875,æ
1779263874.910444,2001,1792,æ
1779263874.9122958,2062,1731,æ
1779263874.913607,2009,1901,æ
1779263874.914918,1966,1872,æ
1779263874.9172952,2029,1888,æ
1779263874.918598,2148,1882,æ
1779263874.9227898,2141,1842,æ
1779263874.923178,2031,2054,æ
1779263874.925497,2006,1994,æ
1779263874.927329,2018,1919,æ
1779263874.9309251,2032,2055,æ
1779263874.931054,2004,2053,æ
1779263874.932755,2006,1945,æ
1779263874.9353302,2074,1871,æ
1779263874.936712,2134,1960,æ
1779263874.9392781,2059,1797,æ
1779263874.9436858,2001,1949,æ
1779263874.944169,2023,1965,æ
1779263874.946063,2068,1962,æ
1779263874.947744,1985,2063,æ
1779263874.951367,1982,1882,æ
1779263874.951688,2069,1826,æ
1779263874.953921,2183,1859,æ
1779263874.955224,2125,1958,æ
1779263874.957788,2029,1876,æ
1779263874.9590888,2010,1841,æ
1779263874.9643378,2074,1819,æ
1779263874.9647381,2001,1885,æ
1779263874.9663098,1943,1833,æ
1779263874.967736,2052,1825,æ
1779263874.969163,2154,1871,æ
1779263874.975094,2164,1910,æ
1779263874.975426,2068,1823,æ
1779263874.9756238,1957,1907,æ
1779263874.976955,1939,1955,æ
1779263874.9795341,2003,1972,æ
1779263874.9809542,1973,1796,æ
1779263874.9858701,2019,1793,æ
1779263874.98732,2168,1812,æ
1779263874.988874,2235,1949,æ
1779263874.989387,2147,1748,æ
1779263874.993067,2063,1739,æ
1779263874.993263,2135,1871,æ
1779263874.995542,2149,1821,æ
1779263874.996862,2017,1784,æ
1779263874.9994292,1980,1773,æ
1779263875.000767,2047,1814,æ
1779263875.0050611,2181,1817,æ
1779263875.0059881,2091,1831,æ
1779263875.007824,1978,1837,æ
1779263875.009242,1958,1797,æ
1779263875.013363,2049,1963,æ
1779263875.0136771,2078,1875,æ
1779263875.015981,2003,1725,æ
1779263875.017288,1981,1549,æ
1779263875.019712,2139,1741,æ
1779263875.021014,2154,1792,æ
1779263875.025218,2007,1709,æ
1779263875.025697,1972,1745,æ
1779263875.027721,2054,1783,æ
1779263875.03308,2053,1764,æ
1779263875.033211,1973,1711,æ
1779263875.033383,1936,1627,æ
1779263875.035599,2041,1894,æ
1779263875.0369768,2258,1981,æ
1779263875.039542,2097,1849,æ
1779263875.040843,1964,1869,æ
1779263875.0450408,2003,1956,æ
1779263875.045811,2113,1849,æ
1779263875.047727,2045,1910,æ
1779263875.0530019,2054,1769,æ
1779263875.053164,2051,1657,æ
1779263875.053393,2111,1787,æ
1779263875.055536,2115,1817,æ
1779263875.056928,2113,1885,æ
1779263875.059485,2080,1879,æ
1779263875.060576,2064,1756,æ
1779263875.065196,2027,1756,æ
1779263875.065932,2005,1716,æ
1779263875.067774,2113,1705,æ
1779263875.069356,2173,1722,æ
1779263875.072544,2103,1716,æ
1779263875.072719,2034,1727,æ
1779263875.075653,1985,1728,æ
1779263875.076952,1991,1667,æ
1779263875.079695,2039,1684,æ
1779263875.081084,1945,1739,æ
1779263875.08586,1959,1565,æ
1779263875.086671,2074,1679,æ
1779263875.087112,2162,1776,æ
1779263875.088591,2124,1723,æ
1779263875.0936582,2062,1652,æ
1779263875.093823,2046,1661,æ
1779263875.09601,2077,1789,æ
1779263875.097325,2033,1721,æ
1779263875.09863,1997,1713,æ
1779263875.1011908,2107,1638,æ
1779263875.106407,2207,1575,æ
1779263875.106866,2146,1692,æ
1779263875.1069922,2032,1639,æ
1779263875.108955,1999,1671,æ
1779263875.113774,2065,1552,æ
1779263875.113915,2051,1538,æ
1779263875.116087,1981,1504,æ
1779263875.1173902,2027,1491,æ
1779263875.118722,2161,1452,æ
1779263875.121164,2160,1582,æ
1779263875.126615,2067,1585,æ
1779263875.127328,2027,1519,æ
1779263875.127754,2058,1576,æ
1779263875.129258,2065,1521,æ
1779263875.131752,1962,1627,æ
1779263875.134028,2020,1498,æ
1779263875.136045,2116,1611,æ
1779263875.1373591,2143,1627,æ
1779263875.1386602,2068,1620,æ
1779263875.141215,2029,1636,æ
1779263875.1425102,2024,1592,æ
1779263875.147383,2042,1670,æ
1779263875.1477902,1967,1685,æ
1779263875.149599,1958,1665,æ
1779263875.152098,2102,1725,æ
1779263875.156493,2198,1761,æ
1779263875.156532,2116,1850,æ
1779263875.156568,2070,1840,æ
1779263875.1591198,2052,1698,æ
1779263875.160518,2080,1705,æ
1779263875.1630862,2044,1701,æ
1779263875.167595,1973,1718,æ
1779263875.168011,2031,1757,æ
1779263875.1702132,2143,1786,æ
1779263875.1727538,2178,1866,æ
1779263875.175093,2041,1728,æ
1779263875.1753988,1984,1815,æ
1779263875.1773162,2024,1843,æ
1779263875.178624,2055,1827,æ
1779263875.181185,2012,1773,æ
1779263875.183823,2019,1666,æ
1779263875.187781,2113,1648,æ
1779263875.1882088,2191,1772,æ
1779263875.1905909,2096,1845,æ
1779263875.190742,2016,1847,æ
1779263875.195415,2023,1737,æ
1779263875.195775,2059,1762,æ
1779263875.197591,1981,1848,æ
1779263875.1988952,1985,1843,æ
1779263875.2016141,2057,1808,æ
1779263875.202962,2174,1793,æ
1779263875.2055428,2122,1716,æ
1779263875.2086558,2051,1747,æ
1779263875.208777,1986,1748,æ
1779263875.211029,2059,1732,æ
1779263875.215565,2046,1856,æ
1779263875.215745,1986,1803,æ
1779263875.217383,2043,1726,æ
1779263875.21871,2136,1738,æ
1779263875.221418,2142,1723,æ
1779263875.2227159,2054,1894,æ
1779263875.2251341,2023,1864,æ
1779263875.229493,2064,1863,æ
1779263875.2301362,2053,1810,æ
1779263875.23184,1988,1820,æ
1779263875.233372,2021,1804,æ
1779263875.236773,2094,1862,æ
1779263875.236877,2189,1894,æ
1779263875.238903,2102,1855,æ
1779263875.241478,2019,1909,æ
1779263875.242778,2022,1871,æ
1779263875.2453299,2062,1847,æ
1779263875.2466261,2008,1905,æ
1779263875.250123,1990,1854,æ
1779263875.252037,2085,1814,æ
1779263875.254765,2176,1854,æ
1779263875.254953,2140,1856,æ
1779263875.25711,2034,1856,æ
1779263875.258819,2016,1814,æ
1779263875.261384,2088,1897,æ
1779263875.262696,2024,1868,æ
1779263875.2650821,1985,1824,æ
1779263875.270748,2059,1824,æ
1779263875.2711182,2125,1942,æ
1779263875.271806,2144,1979,æ
1779263875.274438,2066,1934,æ
1779263875.2746408,2012,1944,æ
1779263875.2777112,2049,1949,æ
1779263875.279747,2081,1943,æ
1779263875.281055,2007,1899,æ
1779263875.2837682,1994,1904,æ
1779263875.2851079,2105,1902,æ
1779263875.286537,2185,1981,æ
1779263875.2936032,2115,2003,æ
1779263875.29502,2023,1898,æ
1779263875.29513,2006,1876,æ
1779263875.295601,2065,1965,æ
1779263875.299126,2027,1968,æ
1779263875.299381,2000,1968,æ
1779263875.301474,2078,1901,æ
1779263875.302958,2182,1972,æ
1779263875.305561,2146,1919,æ
1779263875.306885,2060,2005,æ
1779263875.311556,2014,2004,æ
1779263875.311976,2073,1999,æ
1779263875.315381,2031,1948,æ
1779263875.316211,1957,1963,æ
1779263875.319445,2013,2014,æ
1779263875.3197272,2126,2012,æ
1779263875.321824,2161,2058,æ
1779263875.323141,2071,2058,æ
1779263875.324656,2011,1913,æ
1779263875.327223,2060,2000,æ
1779263875.3285189,2065,2062,æ
1779263875.33175,1981,2018,æ
1779263875.3341901,1994,1998,æ
1779263875.336004,2104,1994,æ
1779263875.339155,2173,2036,æ
1779263875.339263,2104,2019,æ
1779263875.3412359,1991,2040,æ
1779263875.3425431,1988,2017,æ
1779263875.345099,2086,2046,æ
1779263875.347669,1997,2079,æ
1779263875.348966,1979,2037,æ
1779263875.35296,2058,1978,æ
1779263875.35341,2179,1980,æ
1779263875.355225,2126,2004,æ
1779263875.356802,2034,2053,æ
1779263875.3599622,2006,1984,æ
1779263875.361583,2059,1914,æ
1779263875.362905,2058,1951,æ
1779263875.365463,2007,1934,æ
1779263875.3667572,2050,1963,æ
1779263875.369314,2138,2003,æ
1779263875.3731751,2165,2003,æ
1779263875.3739572,2080,2124,æ
1779263875.375463,2041,2037,æ
1779263875.3779142,2048,2010,æ
1779263875.38026,2066,1939,æ
1779263875.3823712,1994,2018,æ
1779263875.382526,2007,2062,æ
1779263875.3851368,2126,1997,æ
1779263875.386511,2194,1980,æ
1779263875.389138,2119,1971,æ
1779263875.394005,2047,2017,æ
1779263875.394806,2034,2078,æ
1779263875.395272,2066,2018,æ
1779263875.3978848,2021,2075,æ
1779263875.399575,1979,1961,æ
1779263875.401702,2074,1933,æ
1779263875.403863,2201,2082,æ
1779263875.405165,2155,2105,æ
1779263875.406686,2051,2087,æ
1779263875.409255,2015,2013,æ
1779263875.410551,2059,1883,æ
1779263875.4146292,2051,1933,æ
1779263875.4154398,2016,1983,æ
1779263875.4170141,2047,1951,æ
1779263875.419617,2147,1940,æ
1779263875.4217432,2172,2008,æ
1779263875.4239209,2073,1978,æ
1779263875.425236,2034,1948,æ
1779263875.426535,2054,1923,æ
1779263875.4291148,2073,1958,æ
1779263875.431844,2041,1961,æ
1779263875.437165,2005,1955,æ
1779263875.4374049,2089,2008,æ
1779263875.437514,2180,2070,æ
1779263875.440045,2118,2041,æ
1779263875.442112,2051,1943,æ
1779263875.444136,2023,1928,æ
1779263875.445437,2072,1964,æ
1779263875.446732,2015,1977,æ
1779263875.4493618,1992,1935,æ
1779263875.4506629,2072,1922,æ
1779263875.456007,2169,1964,æ
1779263875.456813,2155,2013,æ
1779263875.4583318,2057,1966,æ
1779263875.459969,2020,1990,æ
1779263875.4631748,2076,1968,æ
1779263875.4634292,2056,1976,æ
1779263875.465066,2004,1970,æ
1779263875.467632,2052,1911,æ
1779263875.469069,2150,1972,æ
1779263875.47164,2170,2030,æ
1779263875.475977,2064,1947,æ
1779263875.478854,2012,1978,æ
1779263875.479872,2053,1960,æ
1779263875.483797,2059,2001,æ
1779263875.484094,1980,1988,æ
1779263875.484187,2031,1987,æ
1779263875.486173,2122,1996,æ
1779263875.487478,2199,2109,æ
1779263875.4887779,2123,2077,æ
1779263875.491334,2053,2005,æ
1779263875.49256,2062,2053,æ
1779263875.496525,2096,2108,æ
1779263875.497308,2033,2061,æ
1779263875.499282,1997,2035,æ
1779263875.5018308,2063,1937,æ
1779263875.503894,2172,1953,æ
1779263875.5059478,2147,2023,æ
1779263875.5073469,2044,2012,æ
1779263875.508652,2009,2006,æ
1779263875.511012,2053,1997,æ
1779263875.5136,2049,2028,æ
1779263875.5169559,1989,1973,æ
1779263875.5182452,2027,2004,æ
1779263875.520753,2136,2025,æ
1779263875.520849,2157,2097,æ
1779263875.524192,2068,2088,æ
1779263875.526473,2016,2072,æ
1779263875.527696,2034,2036,æ
1779263875.528874,2071,2037,æ
1779263875.5314581,1980,2044,æ
1779263875.532773,1986,2061,æ
1779263875.538239,2103,2109,æ
1779263875.539099,2191,2111,æ
1779263875.540721,2110,2173,æ
1779263875.540952,2029,2057,æ
1779263875.545629,2043,2031,æ
1779263875.54579,2064,2115,æ
1779263875.5481331,2023,2123,æ
1779263875.5494459,1992,2149,æ
1779263875.550852,2081,2175,æ
1779263875.553478,2193,2065,æ
1779263875.55812,2144,2092,æ
1779263875.558912,2059,2127,æ
1779263875.56098,2030,2143,æ
1779263875.5612931,2076,2043,æ
1779263875.5638888,2052,2143,æ
1779263875.5663009,1984,2165,æ
1779263875.568362,1995,2133,æ
1779263875.569676,2138,2149,æ
1779263875.57098,2199,2191,æ
1779263875.573482,2071,2217,æ
1779263875.574785,2010,2118,æ
1779263875.579572,2044,2141,æ
1779263875.579662,2072,2194,æ
1779263875.581293,1994,2184,æ
1779263875.583915,2035,2049,æ
1779263875.586028,2114,2109,æ
1779263875.588146,2193,2170,æ
1779263875.58946,2102,2132,æ
1779263875.590763,2021,2136,æ
1779263875.5933208,2000,2095,æ
1779263875.5946162,2069,2112,æ
1779263875.599212,2028,2127,æ
1779263875.6000361,1970,2105,æ
1779263875.601589,2047,2110,æ
1779263875.604173,2152,2182,æ
1779263875.606109,2129,2163,æ
1779263875.608156,2065,2121,æ
1779263875.609483,2039,2164,æ
1779263875.6108491,2076,2087,æ
1779263875.613226,2054,2127,æ
1779263875.615809,1990,2033,æ
1779263875.619662,2038,2019,æ
1779263875.619782,2147,2016,æ
1779263875.621849,2169,2085,æ
1779263875.624458,2069,2065,æ
1779263875.626441,2015,2021,æ
1779263875.628607,2024,2092,æ
1779263875.628652,2067,2058,æ
1779263875.631219,1995,2032,æ
1779263875.633777,1995,2059,æ
1779263875.635086,2095,2004,æ
1779263875.6398878,2198,2055,æ
1779263875.640589,2105,2063,æ
1779263875.6422,2026,2045,æ
1779263875.6446888,2005,2020,æ
1779263875.644908,2049,2043,æ
1779263875.646861,2026,2095,æ
1779263875.649794,1975,2087,æ
1779263875.6510952,2066,2108,æ
1779263875.6536682,2178,2101,æ
1779263875.654994,2176,2120,æ
1779263875.660568,2059,1989,æ
1779263875.6613069,2013,2032,æ
1779263875.661689,2072,2106,æ
1779263875.665333,2058,2063,æ
1779263875.667291,1978,2008,æ
1779263875.667486,1985,1968,æ
1779263875.669173,2089,2019,æ
1779263875.671745,2149,2066,æ
1779263875.673049,2094,2081,æ
1779263875.675633,2043,2089,æ
1779263875.676933,2065,1967,æ
1779263875.6811142,2070,1990,æ
1779263875.6814752,1996,2083,æ
1779263875.683288,2013,2012,æ
1779263875.685778,2124,2003,æ
1779263875.68768,2215,2077,æ
1779263875.6897311,2124,2081,æ
1779263875.69104,2023,2078,æ
1779263875.693603,2038,2048,æ
1779263875.694904,2058,1999,æ
1779263875.6974568,2041,2019,æ
1779263875.7014248,1985,1962,æ
1779263875.7021718,2071,1970,æ
1779263875.704007,2190,2034,æ
1779263875.70646,2148,2029,æ
1779263875.7085261,2041,1967,æ
1779263875.7086232,1988,2047,æ
1779263875.711518,2030,2025,æ
1779263875.712815,2047,1935,æ
1779263875.715384,2002,1993,æ
1779263875.716692,2044,1927,æ
1779263875.723211,2153,2025,æ
1779263875.724431,2177,2096,æ
1779263875.7245991,2086,2026,æ
1779263875.725827,2010,1952,æ
1779263875.728797,2031,2014,æ
1779263875.729106,2047,1918,æ
1779263875.731769,1943,1906,æ
1779263875.733074,1938,1941,æ
1779263875.735643,2097,2039,æ
1779263875.736941,2195,1963,æ
1779263875.7394922,2106,1876,æ
1779263875.743467,2039,1868,æ
1779263875.744193,2012,1939,æ
1779263875.746728,2042,2106,æ
1779263875.7477388,2009,2054,æ
1779263875.7495959,2001,1835,æ
1779263875.751651,2016,1936,æ
1779263875.752967,2099,2029,æ
1779263875.755518,1993,1981,æ
1779263875.7568169,1969,1943,æ
1779263875.759378,1970,2059,æ
1779263875.763188,2082,1976,æ
1779263875.763811,2127,2047,æ
1779263875.765586,2113,1943,æ
1779263875.7671611,2131,1970,æ
1779263875.7698932,2261,2039,æ
1779263875.771847,2260,1969,æ
1779263875.773144,2125,2083,æ
1779263875.775712,2068,2176,æ
1779263875.77701,1995,2091,æ
1779263875.779566,1954,1989,æ
1779263875.783852,1886,1926,æ
1779263875.7843041,1918,1983,æ
1779263875.786166,2064,2055,æ
1779263875.7885592,2120,2176,æ
1779263875.79043,2116,2069,æ
1779263875.7925289,2049,1973,æ
1779263875.792644,2045,2088,æ
1779263875.795669,2115,1967,æ
1779263875.7980318,1958,2078,æ
1779263875.799221,1941,1977,æ
1779263875.805521,1969,1894,æ
1779263875.805949,2084,2002,æ
1779263875.80641,2095,2270,æ
1779263875.807771,1980,2140,æ
1779263875.81038,2019,1945,æ
1779263875.812421,2154,1943,æ
1779263875.8148448,2117,2019,æ
1779263875.814956,1993,2050,æ
1779263875.817538,2065,1995,æ
1779263875.818861,2245,2120,æ
1779263875.8214269,2195,2121,æ
1779263875.8256588,2046,2075,æ
1779263875.8268611,2120,1900,æ
1779263875.8284101,2124,1686,æ
1779263875.833565,1975,2281,æ
1779263875.833762,1850,2168,æ
1779263875.833958,1929,2036,æ
1779263875.8361988,2138,1993,æ
1779263875.837517,2228,2060,æ
1779263875.8388329,2051,2222,æ
1779263875.841411,1977,2082,æ
1779263875.849278,1915,2137,æ
1779263875.849695,1870,2110,æ
1779263875.8534122,2043,2145,æ
1779263875.853655,2130,2087,æ
1779263875.855894,2064,2016,æ
1779263875.855964,2068,2064,æ
1779263875.8560011,2229,2125,æ
1779263875.8573172,2010,2016,æ
1779263875.85869,1945,2014,æ
1779263875.8613172,2083,2097,æ
1779263875.862975,2120,2234,æ
1779263875.8698869,2192,2238,æ
1779263875.8726559,2143,1942,æ
1779263875.8751628,2105,2293,æ
1779263875.875453,2126,2087,æ
1779263875.875818,1937,2173,æ
1779263875.876234,1767,2153,æ
1779263875.877975,1948,2065,æ
1779263875.879783,2251,2087,æ
1779263875.8811781,1924,1961,æ
1779263875.8878589,1738,2303,æ
1779263875.8947048,2169,2177,æ
1779263875.895123,2453,2217,æ
1779263875.895794,2356,2278,æ
1779263875.898062,2189,2238,æ
1779263875.898168,2034,2260,æ
1779263875.898271,1608,2264,æ
1779263875.898387,1573,2337,æ
1779263875.899744,1855,2367,æ
1779263875.901095,2203,2282,æ
1779263875.903775,2274,2235,æ
1779263875.910091,1687,2358,æ
1779263875.912202,1940,2264,æ
1779263875.913533,2258,2273,æ
1779263875.913737,2628,2367,æ
1779263875.9161081,2574,2720,æ
1779263875.916599,2353,2534,æ
1779263875.9171772,2081,2427,æ
1779263875.919262,1890,2643,æ
1779263875.920674,2132,2777,æ
1779263875.92337,2210,2833,æ
1779263875.9286962,1837,2774,æ
1779263875.9292521,1596,2575,æ
1779263875.9310908,1775,2880,æ
1779263875.931468,1757,2981,æ
1779263875.9332108,1754,3071,æ
1779263875.93661,2089,3041,æ
1779263875.936836,2675,3388,æ
1779263875.9391701,2348,3373,æ
1779263875.9407392,2058,3392,æ
1779263875.943406,2036,3497,æ
1779263875.948888,1834,3909,æ
1779263875.951259,1814,3851,æ
1779263875.9515572,2279,3698,æ
1779263875.953276,2478,4006,æ
1779263875.955146,1942,4095,æ
1779263875.955313,1841,4093,æ
1779263875.957589,2195,4076,æ
1779263875.960011,2352,4050,æ
1779263875.961427,2401,4040,æ
1779263875.963524,2082,4050,æ
1779263875.9650822,1878,4069,æ
1779263875.96992,1625,4087,æ
1779263875.973245,1674,4095,æ
1779263875.976722,1858,4095,æ
1779263875.9770381,1916,4089,æ
1779263875.97751,1923,4076,æ
1779263875.977731,2099,4064,æ
1779263875.981499,1826,4058,æ
1779263875.981726,1989,4070,æ
1779263875.983863,2395,4079,æ
1779263875.9851809,2471,4086,æ
1779263875.991672,2217,4091,æ
1779263875.9931798,1669,4083,æ
1779263875.9949021,1845,4077,æ
1779263875.9973161,2513,4069,æ
1779263875.9977338,2317,4067,æ
1779263876.000222,1694,4071,æ
1779263876.0003788,1852,4077,æ
1779263876.001754,2126,4080,æ
1779263876.0031848,2549,4078,æ
1779263876.004631,2218,4083,æ
1779263876.013976,1587,4079,æ
1779263876.0156329,1794,4075,æ
1779263876.0184588,2319,4069,æ
1779263876.018796,2159,4074,æ
1779263876.019186,1315,4076,æ
1779263876.01949,1920,4076,æ
1779263876.0218601,2731,4079,æ
1779263876.022167,2456,4078,æ
1779263876.0236192,1542,3913,æ
1779263876.0251641,1840,3530,æ
1779263876.032659,2266,3771,æ
1779263876.0348501,2684,4025,æ
1779263876.038361,2348,4007,æ
1779263876.038662,2023,3952,æ
1779263876.041564,1924,3815,æ
1779263876.041888,2189,2205,æ
1779263876.0443609,2405,2912,æ
1779263876.04453,1929,2719,æ
1779263876.044632,1775,2485,æ
1779263876.044699,1933,2872,æ
1779263876.0473878,1556,3191,æ
1779263876.048795,1617,3190,æ
1779263876.055288,1440,3164,æ
1779263876.057641,1717,2511,æ
1779263876.059891,2749,2439,æ
1779263876.0641751,2848,2374,æ
1779263876.0646698,2468,2069,æ
1779263876.0652318,2323,2205,æ
1779263876.065474,2359,2064,æ
1779263876.068036,1794,1891,æ
1779263876.0682151,1793,2190,æ
1779263876.069591,2119,1834,æ
1779263876.0753841,1839,1305,æ
1779263876.076446,1237,1797,æ
1779263876.07837,1717,1054,æ
1779263876.0841432,2417,1261,æ
1779263876.084766,2408,1084,æ
1779263876.084984,2282,1349,æ
1779263876.0856209,2610,1090,æ
1779263876.085948,2616,740,æ
1779263876.088428,2167,368,æ
1779263876.089837,1938,583,æ
1779263876.09118,1894,771,æ
1779263876.092629,1465,558,æ
1779263876.0977511,1655,102,æ
1779263876.098337,1909,0,æ
1779263876.1008441,1836,198,æ
1779263876.104309,1839,0,æ
1779263876.1073742,1892,0,æ
1779263876.107608,2537,267,æ
1779263876.110498,2146,505,æ
1779263876.110605,2190,462,æ
1779263876.1106691,2327,200,æ
1779263876.113373,2120,0,æ
1779263876.114829,1665,0,æ
1779263876.120655,1326,0,æ
1779263876.123442,2047,0,æ
1779263876.12938,2317,29,æ
1779263876.129838,2623,210,æ
1779263876.132611,2266,261,æ
1779263876.1326962,1330,178,æ
1779263876.1327648,2040,20,æ
1779263876.132853,2765,0,æ
1779263876.1329339,2737,0,æ
1779263876.135764,2166,0,æ
1779263876.13713,2108,0,æ
1779263876.1427488,2193,65,æ
1779263876.1437922,1571,128,æ
1779263876.149705,1724,118,æ
1779263876.1531148,2036,53,æ
1779263876.153595,2255,0,æ
1779263876.1542451,1943,0,æ
1779263876.1570492,1860,0,æ
1779263876.1571572,1626,0,æ
1779263876.157248,1948,6,æ
1779263876.157321,2399,52,æ
1779263876.158747,2222,66,æ
1779263876.167861,1956,46,æ
1779263876.168214,1977,6,æ
1779263876.1718552,1590,0,æ
1779263876.1752262,1556,0,æ
1779263876.175791,2181,0,æ
1779263876.176176,2811,0,æ
1779263876.176636,2615,18,æ
1779263876.179327,2268,35,æ
1779263876.179405,1954,33,æ
1779263876.179565,1669,14,æ
1779263876.181226,1804,376,æ
1779263876.182698,1624,44,æ
1779263876.185809,2102,24,æ
1779263876.1921961,2291,14,æ
1779263876.1942499,1672,60,æ
1779263876.194668,1300,70,æ
1779263876.194995,2445,169,æ
1779263876.197022,2817,251,æ
1779263876.199373,2010,329,æ
1779263876.199617,2331,390,æ
1779263876.2028139,2564,490,æ
1779263876.2033112,2290,681,æ
1779263876.206252,2023,485,æ
1779263876.2076318,1302,587,æ
1779263876.209069,1440,1027,æ
1779263876.215921,2308,878,æ
1779263876.217643,2451,913,æ
1779263876.21805,1928,982,æ
1779263876.219755,2000,1194,æ
1779263876.220408,2524,1125,æ
1779263876.224702,2491,984,æ
1779263876.2249348,2198,914,æ
1779263876.225151,1625,972,æ
1779263876.2279959,1996,1300,æ
1779263876.22944,2158,1107,æ
1779263876.2308428,2017,1274,æ
1779263876.2334442,1793,993,æ
1779263876.238391,1999,1108,æ
1779263876.239598,2627,1182,æ
1779263876.241709,2353,1140,æ
1779263876.2418811,2272,1196,æ
1779263876.243815,2061,1288,æ
1779263876.248872,1861,1130,æ
1779263876.2493079,1568,1176,æ
1779263876.2496362,1566,1521,æ
1779263876.2523332,2176,928,æ
1779263876.2535071,2326,1013,æ
1779263876.254865,2176,1303,æ
1779263876.259142,2031,1306,æ
1779263876.2597718,2251,1367,æ
1779263876.262162,2166,1217,æ
1779263876.264151,2066,1311,æ
1779263876.266219,2111,1190,æ
1779263876.269742,2179,1250,æ
1779263876.270106,1992,1064,æ
1779263876.272751,2019,1369,æ
1779263876.27299,1986,1340,æ
1779263876.275587,2001,1437,æ
1779263876.276924,1956,1406,æ
1779263876.286185,1771,1365,æ
1779263876.2864928,2101,1415,æ
1779263876.2882,2332,1425,æ
1779263876.288357,2131,1533,æ
1779263876.290352,1936,1482,æ
1779263876.293429,1789,1626,æ
1779263876.2937331,2232,1642,æ
1779263876.2940428,2290,1634,æ
1779263876.297177,2168,1541,æ
1779263876.297288,1840,1725,æ
1779263876.298675,1827,1776,æ
1779263876.3053162,1883,1638,æ
1779263876.307401,2100,1581,æ
1779263876.3075788,2322,1742,æ
1779263876.3116338,2229,1828,æ
1779263876.311842,1657,1984,æ
1779263876.315051,1586,1721,æ
1779263876.315399,2401,1761,æ
1779263876.315657,2391,1931,æ
1779263876.3183758,2264,1773,æ
1779263876.3197062,2170,1977,æ
1779263876.321085,2207,1854,æ
1779263876.323746,2112,1942,æ
1779263876.329751,1596,1787,æ
1779263876.3317492,1895,1910,æ
1779263876.332076,2195,1817,æ
1779263876.333498,1990,1978,æ
1779263876.3346481,1737,1868,æ
1779263876.3390222,2145,1932,æ
1779263876.339713,2390,2001,æ
1779263876.3398972,2014,2004,æ
1779263876.342506,2493,2028,æ
1779263876.3438349,2506,1811,æ
1779263876.350692,2498,1953,æ
1779263876.352939,2214,2101,æ
1779263876.353281,1934,2022,æ
1779263876.355536,1869,1850,æ
1779263876.3570938,1930,1839,æ
1779263876.360348,1991,1934,æ
1779263876.360987,1892,1975,æ
1779263876.361195,1904,2101,æ
1779263876.361561,2117,1723,æ
1779263876.364138,2131,2030,æ
1779263876.3654552,1980,1979,æ
1779263876.366773,1911,2019,æ
1779263876.3693461,2070,2049,æ
1779263876.374538,2315,1972,æ
1779263876.3750222,1938,1904,æ
1779263876.3755572,1914,2068,æ
1779263876.377571,2170,1988,æ
1779263876.381857,2023,1891,æ
1779263876.385173,1862,1811,æ
1779263876.3855731,1768,2020,æ
1779263876.386024,1880,2103,æ
1779263876.390035,2316,2020,æ
1779263876.3901849,2235,2203,æ
1779263876.391816,1921,2150,æ
1779263876.41586,2149,2095,æ
1779263876.41593,2338,2148,æ
1779263876.417092,2096,1986,æ
1779263876.420844,1407,1798,æ
1779263876.4210129,1449,1970,æ
1779263876.421227,1967,1820,æ
1779263876.421302,2507,2243,æ
1779263876.421464,2436,2143,æ
1779263876.421571,2471,2081,æ
1779263876.421696,2300,2137,æ
1779263876.421748,2267,2210,æ
1779263876.421803,2314,2215,æ
1779263876.421847,2313,2002,æ
1779263876.4218922,2259,2017,æ
1779263876.421967,1929,1958,æ
1779263876.42339,1571,1999,æ
1779263876.424829,1766,2071,æ
1779263876.4276218,1535,1961,æ
1779263876.4290712,1996,2229,æ
1779263876.431753,2276,2234,æ
1779263876.433103,1988,2157,æ
1779263876.434647,2290,2217,æ
1779263876.441053,2787,2100,æ
1779263876.447851,2592,2281,æ
1779263876.451434,2178,2288,æ
1779263876.451688,1957,2104,æ
1779263876.451919,1971,2095,æ
1779263876.452227,1997,2403,æ
1779263876.454842,2013,2014,æ
1779263876.455799,2008,2118,æ
1779263876.455883,1961,2036,æ
1779263876.455987,1932,2119,æ
1779263876.457386,1926,2092,æ
1779263876.464156,1795,2056,æ
1779263876.468611,1818,2147,æ
1779263876.474147,1854,2129,æ
1779263876.474568,2085,1964,æ
1779263876.475254,2260,2163,æ
1779263876.477598,2357,2245,æ
1779263876.4785762,2374,2086,æ
1779263876.478766,2199,2014,æ
1779263876.478889,1952,2212,æ
1779263876.478976,1824,2047,æ
1779263876.4790988,1924,2048,æ
1779263876.4817579,2178,1829,æ
1779263876.483124,1777,2141,æ
1779263876.490674,1744,1994,æ
1779263876.492585,2324,2071,æ
1779263876.493024,2447,2200,æ
1779263876.493275,2267,2025,æ
1779263876.4956942,2211,2001,æ
1779263876.500458,2168,1971,æ
1779263876.500963,2010,2031,æ
1779263876.501359,1949,1976,æ
1779263876.501892,1898,1914,æ
1779263876.505402,1926,2151,æ
1779263876.5054872,2231,2059,æ
1779263876.5069911,2159,1973,æ
1779263876.511044,1717,2103,æ
1779263876.512595,1783,2130,æ
1779263876.515052,2239,2176,æ
1779263876.515108,2305,2223,æ
1779263876.519069,1817,1997,æ
1779263876.5228019,1616,1981,æ
1779263876.52338,1595,2189,æ
1779263876.525805,2073,2068,æ
1779263876.526725,2623,2283,æ
1779263876.526861,2498,2083,æ
1779263876.529623,2455,2170,æ
1779263876.5310662,2210,2579,æ
1779263876.5372212,2251,2224,æ
1779263876.540863,2366,2191,æ
1779263876.543658,2237,2252,æ
1779263876.545335,2041,2316,æ
1779263876.5490282,1909,2153,æ
1779263876.5492768,2002,2110,æ
1779263876.5522282,2034,2432,æ
1779263876.55315,2012,2345,æ
1779263876.553301,1966,2140,æ
1779263876.553431,1979,2099,æ
1779263876.553558,1967,2218,æ
1779263876.554993,2086,2376,æ
1779263876.5632808,2120,2360,æ
1779263876.563925,1954,2209,æ
1779263876.5662458,1909,2177,æ
1779263876.567931,1885,2271,æ
1779263876.5719192,1940,2324,æ
1779263876.572171,2101,2378,æ
1779263876.574871,2320,2455,æ
1779263876.575252,2330,2351,æ
1779263876.575347,2184,2270,æ
1779263876.575397,2034,2345,æ
1779263876.577327,1917,2468,æ
1779263876.578779,1958,2228,æ
1779263876.587276,1870,2329,æ
1779263876.58915,2050,2404,æ
1779263876.593104,2096,2353,æ
1779263876.593409,2121,2296,æ
1779263876.596873,2130,2319,æ
1779263876.597158,2035,2516,æ
1779263876.597677,1960,2509,æ
1779263876.5979662,1978,2608,æ
1779263876.598618,2031,2554,æ
1779263876.60072,2014,2622,æ
1779263876.601483,2113,2772,æ
1779263876.602947,2293,2781,æ
1779263876.609886,2262,2982,æ
1779263876.6118422,2079,2742,æ
1779263876.6136231,1986,2928,æ
1779263876.620565,1937,3042,æ
1779263876.621353,1994,2966,æ
1779263876.624179,1965,3130,æ
1779263876.624747,1914,3087,æ
1779263876.6248949,2036,3330,æ
1779263876.625016,1868,3342,æ
1779263876.625115,1853,3136,æ
1779263876.625181,2174,3327,æ
1779263876.6279309,2383,3380,æ
1779263876.629313,2200,3479,æ
1779263876.631233,2046,3463,æ
1779263876.6384242,2105,3419,æ
1779263876.6405902,2204,3429,æ
1779263876.641106,2434,3358,æ
1779263876.643258,2350,3416,æ
1779263876.6455522,2103,3368,æ
1779263876.649594,2027,3251,æ
1779263876.650093,2041,3171,æ
1779263876.650334,1950,3175,æ
1779263876.652512,1936,3204,æ
1779263876.6534579,1946,3072,æ
1779263876.653549,2060,2914,æ
1779263876.654957,2046,2987,æ
1779263876.6609259,1807,2519,æ
1779263876.663674,1809,2820,æ
1779263876.663996,1971,2875,æ
1779263876.664238,2119,2965,æ
1779263876.66799,1952,3084,æ
1779263876.671425,1977,2968,æ
1779263876.671833,2135,2857,æ
1779263876.672137,2263,2908,æ
1779263876.675107,2232,3037,æ
1779263876.675206,2234,2942,æ
1779263876.67664,2154,2955,æ
1779263876.679316,2138,2790,æ
1779263876.68074,2005,2822,æ
1779263876.687419,1874,2898,æ
1779263876.689437,2005,2872,æ
1779263876.691467,2179,2806,æ
1779263876.69218,2237,2698,æ
1779263876.693779,2085,2911,æ
1779263876.6941,1941,3157,æ
1779263876.697641,1995,3085,æ
1779263876.698068,2080,2955,æ
1779263876.700937,1984,3010,æ
1779263876.7010171,1995,2934,æ
1779263876.7038348,2112,2903,æ
1779263876.7078788,2168,2948,æ
1779263876.708971,2132,2947,æ
1779263876.7095401,2038,2853,æ
1779263876.711723,2008,2740,æ
1779263876.715324,2045,2709,æ
1779263876.715463,1981,2932,æ
1779263876.718716,1980,3012,æ
1779263876.719064,2096,2840,æ
1779263876.7219148,2175,2795,æ
1779263876.723721,2062,2824,æ
1779263876.725166,1945,2953,æ
1779263876.731742,2011,2683,æ
1779263876.732362,2067,3057,æ
1779263876.732908,1986,2957,æ
1779263876.735358,1946,2900,æ
1779263876.735716,2006,2771,æ
1779263876.7380438,2092,2850,æ
1779263876.739533,2114,2986,æ
1779263876.743253,2093,2960,æ
1779263876.743639,2097,2958,æ
1779263876.746131,2128,2835,æ
1779263876.747515,2097,2769,æ
1779263876.748852,2037,2750,æ
1779263876.752707,2080,2697,æ
1779263876.7536871,2219,2596,æ
1779263876.756068,2203,2669,æ
1779263876.7591748,2105,2706,æ
1779263876.759351,2000,2739,æ
1779263876.762341,2015,2587,æ
1779263876.764899,2052,2607,æ
1779263876.764989,1971,2766,æ
1779263876.767565,1987,2740,æ
1779263876.768874,2087,2584,æ
1779263876.774303,2182,2488,æ
1779263876.7748291,2090,2485,æ
1779263876.775289,1987,2503,æ
1779263876.7775621,2032,2587,æ
1779263876.783903,2014,2544,æ
1779263876.7841349,1995,2590,æ
1779263876.784511,1956,2489,æ
1779263876.784853,2011,2480,æ
1779263876.787835,2162,2599,æ
1779263876.78915,2164,2507,æ
1779263876.7917252,2120,2402,æ
1779263876.793076,2036,2319,æ
1779263876.797089,2047,2336,æ
1779263876.80009,2057,2319,æ
1779263876.8016782,2021,2316,æ
1779263876.802549,2064,2150,æ
1779263876.803894,2156,2115,æ
1779263876.809394,2140,2166,æ
1779263876.80959,2080,2207,æ
1779263876.80969,1981,2273,æ
1779263876.811014,2113,2197,æ
1779263876.8136802,2092,2227,æ
1779263876.8232691,1991,2318,æ
1779263876.823828,2023,2317,æ
1779263876.8282082,2080,2051,æ
1779263876.828654,2227,2073,æ
1779263876.829118,2104,2107,æ
1779263876.829469,2010,2055,æ
1779263876.831761,2000,2267,æ
1779263876.8320289,2033,2244,æ
1779263876.832098,2026,2234,æ
1779263876.833408,2020,2013,æ
1779263876.834808,2042,2173,æ
1779263876.840684,2114,2333,æ
1779263876.84129,2151,2234,æ
1779263876.8419251,2098,2242,æ
1779263876.843966,2060,2177,æ
1779263876.847235,2039,2143,æ
1779263876.847444,2020,2248,æ
1779263876.850375,2014,2218,æ
1779263876.852855,2108,2089,æ
1779263876.853229,2236,1982,æ
1779263876.854647,2136,1984,æ
1779263876.857121,1994,1985,æ
1779263876.862445,2006,2033,æ
1779263876.865261,2048,2006,æ
1779263876.8654778,2069,2052,æ
1779263876.86569,1976,2097,æ
1779263876.867533,1984,1976,æ
1779263876.871586,2087,1902,æ
1779263876.871692,2170,1891,æ
1779263876.874103,2103,1916,æ
1779263876.875425,2013,2032,æ
1779263876.876739,1993,1951,æ
1779263876.8823931,2083,1923,æ
1779263876.883379,1986,2005,æ
1779263876.8838432,1964,1997,æ
1779263876.886139,2034,1975,æ
1779263876.889148,2168,1798,æ
1779263876.889355,2149,1966,æ
1779263876.892308,2041,1962,æ
1779263876.89484,2010,1997,æ
1779263876.894975,2026,1976,æ
1779263876.897567,2020,2028,æ
1779263876.898886,1979,2035,æ
1779263876.903866,1991,1998,æ
1779263876.904025,2109,1910,æ
1779263876.906581,2153,1852,æ
1779263876.9067478,2049,1920,æ
1779263876.909705,1973,2060,æ
1779263876.912468,2017,1969,æ
1779263876.9145489,2020,1935,æ
1779263876.9150841,1977,2033,æ
1779263876.91766,1978,1991,æ
1779263876.918966,2071,1847,æ
1779263876.924407,2157,1910,æ
1779263876.924979,2114,1954,æ
1779263876.925823,2026,2063,æ
1779263876.927624,2007,2006,æ
1779263876.929504,2065,1859,æ
1779263876.9334831,2003,1967,æ
1779263876.9336572,1980,1936,æ
1779263876.9361541,2086,1849,æ
1779263876.9374652,2152,1794,æ
1779263876.938781,2130,1885,æ
1779263876.949269,2041,1905,æ
1779263876.9569228,2005,1948,æ
1779263876.9571068,2048,1882,æ
1779263876.9572139,2071,1827,æ
1779263876.9572978,2041,1969,æ
1779263876.9574242,2041,1942,æ
1779263876.957463,2105,1735,æ
1779263876.957501,2152,1933,æ
1779263876.9575381,2090,2076,æ
1779263876.958851,2082,2058,æ
1779263876.961715,2076,1935,æ
1779263876.968449,2077,1873,æ
1779263876.9705422,2013,1965,æ
1779263876.972338,1976,2052,æ
1779263876.974056,2090,1933,æ
1779263876.97726,2172,1860,æ
1779263876.977847,2091,1781,æ
1779263876.98036,1973,1953,æ
1779263876.980593,1984,2232,æ
1779263876.98072,2079,1945,æ
1779263876.9808,2035,2084,æ
1779263876.98344,1973,2010,æ
1779263876.98478,2076,1939,æ
1779263876.990412,2210,2107,æ
1779263876.990926,2200,2120,æ
1779263876.9933598,2122,2043,æ
1779263876.993546,2053,1949,æ
1779263876.9968798,2019,1945,æ
1779263876.997045,2021,2046,æ
1779263876.9997702,1975,2002,æ
1779263877.002188,2034,1880,æ
1779263877.0035121,2115,1734,æ
1779263877.004825,2143,1812,æ
1779263877.007522,2086,1867,æ
1779263877.0111969,2059,1935,æ
1779263877.012117,2069,1855,æ
1779263877.015143,2048,1717,æ
1779263877.0156102,1986,1858,æ
1779263877.019975,1966,1934,æ
1779263877.0200891,2085,1732,æ
1779263877.022293,2225,1630,æ
1779263877.023617,2101,1781,æ
1779263877.024807,2018,1879,æ
1779263877.027423,1958,1813,æ
1779263877.0309892,2080,1835,æ
1779263877.03251,2021,1900,æ
1779263877.0337942,2004,1862,æ
1779263877.0367439,2001,1672,æ
1779263877.0369222,2113,1579,æ
1779263877.039686,2092,1811,æ
1779263877.041467,1999,1944,æ
1779263877.042787,2010,2015,æ
1779263877.0453482,2039,1815,æ
1779263877.046716,2049,1794,æ
1779263877.0524642,2035,1879,æ
1779263877.053347,2055,1763,æ
1779263877.0547478,2190,1776,æ
1779263877.054961,2211,1752,æ
1779263877.0578508,2120,1822,æ
1779263877.0603058,2025,1874,æ
1779263877.062666,2051,1800,æ
1779263877.063086,2050,1741,æ
1779263877.065734,1989,1796,æ
1779263877.067044,1968,1813,æ
1779263877.072012,2082,1792,æ
1779263877.072482,2197,1719,æ
1779263877.07327,2067,1848,æ
1779263877.075795,1969,1889,æ
1779263877.0800462,1953,1882,æ
1779263877.08038,2056,1690,æ
1779263877.0824661,2036,1752,æ
1779263877.083787,1939,1762,æ
1779263877.085102,2023,1672,æ
1779263877.087667,2125,1676,æ
1779263877.092392,2095,1885,æ
1779263877.092986,2069,1801,æ
1779263877.0949419,2050,1812,æ
1779263877.095113,2080,1781,æ
1779263877.096828,2036,1803,æ
1779263877.1002162,1972,1806,æ
1779263877.1021729,2021,1742,æ
1779263877.103992,2120,1679,æ
1779263877.1052969,2143,1807,æ
1779263877.106666,2083,1891,æ
1779263877.1133409,2047,1751,æ
1779263877.1151948,2020,1640,æ
1779263877.117064,2053,1784,æ
1779263877.120575,2018,1735,æ
1779263877.12083,1998,1593,æ
1779263877.120984,2145,1540,æ
1779263877.121162,2241,1507,æ
1779263877.1228428,2081,1569,æ
1779263877.1252139,1942,1810,æ
1779263877.1277828,1964,1732,æ
1779263877.1290822,2088,1581,æ
1779263877.133304,2024,1421,æ
1779263877.133427,2003,1430,æ
1779263877.135332,2039,1522,æ
1779263877.1378582,2166,1510,æ
1779263877.140254,2144,1611,æ
1779263877.142452,2085,1613,æ
1779263877.143574,2036,1489,æ
1779263877.144883,2131,1538,æ
1779263877.147403,2056,1597,æ
1779263877.148705,1915,1594,æ
1779263877.1542232,1950,1545,æ
1779263877.155883,2071,1544,æ
1779263877.156181,2112,1456,æ
1779263877.1578739,2089,1668,æ
1779263877.1614552,2014,1656,æ
1779263877.1616309,2000,1569,æ
1779263877.163724,2054,1554,æ
1779263877.165029,1995,1590,æ
1779263877.167597,1950,1676,æ
1779263877.168909,2076,1644,æ
1779263877.173447,2224,1506,æ
1779263877.1742342,2105,1660,æ
1779263877.176144,1981,1657,æ
1779263877.181213,1908,1590,æ
1779263877.181356,2029,1560,æ
1779263877.181479,1994,1615,æ
1779263877.183611,1946,1600,æ
1779263877.18493,2016,1598,æ
1779263877.187493,2092,1613,æ
1779263877.188792,2064,1530,æ
1779263877.1941,2037,1608,æ
1779263877.195252,1984,1616,æ
1779263877.196852,1992,1708,æ
1779263877.197045,2029,1788,æ
1779263877.1996212,1984,1643,æ
1779263877.201986,1981,1604,æ
1779263877.204154,2102,1529,æ
1779263877.205468,2182,1768,æ
1779263877.206778,2067,1600,æ
1779263877.209312,1964,1574,æ
1779263877.210667,1981,1596,æ
1779263877.214797,2016,1625,æ
1779263877.215206,1957,1525,æ
1779263877.217031,1962,1553,æ
1779263877.222056,2062,1606,æ
1779263877.222236,2129,1677,æ
1779263877.22443,2090,1841,æ
1779263877.225745,2096,1703,æ
1779263877.226905,1995,1602,æ
1779263877.22947,2044,1594,æ
1779263877.2307699,2061,1629,æ
1779263877.2353961,1960,1588,æ
1779263877.236108,2003,1625,æ
