timestamp,ch1,ch2,label
1779267121.919758,2055,1777,4
1779267121.920136,1951,1836,4
1779267121.924608,1945,1899,4
1779267121.927691,1985,2629,4
1779267121.928299,2093,2502,4
1779267121.930537,2024,1957,4
1779267121.931468,1978,1900,4
1779267121.931763,2041,1952,4
1779267121.935369,2116,1833,4
1779267121.938474,1986,1664,4
1779267121.938578,1971,1948,4
1779267121.940002,2155,2267,4
1779267121.9415429,2015,2545,4
1779267121.9442391,2149,2098,4
1779267121.952379,2166,1787,4
1779267121.9547882,2084,1814,4
1779267121.9550662,2108,2011,4
1779267121.95548,2143,1567,4
1779267121.960983,2063,1981,4
1779267121.9618921,2033,2102,4
1779267121.962208,2024,2632,4
1779267121.964733,2095,2233,4
1779267121.9656162,1936,1879,4
1779267121.965728,2057,1756,4
1779267121.9658408,1975,1909,4
1779267121.9672441,2149,1732,4
1779267121.969897,2201,1877,4
1779267121.971361,2028,1903,4
1779267121.978865,2102,2609,4
1779267121.979908,2198,2484,4
1779267121.984322,2026,2009,4
1779267121.987575,1930,1923,4
1779267121.989766,1983,1948,4
1779267121.993564,1977,1888,4
1779267121.9936588,1915,1706,4
1779267121.993779,2018,1973,4
1779267121.993856,2012,2328,4
1779267121.994588,2059,2527,4
1779267121.99471,2229,2046,4
1779267122.0129862,2104,1737,4
1779267122.013197,2140,1800,4
1779267122.013408,2153,1968,4
1779267122.01353,2123,1505,4
1779267122.013612,2070,1998,4
1779267122.013676,1981,2247,4
1779267122.01374,1984,2712,4
1779267122.013868,1931,2241,4
1779267122.0139341,2082,1894,4
1779267122.014019,2084,1789,4
1779267122.0155919,2084,2013,4
1779267122.0171351,2082,1681,4
1779267122.023787,2002,1905,4
1779267122.0252569,2056,1853,4
1779267122.0259662,2047,2627,4
1779267122.029282,2025,2440,4
1779267122.0294971,2035,1964,4
1779267122.0316339,2034,1737,4
1779267122.031928,2024,1936,4
1779267122.038502,2085,1912,4
1779267122.038604,2020,1716,4
1779267122.038677,1984,1947,4
1779267122.040031,1955,2372,4
1779267122.045276,2091,2586,4
1779267122.047086,2224,2084,4
1779267122.049675,1964,1748,4
1779267122.054692,1960,1826,4
1779267122.056285,2018,2026,4
1779267122.0566568,2100,1566,4
1779267122.05708,2088,1992,4
1779267122.057309,2030,2212,4
1779267122.0576031,2023,2766,4
1779267122.060771,2129,2328,4
1779267122.0621681,1971,1984,4
1779267122.063534,1951,1917,4
1779267122.06522,2070,2158,4
1779267122.0717912,2156,1790,4
1779267122.072675,2046,1942,4
1779267122.076607,1987,2036,4
1779267122.082464,2016,2712,4
1779267122.083175,2101,2494,4
1779267122.083783,2069,2021,4
1779267122.087007,2050,1800,4
1779267122.0870872,1995,2002,4
1779267122.0871391,1852,1965,4
1779267122.087189,2064,1752,4
1779267122.0872371,2191,1963,4
1779267122.0956302,2061,2537,4
1779267122.0963671,2111,2691,4
1779267122.0987148,2038,2188,4
1779267122.101463,2128,1918,4
1779267122.103253,2102,1898,4
1779267122.103596,2082,2043,4
1779267122.105545,2141,1524,4
1779267122.106246,2064,2056,4
1779267122.1065989,2022,2200,4
1779267122.109631,2006,2722,4
1779267122.109718,1990,2282,4
1779267122.111097,2030,1930,4
1779267122.11374,2058,1837,4
1779267122.115114,2048,2088,4
1779267122.12206,2016,1731,4
1779267122.125,1998,1997,4
1779267122.125563,1987,1931,4
1779267122.1276102,2025,2599,4
1779267122.1299899,2060,2455,4
1779267122.1319418,2054,2004,4
1779267122.1325078,1981,1826,4
1779267122.132852,2003,1998,4
1779267122.136023,2113,1773,4
1779267122.136116,2050,1833,4
1779267122.137315,1978,2004,4
1779267122.143755,2012,2394,4
1779267122.14544,2047,2630,4
1779267122.147485,2090,2098,4
1779267122.147865,1999,1738,4
1779267122.150414,2009,1842,4
1779267122.1522508,2080,1868,4
1779267122.15428,2078,1552,4
1779267122.1575449,2057,2072,4
1779267122.157851,2005,2106,4
1779267122.1582332,2032,2689,4
1779267122.159654,2082,2204,4
1779267122.161142,2074,1777,4
1779267122.163827,2033,1752,4
1779267122.170955,2021,2073,4
1779267122.173572,2032,1645,4
1779267122.176078,2024,1999,4
1779267122.1800032,2039,1954,4
1779267122.180321,2069,2794,4
1779267122.182875,2043,2525,4
1779267122.1839418,2058,2023,4
1779267122.184083,2098,1926,4
1779267122.184167,1982,2026,4
1779267122.184234,2050,1849,4
1779267122.185579,1966,1864,4
1779267122.19187,2037,1994,4
1779267122.197315,2108,2497,4
1779267122.197498,2183,2620,4
1779267122.20124,2139,2091,4
1779267122.201813,2098,1831,4
1779267122.202666,2143,1831,4
1779267122.2053409,2226,2013,4
1779267122.2063549,2124,1631,4
1779267122.206437,1798,2075,4
1779267122.20651,1785,2347,4
1779267122.207904,2161,2837,4
1779267122.2093031,2257,2353,4
1779267122.211974,1896,1892,4
1779267122.2190342,2068,1768,4
1779267122.221535,2593,2234,4
1779267122.2218392,2327,1704,4
1779267122.2221692,2014,2030,4
1779267122.2242281,2096,1957,4
1779267122.22509,1775,2901,4
1779267122.225407,1495,2497,4
1779267122.22931,2362,2047,4
1779267122.2296488,2324,1819,4
1779267122.232773,1855,2156,4
1779267122.234425,1174,1960,4
1779267122.2419991,2064,1889,4
1779267122.2441201,3087,1981,4
1779267122.2443619,2107,2682,4
1779267122.244716,2101,2698,4
1779267122.246124,2316,2188,4
1779267122.246719,2111,1839,4
1779267122.255784,2158,2031,4
1779267122.2563,1998,2035,4
1779267122.2563992,1904,1650,4
1779267122.2564979,1943,2100,4
1779267122.2565708,2111,2337,4
1779267122.257934,2257,2779,4
1779267122.259403,2200,2242,4
1779267122.2621498,2043,1926,4
1779267122.2684019,2162,1984,4
1779267122.273844,2162,2299,4
1779267122.2742999,2110,1585,4
1779267122.2747478,2210,2092,4
1779267122.277777,2229,2036,4
1779267122.279802,2238,2726,4
1779267122.28002,2225,2530,4
1779267122.283068,1975,1860,4
1779267122.2834308,2045,1708,4
1779267122.2840571,2219,2132,4
1779267122.2878091,2246,1805,4
1779267122.287947,2149,1914,4
1779267122.28804,2134,1992,4
1779267122.289727,2126,2606,4
1779267122.296104,2133,2688,4
1779267122.29683,2145,1994,4
1779267122.297654,2111,1934,4
1779267122.299197,2142,1956,4
1779267122.301638,2178,1978,4
1779267122.304354,2152,1657,4
1779267122.306963,2149,2099,4
1779267122.307383,2115,2354,4
1779267122.310377,2154,2784,4
1779267122.310795,2157,2195,4
1779267122.31365,2111,1912,4
1779267122.314692,2079,1994,4
1779267122.3160489,2109,2104,4
1779267122.317497,2125,1667,4
1779267122.3202,2065,2081,4
1779267122.3216572,2088,2176,4
1779267122.3288488,2152,2865,4
1779267122.329648,2126,2488,4
1779267122.332622,2092,2023,4
1779267122.333365,2094,1802,4
1779267122.335171,2152,2187,4
1779267122.335986,2153,2130,4
1779267122.338479,2107,1900,4
1779267122.341552,2140,2007,4
1779267122.342087,1963,2706,4
1779267122.342488,1888,2608,4
1779267122.345296,2179,2193,4
1779267122.346299,2081,1943,4
1779267122.347696,2062,2036,4
1779267122.353929,2129,2132,4
1779267122.354752,2159,1701,4
1779267122.3569732,2065,2100,4
1779267122.36029,2118,2572,4
1779267122.365649,2121,2863,4
1779267122.368725,2213,2181,4
1779267122.369191,2146,1862,4
1779267122.369719,2012,1879,4
1779267122.370351,1966,2108,4
1779267122.373837,2264,1720,4
1779267122.373943,2167,2039,4
1779267122.37402,2081,2380,4
1779267122.37409,2075,2761,4
1779267122.375479,2141,2412,4
1779267122.378164,2062,1910,4
1779267122.379533,2066,1846,4
1779267122.388494,1901,2080,4
1779267122.388733,1905,1819,4
1779267122.396013,2422,1874,4
1779267122.39821,2214,1893,4
1779267122.398474,2265,2462,4
1779267122.398699,2360,2313,4
1779267122.401855,1538,1900,4
1779267122.402296,2163,1687,4
1779267122.402587,2131,1781,4
1779267122.40306,1967,1770,4
1779267122.403434,2027,1603,4
1779267122.4036758,1658,1983,4
1779267122.407093,1541,1964,4
1779267122.4075909,1499,2456,4
1779267122.41041,1890,1945,4
1779267122.4168131,2977,1505,4
1779267122.4176059,2998,1404,4
1779267122.418669,2434,1461,4
1779267122.421241,2364,1276,4
1779267122.421612,2193,1929,4
1779267122.421956,1959,2094,4
1779267122.424335,2239,2797,4
1779267122.429866,2757,2154,4
1779267122.430242,2277,1733,4
1779267122.430754,1469,1624,4
1779267122.4344451,1785,1881,4
1779267122.4345338,1619,1199,4
1779267122.435891,1927,1851,4
1779267122.4372349,2016,1714,4
1779267122.4398441,2345,2604,4
1779267122.44141,2422,2117,4
1779267122.448629,2252,1734,4
1779267122.44947,1707,1594,4
1779267122.449752,1597,1773,4
1779267122.4545732,1806,1750,4
1779267122.455429,2508,1632,4
1779267122.455734,2586,1842,4
1779267122.45826,1802,1474,4
1779267122.4586182,1420,2217,4
1779267122.461907,1792,1913,4
1779267122.4621692,1890,1539,4
1779267122.4652212,1972,1612,4
1779267122.4661388,2067,1751,4
1779267122.467781,2051,1339,4
1779267122.4692428,1797,1915,4
1779267122.475637,1815,1763,4
1779267122.477132,2032,2476,4
1779267122.479813,2352,2283,4
1779267122.482497,2145,1779,4
1779267122.482798,2026,1781,4
1779267122.4858088,2265,2181,4
1779267122.489195,1938,1918,4
1779267122.489589,2066,1820,4
1779267122.4900532,2097,1966,4
1779267122.49045,2142,2833,4
1779267122.494655,2004,2590,4
1779267122.49482,1814,2000,4
1779267122.496342,1980,1766,4
1779267122.497737,2017,2012,4
1779267122.499114,2055,1962,4
1779267122.502347,2029,1627,4
1779267122.5089412,2105,1927,4
1779267122.513292,2053,2310,4
1779267122.513831,2011,2265,4
1779267122.516475,2026,1815,4
1779267122.519858,1826,1601,4
1779267122.520075,2005,1192,4
1779267122.523784,2087,1289,4
1779267122.5243452,2064,1781,4
1779267122.524989,2087,1810,4
1779267122.525345,1940,1713,4
1779267122.525837,1958,2114,4
1779267122.526164,2248,1899,4
1779267122.529825,1961,1423,4
1779267122.52998,2283,1359,4
1779267122.531112,1784,1513,4
1779267122.537958,2112,1327,4
1779267122.5387468,2456,1682,4
1779267122.539531,1822,1676,4
1779267122.542848,1563,2146,4
1779267122.543512,1965,2032,4
1779267122.5456991,2090,1775,4
1779267122.54655,2104,1612,4
1779267122.5486982,2003,1878,4
1779267122.5528069,1891,2061,4
1779267122.5531101,1632,1870,4
1779267122.553364,1780,2183,4
1779267122.558052,1960,2537,4
1779267122.558271,1858,2435,4
1779267122.559823,2016,2029,4
1779267122.561236,2248,1813,4
1779267122.5639591,1550,1947,4
1779267122.5709598,1969,1900,4
1779267122.575168,2294,1995,4
1779267122.577769,1955,1959,4
1779267122.5785558,2091,1970,4
1779267122.580731,1973,2358,4
1779267122.581012,1935,2025,4
1779267122.584699,1841,1624,4
1779267122.584976,1851,1609,4
1779267122.585425,2000,1966,4
1779267122.585748,2266,2032,4
1779267122.5861409,2026,2045,4
1779267122.589643,1723,2283,4
1779267122.589708,1579,2629,4
1779267122.592513,2043,2360,4
1779267122.6025448,2492,1995,4
1779267122.6030872,2503,1937,4
1779267122.6055539,1521,2042,4
1779267122.606339,1741,2248,4
1779267122.606602,1859,2264,4
1779267122.6085188,2060,2149,4
1779267122.608798,2043,2013,4
1779267122.612441,1884,2302,4
1779267122.612789,2034,1973,4
1779267122.61307,2103,1600,4
1779267122.61342,2031,1533,4
1779267122.617335,1672,2216,4
1779267122.617412,2082,1920,4
1779267122.62011,2262,1837,4
1779267122.621517,2117,2255,4
1779267122.6243489,1757,2420,4
1779267122.6303859,1591,1991,4
1779267122.631196,2202,1624,4
1779267122.634648,2169,1739,4
1779267122.63503,1034,2046,4
1779267122.635446,1504,2047,4
1779267122.637095,2396,2252,4
1779267122.637967,2131,2419,4
1779267122.640455,1910,2469,4
1779267122.644479,1799,2366,4
1779267122.644947,2210,2001,4
1779267122.648525,2247,1828,4
1779267122.648598,2147,2256,4
1779267122.6499572,2174,2122,4
1779267122.65137,2027,2476,4
1779267122.6563551,2127,2748,4
1779267122.6576378,1960,3018,4
1779267122.66156,1491,2790,4
1779267122.664614,1910,2214,4
1779267122.666605,2194,2140,4
1779267122.670557,1740,2169,4
1779267122.671081,2401,2290,4
1779267122.671554,2701,2395,4
1779267122.6718552,2162,2378,4
1779267122.672033,2080,2592,4
1779267122.674984,2127,2644,4
1779267122.6762722,1840,2610,4
1779267122.677632,1723,2426,4
1779267122.680128,2109,2486,4
1779267122.68146,2162,2659,4
1779267122.688302,2013,2763,4
1779267122.689186,2056,2908,4
1779267122.691041,2299,2924,4
1779267122.693353,2620,2808,4
1779267122.6937711,1812,2489,4
1779267122.6953752,2100,2363,4
1779267122.6967292,2459,2550,4
1779267122.698472,2562,2619,4
1779267122.702851,1820,2568,4
1779267122.703042,1770,2490,4
1779267122.706113,1871,2595,4
1779267122.7069209,1994,2729,4
1779267122.708255,2173,2754,4
1779267122.709606,2178,2575,4
1779267122.71741,2198,2349,4
1779267122.720375,1873,2431,4
1779267122.722877,1497,2486,4
1779267122.725548,1821,2405,4
1779267122.7258072,1816,2260,4
1779267122.729741,1757,2467,4
1779267122.730137,2225,2578,4
1779267122.73047,2251,2402,4
1779267122.7307909,1686,2255,4
1779267122.731061,1767,2109,4
1779267122.731364,1395,2235,4
1779267122.734708,2285,2079,4
1779267122.736046,2106,2090,4
1779267122.737376,1783,2345,4
1779267122.739964,1898,2335,4
1779267122.7412,1576,2669,4
1779267122.746391,2223,2710,4
1779267122.74772,2455,2259,4
1779267122.748404,1998,2124,4
1779267122.751433,2124,2083,4
1779267122.7516859,1977,2171,4
1779267122.7540648,1953,2289,4
1779267122.756462,2186,2184,4
1779267122.760916,2285,2143,4
1779267122.7612538,2192,2260,4
1779267122.761458,1947,2346,4
1779267122.764684,2031,2358,4
1779267122.766289,2062,2391,4
1779267122.76798,2287,2290,4
1779267122.773896,1980,2217,4
1779267122.7752059,1802,2387,4
1779267122.775868,1968,2483,4
1779267122.7781749,2025,2450,4
1779267122.7786298,2153,2334,4
1779267122.7830348,2143,2248,4
1779267122.787192,1809,2426,4
1779267122.7875378,2058,2388,4
1779267122.787888,1856,2418,4
1779267122.7918952,1825,2571,4
1779267122.791997,1687,2685,4
1779267122.792065,1555,2507,4
1779267122.7934878,1801,2234,4
1779267122.796237,1767,2244,4
1779267122.797641,1712,2274,4
1779267122.807016,1929,2398,4
1779267122.810476,1971,2274,4
1779267122.8133109,1682,2242,4
1779267122.820468,1370,2376,4
1779267122.821036,2067,2530,4
1779267122.821415,2282,2438,4
1779267122.821905,1862,2250,4
1779267122.822413,1781,2340,4
1779267122.82284,1909,2389,4
1779267122.8264,2000,2238,4
1779267122.8267798,1972,2293,4
1779267122.82703,1887,2318,4
1779267122.827138,1919,2378,4
1779267122.8272371,1917,2323,4
1779267122.827332,1977,2296,4
1779267122.83631,1774,2194,4
1779267122.8396869,1999,2294,4
1779267122.8400729,2310,2266,4
1779267122.8405461,2151,2164,4
1779267122.8439538,1703,2116,4
1779267122.84608,1926,2084,4
1779267122.846446,2096,2176,4
1779267122.8512619,1844,1980,4
1779267122.851439,1922,2010,4
1779267122.8520472,2519,2055,4
1779267122.85555,2132,2032,4
1779267122.856652,1970,1964,4
1779267122.856748,1952,2085,4
1779267122.856884,1717,2248,4
1779267122.858326,2047,2332,4
1779267122.859755,1914,2269,4
1779267122.861332,2021,2003,4
1779267122.869788,2085,1954,4
1779267122.870775,1921,1994,4
1779267122.872501,2006,1733,4
1779267122.878179,2122,1898,4
1779267122.8811588,2194,2144,4
1779267122.8864388,2252,2213,4
1779267122.887103,2256,2036,4
1779267122.887603,2117,2172,4
1779267122.891139,1999,2022,4
1779267122.891267,1978,1926,4
1779267122.891415,2028,1937,4
1779267122.891534,1996,1854,4
1779267122.891603,2016,2131,4
1779267122.891667,2073,2306,4
1779267122.891778,2167,2202,4
1779267122.8934689,2109,2088,4
1779267122.901322,2090,2225,4
1779267122.904552,2107,2274,4
1779267122.90723,2063,2304,4
1779267122.910227,1954,2188,4
1779267122.915632,1843,2266,4
1779267122.920102,1811,2441,4
1779267122.9204211,2115,2627,4
1779267122.920635,2228,2453,4
1779267122.920862,2109,2108,4
1779267122.920945,1987,2347,4
1779267122.921012,1910,2374,4
1779267122.9211452,1939,2396,4
1779267122.9212291,2273,2185,4
1779267122.921296,2277,2537,4
1779267122.92429,2146,2531,4
1779267122.925728,1965,2520,4
1779267122.927253,2012,2565,4
1779267122.9354482,1878,2498,4
1779267122.9383528,2086,2384,4
1779267122.938852,2028,2139,4
1779267122.939316,1741,2094,4
1779267122.94181,2759,2065,4
1779267122.944746,2265,2326,4
1779267122.949878,1802,1974,4
1779267122.950521,2648,2107,4
1779267122.951095,1723,2087,4
1779267122.951802,1581,1979,4
1779267122.9554932,1267,1940,4
1779267122.955669,2501,1756,4
1779267122.9558249,3745,1719,4
1779267122.955969,1212,2114,4
1779267122.957464,1141,2098,4
1779267122.9663491,2696,2001,4
1779267122.9690392,2252,1532,4
1779267122.9695518,2105,1700,4
1779267122.97206,2108,1739,4
1779267122.9747682,2076,1574,4
1779267122.9750469,1947,1721,4
1779267122.9801621,1843,1899,4
1779267122.9807858,1926,1985,4
1779267122.9812832,1912,1888,4
1779267122.981863,2184,1743,4
1779267122.984821,2183,1813,4
1779267122.986285,2275,1798,4
1779267122.986447,2369,1692,4
1779267122.986567,1817,1706,4
1779267122.98797,1974,1806,4
1779267122.9893498,2285,1949,4
1779267122.992322,2116,1817,4
1779267123.000503,2015,1771,4
1779267123.0008802,2038,1742,4
1779267123.0045571,2259,1529,4
1779267123.006659,2279,1784,4
1779267123.009875,2079,1704,4
1779267123.014969,1655,1685,4
1779267123.016184,2135,1892,4
1779267123.0199811,2132,1903,4
1779267123.020184,2093,1817,4
1779267123.020313,2126,1712,4
1779267123.020441,2107,1628,4
1779267123.020514,2076,1813,4
1779267123.02058,2031,1776,4
1779267123.020642,1986,1779,4
1779267123.022033,1989,2006,4
1779267123.029841,1999,2119,4
1779267123.032162,2039,1978,4
1779267123.03467,2263,1779,4
1779267123.03527,2146,1826,4
1779267123.035688,2044,1931,4
1779267123.0387058,2111,1824,4
1779267123.039017,2035,2041,4
1779267123.040962,1992,2266,4
1779267123.041336,1988,2102,4
1779267123.046195,2195,1902,4
1779267123.046826,2060,1605,4
1779267123.047382,1977,1728,4
1779267123.047584,2190,2013,4
1779267123.051221,2046,1872,4
1779267123.051645,2057,1816,4
1779267123.054378,1996,1994,4
1779267123.055754,1976,2173,4
1779267123.05736,2129,2073,4
1779267123.0642939,2121,2144,4
1779267123.0653188,1990,1969,4
1779267123.066752,2064,1946,4
1779267123.0669959,2066,2273,4
1779267123.070085,1975,2002,4
1779267123.070456,1972,2068,4
1779267123.073627,2071,2239,4
1779267123.075665,2095,2277,4
1779267123.0807638,2103,2102,4
1779267123.081151,2037,2019,4
1779267123.081695,2010,1979,4
1779267123.082288,1982,2110,4
1779267123.08652,2189,2104,4
1779267123.086677,2058,2047,4
1779267123.0880792,2195,2073,4
1779267123.0947928,1992,2346,4
1779267123.096896,1993,2463,4
1779267123.10037,2179,2171,4
1779267123.103585,2193,2095,4
1779267123.10559,1882,2388,4
1779267123.11055,1926,2402,4
1779267123.110922,2248,2153,4
1779267123.1116328,2142,2180,4
1779267123.112204,1860,2417,4
1779267123.1158998,2157,2351,4
1779267123.116178,2014,2292,4
1779267123.11632,2040,2004,4
1779267123.116411,2291,2124,4
1779267123.1166,2121,2338,4
1779267123.118199,2148,2277,4
1779267123.119651,2035,2118,4
1779267123.1223161,1965,2178,4
1779267123.130534,2120,2533,4
1779267123.1315892,2112,2546,4
1779267123.1344159,2018,2193,4
1779267123.13492,2120,2213,4
1779267123.138127,2189,2163,4
1779267123.140405,2109,2269,4
1779267123.145453,2134,2280,4
1779267123.1458828,2088,2069,4
1779267123.1464949,1959,2513,4
1779267123.150408,2043,2333,4
1779267123.15099,2122,2367,4
1779267123.151136,1938,2254,4
1779267123.151285,2041,2228,4
1779267123.1513531,1985,2273,4
1779267123.151412,2114,2130,4
1779267123.161091,2032,2293,4
1779267123.1618528,2135,2491,4
1779267123.1641731,2085,2415,4
1779267123.1646452,2049,2303,4
1779267123.165057,2157,2325,4
1779267123.1676679,2279,2235,4
1779267123.170333,2151,2310,4
1779267123.170671,2034,2245,4
1779267123.175592,1876,2442,4
1779267123.1760042,1897,2654,4
1779267123.176416,2256,2547,4
1779267123.176922,2105,2155,4
1779267123.180507,2085,2141,4
1779267123.1809049,1863,2406,4
1779267123.182378,1956,2564,4
1779267123.183774,2259,1986,4
1779267123.18527,2016,2221,4
1779267123.194305,2051,2253,4
1779267123.1959271,2073,2602,4
1779267123.198945,2087,2526,4
1779267123.201748,2103,2421,4
1779267123.2027478,2048,2325,4
1779267123.205034,2103,2556,4
1779267123.209852,2123,2483,4
1779267123.210583,2015,2413,4
1779267123.210871,1965,2505,4
1779267123.211276,2014,2676,4
1779267123.211811,2051,2588,4
1779267123.212136,2105,2379,4
1779267123.214827,2096,2367,4
1779267123.21588,1900,2542,4
1779267123.216015,1926,2493,4
1779267123.217411,2305,2385,4
1779267123.2244961,2094,2557,4
1779267123.226044,1944,2696,4
1779267123.2273989,2072,2858,4
1779267123.229899,2093,2787,4
1779267123.2303412,2070,2705,4
1779267123.233579,2068,2789,4
1779267123.235805,2115,2695,4
1779267123.240781,2056,2782,4
1779267123.24101,1893,2679,4
1779267123.241364,2021,2800,4
1779267123.241777,2062,3245,4
1779267123.242164,2050,3090,4
1779267123.245644,2024,2907,4
1779267123.246031,2212,2658,4
1779267123.247454,2107,2864,4
1779267123.250102,1987,2798,4
1779267123.251476,2007,2654,4
1779267123.26565,2034,2573,4
1779267123.267224,2088,2624,4
1779267123.26915,2100,2495,4
1779267123.269603,2097,2361,4
1779267123.274732,2057,2399,4
1779267123.275245,2061,2159,4
1779267123.2754838,2041,2137,4
1779267123.278731,2015,1992,4
1779267123.2788942,2035,1891,4
1779267123.2793548,2063,2242,4
1779267123.279437,2085,2319,4
1779267123.279509,2072,2120,4
1779267123.2795799,2056,2117,4
1779267123.27965,1977,2288,4
1779267123.282319,2041,2122,4
1779267123.289484,2101,1843,4
1779267123.29245,2027,1940,4
1779267123.292999,2002,2193,4
1779267123.2948859,2049,2296,4
1779267123.302799,2074,2330,4
1779267123.3034172,2041,2352,4
1779267123.303929,2072,2276,4
1779267123.307616,2073,2206,4
1779267123.308098,2050,2167,4
1779267123.308234,1963,2150,4
1779267123.308309,1988,2266,4
1779267123.3083782,2014,2368,4
1779267123.308442,2084,2311,4
1779267123.309809,2039,2021,4
1779267123.312473,2038,1907,4
1779267123.313837,2042,2086,4
1779267123.3219788,2057,2021,4
1779267123.325611,2033,1850,4
1779267123.326032,1999,2011,4
1779267123.3286211,1984,2397,4
1779267123.328894,2078,2296,4
1779267123.331441,2090,2128,4
1779267123.331718,2069,1997,4
1779267123.332153,2044,1973,4
1779267123.3370838,2010,1992,4
1779267123.3375611,1961,1959,4
1779267123.3379562,2034,2020,4
1779267123.3383281,2026,2381,4
1779267123.3417459,1926,2843,4
1779267123.3420742,2112,2788,4
1779267123.343471,2210,2578,4
1779267123.352789,2076,2281,4
1779267123.354979,2173,2395,4
1779267123.355427,2215,1986,4
1779267123.355577,2067,1788,4
1779267123.35584,2023,2093,4
1779267123.358489,2105,2330,4
1779267123.359458,1657,2314,4
1779267123.366403,1762,2103,4
1779267123.366884,2595,2132,4
1779267123.367496,2384,2100,4
1779267123.367698,2286,1947,4
1779267123.371225,2007,1781,4
1779267123.371434,1705,2112,4
1779267123.371569,2064,2872,4
1779267123.374253,2666,3061,4
1779267123.3755982,2273,2856,4
1779267123.3785758,1981,2838,4
1779267123.389014,1843,3059,4
1779267123.389539,1941,3031,4
1779267123.3920221,2218,2632,4
1779267123.39304,2439,2554,4
1779267123.395058,1825,2943,4
1779267123.3998,1428,3196,4
1779267123.4005492,2270,2865,4
1779267123.400909,2331,2806,4
1779267123.40121,1575,3085,4
1779267123.404253,1413,2903,4
1779267123.4045062,2804,2262,4
1779267123.405565,2103,2096,4
1779267123.405641,2118,2565,4
1779267123.40578,2397,3180,4
1779267123.408522,2253,2936,4
1779267123.4143062,2171,2567,4
1779267123.415074,1958,2210,4
1779267123.4163609,1975,2362,4
1779267123.418895,2018,2035,4
1779267123.421473,1762,1669,4
1779267123.422563,1560,2159,4
1779267123.4292412,2128,2630,4
1779267123.4297512,2058,2578,4
1779267123.430014,2070,2304,4
1779267123.430486,1898,2138,4
1779267123.4308639,1861,2338,4
1779267123.4346938,2112,2223,4
1779267123.4347908,2120,1688,4
1779267123.436042,2117,1717,4
1779267123.437435,2032,2416,4
1779267123.440045,1948,2630,4
1779267123.441393,1760,2397,4
1779267123.4495099,1965,1979,4
1779267123.450979,1983,2018,4
1779267123.453187,2059,2277,4
1779267123.454123,1821,1835,4
1779267123.454632,1721,1729,4
1779267123.457671,2008,2138,4
1779267123.4600708,2076,2767,4
1779267123.465722,2102,2259,4
1779267123.4661682,2048,1869,4
1779267123.4665952,1959,1791,4
1779267123.467052,1981,1922,4
1779267123.4674718,1999,1563,4
1779267123.4683678,1791,1673,4
1779267123.471725,1836,1641,4
1779267123.4729788,1902,2222,4
1779267123.4743638,1934,2366,4
1779267123.475496,1998,1950,4
1779267123.483975,1890,1726,4
1779267123.4869661,1489,1765,4
1779267123.489812,2231,1546,4
1779267123.490287,2243,1557,4
1779267123.493545,1807,1826,4
1779267123.494496,1671,1630,4
1779267123.497013,2044,2217,4
1779267123.497306,2187,1883,4
1779267123.497567,2379,1552,4
1779267123.497826,1886,1484,4
1779267123.5033941,1678,1485,4
1779267123.503724,1858,1263,4
1779267123.504063,1929,1863,4
1779267123.504342,1715,1468,4
1779267123.50878,1554,2099,4
1779267123.508994,2160,2006,4
1779267123.510391,2264,1706,4
1779267123.511798,1937,1518,4
1779267123.514452,1979,1428,4
1779267123.5157812,2104,930,4
1779267123.52361,2141,1837,4
1779267123.5245912,2056,1716,4
1779267123.525525,1877,1712,4
1779267123.52578,1858,2019,4
1779267123.5276642,1843,1659,4
1779267123.5286632,1980,1384,4
1779267123.531477,1785,1366,4
1779267123.5317209,1981,999,4
1779267123.534693,1895,1626,4
1779267123.537976,1812,1828,4
1779267123.5436502,1991,1334,4
1779267123.543992,2055,2230,4
1779267123.544411,2068,2011,4
1779267123.544586,1914,1664,4
1779267123.5495539,1940,1553,4
1779267123.549684,2121,1556,4
1779267123.549836,1882,1350,4
1779267123.551418,1781,1943,4
1779267123.560058,2016,1502,4
1779267123.560916,1774,2131,4
1779267123.561852,1913,2064,4
1779267123.56284,2023,1799,4
1779267123.5655448,1849,1595,4
1779267123.5659678,1869,1519,4
1779267123.5700438,1939,993,4
1779267123.572639,1945,1927,4
1779267123.572886,1956,1785,4
1779267123.57837,2053,2103,4
1779267123.578785,2065,2395,4
1779267123.579145,1952,1998,4
1779267123.5795531,2021,1716,4
1779267123.583974,1884,1766,4
1779267123.5843132,1918,1394,4
1779267123.584727,1999,1780,4
1779267123.586168,2148,1989,4
1779267123.5875661,2061,1888,4
1779267123.590335,2056,2524,4
1779267123.5917282,2104,2139,4
1779267123.600137,2049,1776,4
1779267123.601154,2046,1665,4
1779267123.6021838,2069,1584,4
1779267123.603198,2068,1512,4
1779267123.609547,2003,2076,4
1779267123.6221068,2034,1546,4
1779267123.623625,1983,2549,4
1779267123.62372,1847,2226,4
1779267123.623855,1982,1947,4
1779267123.62398,2021,1907,4
1779267123.624077,2110,1801,4
1779267123.6242292,2007,1154,4
1779267123.624318,1927,2115,4
1779267123.624385,2299,1905,4
1779267123.624448,1906,2424,4
1779267123.62451,1719,2501,4
1779267123.626026,2093,2001,4
1779267123.635242,2380,1905,4
1779267123.6397069,2144,2069,4
1779267123.640074,1948,1565,4
1779267123.643251,1852,1942,4
1779267123.644209,2281,2139,4
1779267123.652543,2079,2087,4
1779267123.653325,1915,2723,4
1779267123.65387,2188,2241,4
1779267123.6543272,2065,1865,4
1779267123.658378,2178,2025,4
1779267123.658697,2030,1815,4
1779267123.6588259,2054,1632,4
1779267123.6589,1785,2246,4
1779267123.658966,1857,1904,4
1779267123.6590312,2143,2897,4
1779267123.659093,1968,2566,4
1779267123.660578,2026,1809,4
1779267123.662091,1935,2001,4
1779267123.663523,1880,2100,4
1779267123.666239,1525,1344,4
1779267123.675442,2263,2235,4
1779267123.6757581,2569,2000,4
1779267123.680424,2087,2822,4
1779267123.6842601,1789,2736,4
1779267123.686486,2071,1893,4
1779267123.6921961,2522,1959,4
1779267123.692597,2133,1989,4
1779267123.694121,1956,1472,4
1779267123.694491,1998,2066,4
1779267123.698505,2065,2188,4
1779267123.6990342,1914,2140,4
1779267123.699115,1932,2694,4
1779267123.699191,2002,2139,4
1779267123.699261,1997,1818,4
1779267123.699336,1959,1996,4
1779267123.699405,2013,1817,4
1779267123.6994681,2039,1723,4
1779267123.7023418,2059,2283,4
1779267123.709122,2043,1969,4
1779267123.709363,2067,2905,4
1779267123.7102458,2024,2487,4
1779267123.715063,1981,1778,4
1779267123.715669,2064,2007,4
1779267123.716054,1976,2005,4
1779267123.721845,1858,1330,4
1779267123.722424,1895,2275,4
1779267123.727905,2261,1973,4
1779267123.728632,2041,2664,4
1779267123.728874,2059,2685,4
1779267123.729078,2219,1851,4
1779267123.7293508,2132,1964,4
1779267123.729792,2005,2202,4
1779267123.7341812,1897,1671,4
1779267123.734569,2028,2084,4
1779267123.735921,2043,2212,4
1779267123.738533,2012,2233,4
1779267123.739871,2125,2773,4
1779267123.742549,1975,2121,4
1779267123.752383,1753,1810,4
1779267123.7552052,2014,2041,4
1779267123.755588,2224,1787,4
1779267123.755947,2094,1741,4
1779267123.759216,2133,2297,4
1779267123.7603378,1870,1989,4
1779267123.762805,2010,2956,4
1779267123.763277,2065,2471,4
1779267123.7701278,1988,1770,4
1779267123.770543,1966,2100,4
1779267123.773856,1968,2065,4
1779267123.774838,2079,1339,4
1779267123.775529,1914,2293,4
1779267123.775622,2062,1990,4
1779267123.775695,1896,2802,4
1779267123.775765,2038,2812,4
1779267123.7758331,2153,1825,4
1779267123.7786748,2048,1977,4
1779267123.785729,2145,2223,4
1779267123.786077,2086,1565,4
1779267123.786975,1805,2123,4
1779267123.7886531,1870,2220,4
1779267123.792266,1941,2534,4
1779267123.792609,2312,2987,4
1779267123.79298,2164,2060,4
1779267123.796196,1931,1828,4
1779267123.805287,1991,2241,4
1779267123.805783,2062,1865,4
1779267123.806381,2074,1801,4
1779267123.80672,2119,2311,4
1779267123.807308,2012,1978,4
1779267123.8076968,2019,3047,4
1779267123.812168,2137,2413,4
1779267123.812254,2035,1752,4
1779267123.812426,1986,2129,4
1779267123.813801,2079,2123,4
1779267123.8167622,2138,1392,4
1779267123.818418,2055,2315,4
1779267123.819892,1833,1975,4
1779267123.826866,2029,2896,4
1779267123.8323562,1814,2837,4
1779267123.836218,1932,1796,4
1779267123.843204,2287,2004,4
1779267123.8438919,2093,2265,4
1779267123.844267,2114,1474,4
1779267123.844521,1932,2171,4
1779267123.8449652,2167,2218,4
1779267123.845542,2107,2512,4
1779267123.846048,2006,2976,4
1779267123.8463402,2241,2013,4
1779267123.850375,2053,1821,4
1779267123.8505468,1950,2216,4
1779267123.8506281,2035,1811,4
1779267123.850699,2046,1852,4
1779267123.852167,2038,2318,4
1779267123.853696,2075,1973,4
1779267123.860566,2042,3080,4
1779267123.8614779,2048,2361,4
1779267123.863955,1893,1742,4
1779267123.867319,1946,2285,4
1779267123.8702521,2119,2045,4
1779267123.870614,1892,1448,4
1779267123.878109,1995,2342,4
1779267123.878633,2120,1965,4
1779267123.8791811,2099,3268,4
1779267123.8796449,2173,2746,4
1779267123.8799832,2074,1769,4
1779267123.880337,1940,2017,4
1779267123.884025,1843,2177,4
1779267123.884139,2036,1474,4
1779267123.884464,1978,2209,4
1779267123.8862588,2279,2183,4
1779267123.887651,2192,2469,4
1779267123.8903942,2191,2930,4
1779267123.891826,2016,1970,4
1779267123.901919,2104,1839,4
1779267123.904225,2140,2239,4
1779267123.906568,2051,1864,4
1779267123.90962,1945,1896,4
1779267123.912589,1897,2314,4
1779267123.9179158,1961,2150,4
1779267123.9182022,1922,3052,4
1779267123.9186199,2086,2315,4
1779267123.91936,2216,1757,4
1779267123.919586,1988,2377,4
1779267123.922875,1706,2088,4
1779267123.923382,2042,1491,4
1779267123.923462,2370,2346,4
1779267123.923527,2167,1934,4
1779267123.923593,1872,2874,4
1779267123.923696,2227,2757,4
1779267123.926399,2028,1759,4
1779267123.933808,1990,1999,4
1779267123.946899,1810,2262,4
1779267123.947744,2583,1347,4
1779267123.951523,2323,2228,4
1779267123.952179,1208,2202,4
1779267123.952367,2293,2494,4
1779267123.952563,2242,3111,4
1779267123.952636,1726,1938,4
1779267123.952703,1733,1825,4
1779267123.952765,2437,2114,4
1779267123.952825,2482,1844,4
1779267123.952888,2079,1928,4
1779267123.9529479,1939,2315,4
1779267123.95428,2393,2084,4
1779267123.9556081,2251,3270,4
1779267123.9582,1526,2264,4
1779267123.963892,2144,1746,4
1779267123.964563,2186,2397,4
1779267123.967038,1911,1997,4
1779267123.9690518,1859,1551,4
1779267123.969631,2063,2362,4
1779267123.971526,2116,1903,4
1779267123.9722931,2099,3087,4
1779267123.974945,1921,2674,4
1779267123.979848,2008,1740,4
1779267123.980223,2655,2062,4
1779267123.9805398,2353,2159,4
1779267123.9838562,1940,1223,4
1779267123.9842072,1978,2278,4
1779267123.9857879,2032,2172,4
1779267123.9961011,1980,2612,4
1779267123.996361,2108,3024,4
1779267123.996845,2119,1883,4
1779267123.999365,2147,1855,4
1779267124.00034,2087,2332,4
1779267124.002312,2030,1581,4
1779267124.007246,2098,2016,4
1779267124.0075579,2218,2323,4
1779267124.007915,2215,2025,4
1779267124.0081978,2231,3198,4
1779267124.008381,2273,2189,4
1779267124.011181,2240,1724,4
1779267124.012565,2177,2216,4
1779267124.0139022,2123,1910,4
1779267124.016659,2238,1633,4
1779267124.018462,2253,2368,4
1779267124.023909,2171,1842,4
1779267124.0252202,2164,2969,4
1779267124.028013,2217,2618,4
1779267124.028417,2229,1721,4
1779267124.028631,2203,2095,4
1779267124.032587,2163,2103,4
1779267124.032945,2239,1186,4
1779267124.0372102,2230,2313,4
1779267124.037536,2239,2148,4
1779267124.037865,2268,2673,4
1779267124.04101,2341,3041,4
1779267124.0423622,2311,1841,4
1779267124.0489259,2166,1870,4
1779267124.0522351,2193,2263,4
1779267124.0525792,2363,1463,4
1779267124.052796,2177,2082,4
1779267124.054711,2071,2310,4
1779267124.0554812,2180,1949,4
1779267124.057112,2308,3072,4
1779267124.0615191,2308,2132,4
1779267124.061791,2341,1719,4
1779267124.06204,2383,2283,4
1779267124.064867,2320,1957,4
1779267124.0663302,2102,1681,4
1779267124.067656,1967,2384,4
1779267124.070239,2562,1822,4
1779267124.075974,2463,3132,4
1779267124.07661,2155,2554,4
1779267124.0772119,2116,1704,4
1779267124.079487,2274,2130,4
1779267124.08111,2352,2250,4
1779267124.087809,2254,1223,4
1779267124.087976,2406,2335,4
1779267124.088212,2167,2146,4
1779267124.088385,1878,2821,4
1779267124.091542,1810,3019,4
1779267124.091618,1910,1818,4
1779267124.0984042,2019,1884,4
1779267124.099595,2146,2420,4
1779267124.100688,2314,1576,4
1779267124.102485,2185,2095,4
1779267124.102759,2295,2318,4
1779267124.105172,2010,2323,4
1779267124.110964,2116,3296,4
1779267124.111444,2486,2092,4
1779267124.1116889,2335,1748,4
1779267124.11199,2423,2546,4
1779267124.115,1999,2036,4
1779267124.1164632,1780,1718,4
1779267124.1178722,1880,2393,4
1779267124.120576,2269,1929,4
1779267124.1282392,2295,3298,4
1779267124.130399,1945,2501,4
1779267124.13095,1883,1702,4
1779267124.135703,2030,2159,4
1779267124.140874,2387,2154,4
1779267124.141518,2456,1285,4
1779267124.142046,2153,2345,4
1779267124.142406,1945,2106,4
1779267124.142705,2017,2778,4
1779267124.145808,2004,2842,4
1779267124.145904,2272,1813,4
1779267124.1460512,1863,1873,4
1779267124.1461198,2568,2085,4
1779267124.1544042,2092,1678,4
1779267124.1600692,1756,2096,4
1779267124.162552,2319,2268,4
1779267124.167904,2354,2906,4
1779267124.170969,2491,2957,4
1779267124.171106,2311,2092,4
1779267124.171215,1946,1802,4
1779267124.171306,2192,2336,4
1779267124.171436,1932,2565,4
1779267124.171511,1898,1908,4
1779267124.1716118,2386,2280,4
1779267124.171701,1579,2381,4
1779267124.171773,1694,2681,4
1779267124.174541,2172,2104,4
1779267124.1759439,2080,1549,4
1779267124.186458,2167,1449,4
1779267124.186707,2151,1673,4
1779267124.187006,2158,1692,4
1779267124.187404,2114,2033,4
1779267124.189648,1989,2317,4
1779267124.192035,2241,2585,4
1779267124.196755,2029,2058,4
1779267124.1970692,2611,1534,4
1779267124.197628,1992,1570,4
1779267124.198115,1822,1827,4
1779267124.198333,2003,1928,4
1779267124.201589,2202,1895,4
1779267124.201772,2223,2295,4
1779267124.208899,2277,2728,4
1779267124.210199,2502,2471,4
1779267124.211033,2259,1853,4
1779267124.213436,1624,1610,4
1779267124.214135,2222,1825,4
1779267124.218646,2295,2307,4
1779267124.2189481,2171,2632,4
1779267124.2237508,1939,2818,4
1779267124.224407,2041,2877,4
1779267124.2246442,2062,2777,4
1779267124.22493,2603,2478,4
1779267124.227978,1977,2093,4
1779267124.228092,2235,2173,4
1779267124.2296371,2148,2687,4
1779267124.2322948,2393,2817,4
1779267124.233651,2344,3005,4
1779267124.240482,1903,3052,4
1779267124.2412438,1957,3034,4
1779267124.2457879,1833,2827,4
1779267124.248091,2092,2519,4
1779267124.253237,2253,2299,4
1779267124.2536461,1986,2380,4
1779267124.253956,1938,2619,4
1779267124.254239,1818,2446,4
1779267124.254472,2099,2817,4
1779267124.2551098,1859,3122,4
1779267124.2587671,1937,2851,4
1779267124.258875,2114,2243,4
1779267124.2606149,1862,1945,4
1779267124.266021,1642,2143,4
1779267124.269695,1885,2405,4
1779267124.270079,2118,2333,4
1779267124.272319,1851,2455,4
1779267124.273249,2150,2596,4
1779267124.279615,1564,2466,4
1779267124.279955,1938,2121,4
1779267124.2803159,2018,1952,4
1779267124.28078,2084,1877,4
1779267124.281091,1912,2211,4
1779267124.284302,1792,2285,4
1779267124.2844129,1548,2439,4
1779267124.286151,1765,2280,4
1779267124.287596,1882,2414,4
1779267124.290226,1699,2276,4
1779267124.295934,1324,2166,4
1779267124.296797,1796,2417,4
1779267124.2981498,1565,2344,4
1779267124.300666,1521,2083,4
1779267124.301116,1835,1988,4
1779267124.305283,1646,2291,4
1779267124.3055449,1722,2502,4
1779267124.306025,1851,2347,4
1779267124.3111098,1886,2028,4
1779267124.311865,1773,1841,4
1779267124.312255,1759,2013,4
1779267124.316134,1511,2178,4
1779267124.3162508,1683,2196,4
1779267124.317656,1711,2195,4
1779267124.371299,1967,2187,4
1779267124.3714619,1786,2444,4
1779267124.371561,2001,2049,4
1779267124.371634,1814,1733,4
1779267124.371697,1876,1719,4
1779267124.371758,2037,2183,4
1779267124.371819,1982,2348,4
1779267124.3718789,1694,1846,4
1779267124.3721,1537,1887,4
1779267124.3721821,1810,2220,4
1779267124.3722491,1855,2259,4
1779267124.372319,1717,1992,4
1779267124.372384,1885,1807,4
1779267124.372447,2026,1731,4
1779267124.372511,1669,1990,4
1779267124.372577,2115,2273,4
1779267124.3731189,2178,2204,4
1779267124.373271,1940,2187,4
1779267124.373342,1812,2197,4
1779267124.3734038,2001,1954,4
1779267124.373466,2012,2093,4
1779267124.3736918,2222,1909,4
1779267124.373884,2097,1976,4
1779267124.373974,2012,2080,4
1779267124.374039,1927,2210,4
1779267124.374114,1867,2212,4
1779267124.3741739,1994,2240,4
1779267124.374235,1973,2331,4
1779267124.375726,2159,2253,4
1779267124.379789,2326,2372,4
1779267124.3798609,2027,2422,4
1779267124.38271,2013,2281,4
1779267124.384147,2077,2243,4
1779267124.385813,2126,2182,4
1779267124.388509,2027,2448,4
1779267124.389913,2127,2363,4
1779267124.401164,2015,2149,4
1779267124.403931,1872,2060,4
1779267124.4067929,1790,2119,4
1779267124.4106932,2299,2207,4
1779267124.411217,2424,2180,4
1779267124.421566,2137,2159,4
1779267124.4217322,2080,2227,4
1779267124.421819,2075,2239,4
1779267124.4219398,2166,2134,4
1779267124.422056,2279,2339,4
1779267124.422168,2063,2282,4
1779267124.422241,2077,2130,4
1779267124.422334,2015,1908,4
1779267124.4224079,1848,2082,4
1779267124.422505,1750,2245,4
1779267124.422567,1848,2246,4
1779267124.4240682,2577,2188,4
1779267124.446931,2385,2118,4
1779267124.4471629,2031,2041,4
1779267124.44727,2185,1997,4
1779267124.447351,2316,2114,4
1779267124.4474182,2190,2148,4
1779267124.4474812,2158,2326,4
1779267124.447616,2011,2536,4
1779267124.447708,2230,2401,4
1779267124.4478168,1919,2337,4
1779267124.447895,1729,2301,4
1779267124.4479628,2169,2515,4
1779267124.448086,2082,2267,4
1779267124.450891,1578,2118,4
1779267124.4522629,2189,2033,4
1779267124.454099,2880,2147,4
1779267124.46484,2229,2305,4
1779267124.465364,2297,2289,4
1779267124.467817,2159,2155,4
1779267124.468964,2023,2181,4
1779267124.476765,2231,2302,4
1779267124.477775,1902,2384,4
1779267124.478113,2174,2326,4
1779267124.481733,1656,2466,4
1779267124.482333,1800,2614,4
1779267124.482749,2015,2552,4
1779267124.482935,2111,2486,4
1779267124.483114,2231,2176,4
1779267124.483228,2218,2277,4
1779267124.483422,2069,2256,4
1779267124.485028,1976,2335,4
1779267124.494741,2085,2424,4
1779267124.4953349,2426,2518,4
1779267124.495754,2054,2346,4
1779267124.497765,1824,2258,4
1779267124.5012312,1956,2324,4
1779267124.506903,2075,2311,4
1779267124.51129,2268,2335,4
1779267124.511412,2241,2358,4
1779267124.511499,2180,2357,4
1779267124.5116649,2082,2457,4
1779267124.511734,2189,2476,4
1779267124.511795,2171,2260,4
1779267124.5118568,2134,2291,4
1779267124.511919,2008,2290,4
1779267124.514577,1988,2217,4
1779267124.516205,2376,2190,4
1779267124.5178502,2268,2290,4
1779267124.529396,1940,2373,4
1779267124.5332632,1948,2254,4
1779267124.535624,2122,2337,4
1779267124.541038,2142,2240,4
1779267124.5413902,2059,2116,4
1779267124.541745,2093,2170,4
1779267124.5422049,2072,1929,4
1779267124.542615,1968,1922,4
1779267124.543007,1914,2110,4
1779267124.5434408,1993,2352,4
1779267124.543752,2292,2167,4
1779267124.5470872,2152,1958,4
1779267124.5475242,2082,2029,4
1779267124.5476758,2017,2056,4
1779267124.54775,2120,1966,4
1779267124.5505972,2032,1827,4
1779267124.559021,2006,1893,4
1779267124.562505,1900,2119,4
1779267124.572605,2029,2142,4
1779267124.573094,2169,1930,4
1779267124.573782,2026,2026,4
1779267124.574205,2096,2103,4
1779267124.578064,2185,2051,4
1779267124.578454,2023,1726,4
1779267124.5785651,2078,1924,4
1779267124.5786612,2080,2003,4
1779267124.5787468,2099,2036,4
1779267124.578819,2044,2081,4
1779267124.578919,2088,1912,4
1779267124.57903,2114,1965,4
1779267124.58039,2052,2002,4
1779267124.5817978,2061,1857,4
1779267124.5844638,2086,1496,4
1779267124.5913758,2018,1892,4
1779267124.592923,2039,2188,4
1779267124.596587,2091,2045,4
1779267124.597356,2114,1940,4
1779267124.602397,2066,1829,4
1779267124.603302,2074,1830,4
1779267124.608726,2094,2043,4
1779267124.609169,2048,2158,4
1779267124.609619,2008,2105,4
1779267124.612642,2010,2297,4
1779267124.613376,2071,2253,4
1779267124.613708,2031,2144,4
1779267124.613785,2077,2140,4
1779267124.6138618,2139,2203,4
1779267124.6139321,2074,2249,4
1779267124.621281,2026,2338,4
1779267124.622846,1925,2335,4
1779267124.624479,1984,2537,4
1779267124.625333,2139,2661,4
1779267124.630765,2138,2356,4
1779267124.6338408,2432,2319,4
1779267124.634123,1623,2407,4
1779267124.634451,1705,2191,4
1779267124.6399848,3116,1851,4
1779267124.640735,2917,2241,4
1779267124.641063,1199,2593,4
1779267124.644647,1376,2594,4
1779267124.645092,2329,2790,4
1779267124.645171,3047,2167,4
1779267124.6452422,2362,2119,4
1779267124.6465979,1329,2668,4
1779267124.6479628,1690,2181,4
1779267124.650738,2021,2056,4
1779267124.65253,2028,2221,4
1779267124.6589818,1909,2531,4
1779267124.66341,1780,2437,4
1779267124.664171,1392,2233,4
1779267124.666091,3486,2241,4
1779267124.667128,3055,2269,4
1779267124.668013,2629,2609,4
1779267124.6702678,1056,2218,4
1779267124.675717,1799,2016,4
1779267124.6761222,2549,2372,4
1779267124.676569,2284,2507,4
1779267124.676939,1888,2414,4
1779267124.677299,1710,2239,4
1779267124.680843,1416,2335,4
1779267124.681254,1648,2209,4
1779267124.6827662,1968,2036,4
1779267124.690173,2123,1951,4
1779267124.691778,2164,2130,4
1779267124.6931782,2074,2174,4
1779267124.695633,1986,1944,4
1779267124.696085,1875,1753,4
1779267124.696427,1800,1722,4
1779267124.6988559,1775,1830,4
1779267124.699862,1925,1772,4
1779267124.702165,2021,1584,4
1779267124.707687,2040,1969,4
1779267124.708148,2040,2295,4
1779267124.711244,2018,2058,4
1779267124.7126021,1953,1676,4
1779267124.712676,1861,1736,4
1779267124.712738,1829,1922,4
1779267124.714093,1939,1959,4
1779267124.716816,1974,1850,4
1779267124.718213,1994,2108,4
1779267124.72573,2030,2135,4
1779267124.7264938,2069,2105,4
1779267124.730508,1984,2118,4
1779267124.733301,2032,1866,4
1779267124.733711,1932,1871,4
1779267124.736448,1998,1959,4
1779267124.736552,2076,1702,4
1779267124.745621,2040,1836,4
1779267124.7461052,2004,2038,4
1779267124.7462552,2056,2182,4
1779267124.746372,2103,1994,4
1779267124.746498,2109,1843,4
1779267124.746635,2101,1849,4
1779267124.746708,1876,1939,4
1779267124.748218,2043,2014,4
1779267124.7560651,2072,1917,4
1779267124.7562811,1909,1902,4
1779267124.757778,1987,2189,4
1779267124.758081,2353,2068,4
1779267124.7606459,2203,1945,4
1779267124.7612019,2048,1924,4
1779267124.7643661,2025,2247,4
1779267124.764724,2089,2095,4
1779267124.772089,2405,1946,4
1779267124.772295,2046,2071,4
1779267124.772971,1944,2181,4
1779267124.77677,2127,2385,4
1779267124.7768698,2141,2165,4
1779267124.776949,1940,1830,4
1779267124.778854,2016,1941,4
1779267124.780378,1990,2011,4
1779267124.781793,2175,2157,4
1779267124.789369,2272,2115,4
1779267124.7909591,1884,1964,4
1779267124.794198,2454,2226,4
1779267124.79454,2357,2307,4
1779267124.7950132,1866,2058,4
1779267124.795402,2018,1892,4
1779267124.798329,2246,1995,4
1779267124.800543,2294,1879,4
1779267124.805599,2181,1963,4
1779267124.80612,1879,2134,4
1779267124.806477,1843,2283,4
1779267124.8066251,2061,2152,4
1779267124.809385,2119,2105,4
1779267124.811281,2217,1946,4
1779267124.8129978,2261,2140,4
1779267124.820501,2031,2122,4
1779267124.82145,2034,2172,4
1779267124.822908,2032,2210,4
1779267124.825165,2063,2221,4
1779267124.82572,2011,2427,4
1779267124.828042,2226,2249,4
1779267124.830644,2260,2090,4
1779267124.8310459,1965,2268,4
1779267124.8363168,1922,2436,4
1779267124.836681,2222,2329,4
1779267124.83729,2336,2163,4
1779267124.8378098,2068,2136,4
1779267124.838172,2067,2404,4
1779267124.840734,1946,2410,4
1779267124.8419032,2161,2238,4
1779267124.844548,2135,2175,4
1779267124.84593,2059,2263,4
1779267124.8544672,2108,2072,4
1779267124.856029,2093,2152,4
1779267124.858158,1990,2388,4
1779267124.86065,1975,2399,4
1779267124.861095,2090,2261,4
1779267124.864137,2239,2091,4
1779267124.866017,2364,2083,4
1779267124.872106,2015,2243,4
1779267124.8726091,2042,2118,4
1779267124.872897,2056,2200,4
1779267124.8731341,2012,2429,4
1779267124.873701,1982,2574,4
1779267124.877376,1970,2599,4
1779267124.8782809,1899,2383,4
1779267124.878554,2332,2394,4
1779267124.878927,2384,2291,4
1779267124.880277,1939,2427,4
1779267124.891583,2052,2019,4
1779267124.89537,2043,2318,4
1779267124.895568,2063,2567,4
1779267124.896043,2091,2484,4
1779267124.898323,2376,2392,4
1779267124.899904,2155,2334,4
1779267124.902154,1741,2342,4
1779267124.902473,1906,2422,4
1779267124.9027379,2131,2159,4
1779267124.9030871,2094,2068,4
1779267124.909207,2094,2376,4
1779267124.909618,2087,2540,4
1779267124.910076,2096,2539,4
1779267124.9104562,1950,2337,4
1779267124.910772,1808,2028,4
1779267124.9150772,2221,2242,4
1779267124.915329,2518,2215,4
1779267124.9166908,1999,2099,4
1779267124.918035,1988,2242,4
1779267124.920946,2029,2222,4
1779267124.922295,2092,2300,4
1779267124.934023,2056,1946,4
1779267124.93688,2146,1993,4
1779267124.937453,1972,2092,4
1779267124.940037,2057,2122,4
1779267124.9410791,1964,1871,4
1779267124.9413261,2095,2032,4
1779267124.943912,2069,2102,4
1779267124.9441202,1995,2269,4
1779267124.950301,2195,2170,4
1779267124.954493,2005,2069,4
1779267124.955529,2024,2023,4
1779267124.956018,1907,2113,4
1779267124.956206,2190,1970,4
1779267124.956338,2091,1964,4
1779267124.956408,2093,1986,4
1779267124.9565089,1934,2297,4
1779267124.956577,2033,2107,4
1779267124.958315,2166,1994,4
1779267124.9671218,2095,2058,4
1779267124.968682,2031,2173,4
1779267124.969555,2017,2401,4
1779267124.9724731,2015,2185,4
1779267124.972882,1960,2212,4
1779267124.973313,1970,2416,4
1779267124.9764009,2095,2632,4
1779267124.976801,2114,2363,4
1779267124.980254,2104,2316,4
1779267124.987186,2020,2485,4
1779267124.991868,2037,2431,4
1779267124.991969,2012,2496,4
1779267124.992044,2007,2424,4
1779267124.992162,2010,2645,4
1779267124.992233,2063,2600,4
1779267124.9923,2098,2528,4
1779267124.992363,2114,2342,4
1779267124.995073,2089,2316,4
1779267124.996499,2098,2360,4
1779267124.997906,2044,2284,4
1779267125.0011148,1997,2362,4
1779267125.009238,2002,2538,4
1779267125.01045,2031,2870,4
1779267125.011274,2063,2746,4
1779267125.014095,2052,2569,4
1779267125.014455,2075,2443,4
1779267125.014622,2021,2609,4
1779267125.014786,2070,2489,4
1779267125.017571,2072,2342,4
1779267125.020809,1996,2611,4
1779267125.026796,2006,2819,4
1779267125.027339,2110,2876,4
1779267125.027842,2109,2752,4
1779267125.028097,2059,2747,4
1779267125.0284731,1988,2848,4
1779267125.032974,2065,2676,4
1779267125.033064,2054,2472,4
1779267125.034454,1988,2694,4
1779267125.0359402,2028,2916,4
1779267125.043653,2083,2843,4
1779267125.0447512,2049,2737,4
1779267125.045811,2038,2653,4
1779267125.0466208,2015,2701,4
1779267125.049322,2053,2591,4
1779267125.05366,2029,2272,4
1779267125.054019,1900,2569,4
1779267125.056567,2117,2757,4
1779267125.062567,2046,3124,4
1779267125.06283,2162,2906,4
1779267125.0632691,2157,2756,4
1779267125.0638368,2104,2929,4
1779267125.064171,2123,3022,4
1779267125.064411,2125,2915,4
1779267125.0687811,2102,2864,4
1779267125.068885,1984,3263,4
1779267125.07027,2022,3921,4
1779267125.07298,2130,3617,4
1779267125.074833,2092,3273,4
1779267125.076226,2026,3255,4
1779267125.087439,2033,3487,4
1779267125.090513,1996,3080,4
1779267125.090828,1733,2559,4
1779267125.0913439,1796,2613,4
1779267125.0951319,2272,2996,4
1779267125.095413,2235,3173,4
1779267125.095665,2037,2840,4
1779267125.095978,1876,2536,4
1779267125.104274,2041,3077,4
1779267125.104813,2376,2784,4
1779267125.105119,2482,1978,4
1779267125.105587,2008,1813,4
1779267125.105969,1815,2112,4
1779267125.106348,1897,2680,4
1779267125.106671,2243,2509,4
1779267125.1107461,1870,2369,4
1779267125.111091,1821,2118,4
1779267125.113013,2156,2059,4
1779267125.114767,2218,1534,4
1779267125.1213849,2194,1466,4
1779267125.121727,1872,1775,4
1779267125.124137,2001,2182,4
1779267125.124417,2061,2256,4
1779267125.1279519,1775,2226,4
1779267125.128129,1922,2163,4
1779267125.128453,1281,2125,4
1779267125.131433,1041,1999,4
1779267125.134583,2187,1567,4
1779267125.1403542,1919,1704,4
1779267125.141286,2664,2377,4
1779267125.141567,2432,2534,4
1779267125.1419961,1992,2207,4
1779267125.1421912,1969,1809,4
1779267125.14626,2289,1578,4
1779267125.146482,2201,1553,4
1779267125.1491861,2158,1256,4
1779267125.150548,1690,1660,4
1779267125.1520178,1667,1776,4
1779267125.1546729,1807,2484,4
1779267125.162084,2160,2283,4
1779267125.16448,1244,2076,4
1779267125.165727,1669,1869,4
1779267125.169603,2136,1980,4
1779267125.170002,2418,1363,4
1779267125.172978,1647,1807,4
1779267125.17426,1170,1561,4
1779267125.176748,1258,2236,4
1779267125.177087,1876,2045,4
1779267125.182863,2215,1742,4
1779267125.183556,2336,1444,4
1779267125.184043,2088,1405,4
1779267125.184735,1955,953,4
1779267125.185014,1580,1727,4
1779267125.1884851,2146,1726,4
1779267125.189413,1914,1581,4
1779267125.1898618,1659,2011,4
1779267125.1899729,1229,1840,4
1779267125.192684,1909,1500,4
1779267125.201443,2330,1392,4
1779267125.20254,1738,1129,4
1779267125.2042382,1900,1513,4
1779267125.20442,1490,1846,4
1779267125.207556,2021,1231,4
1779267125.207943,2089,2154,4
1779267125.208352,2467,2054,4
1779267125.208585,1728,1734,4
1779267125.220717,1545,1370,4
1779267125.22106,2656,1088,4
1779267125.2214642,1469,1266,4
1779267125.2218082,945,1920,4
1779267125.2220979,1633,1543,4
1779267125.2224362,2052,1807,4
1779267125.222788,1795,2053,4
1779267125.227508,1727,1826,4
1779267125.227608,1643,1540,4
1779267125.229055,1463,1463,4
1779267125.2304971,2266,881,4
1779267125.233154,2151,1876,4
1779267125.234561,2286,1811,4
1779267125.236063,2202,1417,4
1779267125.243505,2089,2160,4
1779267125.24643,2256,1932,4
1779267125.248718,1433,1646,4
1779267125.2517362,2074,1491,4
1779267125.2543721,2262,941,4
1779267125.259056,2093,1689,4
1779267125.259304,1941,1988,4
1779267125.2597709,1987,1276,4
1779267125.260135,2105,2230,4
1779267125.260579,2262,2033,4
1779267125.2639308,2105,1741,4
1779267125.264512,2037,1514,4
1779267125.264607,2050,1393,4
1779267125.264718,1930,1355,4
1779267125.266169,2159,2055,4
1779267125.2742841,2076,1651,4
1779267125.275721,1954,2270,4
1779267125.27876,1961,2449,4
1779267125.282263,2090,1980,4
1779267125.2885902,1947,1759,4
1779267125.2889102,1892,1660,4
1779267125.289315,2215,1012,4
1779267125.2896068,1975,2057,4
1779267125.29005,1913,1947,4
1779267125.290402,1899,1878,4
1779267125.293841,1974,2496,4
1779267125.2940621,1976,2097,4
1779267125.294168,1881,1895,4
1779267125.294244,1951,1731,4
1779267125.296907,1793,1223,4
1779267125.2982662,1887,1886,4
1779267125.3012018,2123,2159,4
1779267125.307148,1760,1435,4
1779267125.308695,1887,2585,4
1779267125.3116002,2051,2312,4
1779267125.3119922,1976,1795,4
1779267125.312278,1858,1897,4
1779267125.3147578,1891,1660,4
1779267125.3156009,1857,1538,4
1779267125.3222651,1627,2269,4
1779267125.3226109,1681,1787,4
1779267125.322867,1908,2636,4
1779267125.323216,2281,2600,4
1779267125.326925,1908,1805,4
1779267125.3269958,1573,2092,4
1779267125.3283288,1729,2045,4
1779267125.335809,1948,1121,4
1779267125.3376331,1894,2239,4
1779267125.337858,1881,2118,4
1779267125.340023,1735,2412,4
1779267125.340381,2065,2841,4
1779267125.340749,1951,1925,4
1779267125.3453481,1878,1871,4
1779267125.3542552,1692,2163,4
1779267125.354583,2051,1583,4
1779267125.354691,1781,1982,4
1779267125.354761,1803,2286,4
1779267125.354826,1933,1990,4
1779267125.354895,1744,3003,4
1779267125.356292,1696,2228,4
1779267125.358955,1789,1750,4
1779267125.360288,2010,2200,4
1779267125.362874,1908,1953,4
1779267125.368714,1984,1594,4
1779267125.370214,1785,2343,4
1779267125.370922,1884,1841,4
1779267125.373138,1814,2982,4
1779267125.375668,1962,2644,4
1779267125.376408,1897,1741,4
1779267125.377902,1889,2091,4
1779267125.38225,1842,2076,4
1779267125.3826509,1930,1167,4
1779267125.383265,1786,2295,4
1779267125.386152,2036,2139,4
1779267125.3862138,1881,2594,4
1779267125.39396,1762,2936,4
1779267125.394588,1878,1865,4
1779267125.3952188,2002,1870,4
1779267125.396996,1873,2233,4
1779267125.397137,2069,1590,4
1779267125.3997838,1970,2041,4
1779267125.401582,2052,2303,4
1779267125.4057002,2086,2060,4
1779267125.4059122,2041,3065,4
1779267125.406145,1962,2169,4
1779267125.409237,1977,1739,4
1779267125.4105642,1971,2277,4
1779267125.413194,1820,2028,4
1779267125.414508,2149,1642,4
1779267125.419227,1967,2365,4
1779267125.4198909,1893,1830,4
1779267125.4214249,2017,3085,4
1779267125.423597,2025,2587,4
1779267125.425611,1814,1721,4
1779267125.427874,2099,2095,4
1779267125.432151,2022,2061,4
1779267125.432384,2183,1212,4
1779267125.4325702,1746,2315,4
1779267125.435503,1659,2129,4
1779267125.4368541,2189,2806,4
1779267125.442724,2092,3003,4
1779267125.443459,1538,1833,4
1779267125.444048,2118,1894,4
1779267125.4445891,2357,2345,4
1779267125.4465148,2129,1566,4
1779267125.448506,1930,2085,4
1779267125.454773,1954,2300,4
1779267125.455202,1867,2217,4
1779267125.455488,1977,3055,4
1779267125.4584808,2610,2124,4
1779267125.458543,1827,1748,4
1779267125.461139,1591,2261,4
1779267125.462461,2019,2005,4
1779267125.4691288,2337,1695,4
1779267125.4702778,1359,2361,4
1779267125.4709089,2370,1852,4
1779267125.471601,2641,3097,4
1779267125.473411,1675,2529,4
1779267125.4753861,1986,1721,4
1779267125.477501,2042,2119,4
1779267125.4815629,2080,2023,4
1779267125.482445,2051,1271,4
1779267125.485645,1874,2324,4
1779267125.485761,1890,2091,4
1779267125.487653,1956,2812,4
1779267125.499069,2006,2954,4
1779267125.5013928,2036,1814,4
1779267125.506221,1904,1921,4
1779267125.506769,1977,2212,4
1779267125.507734,1955,1438,4
1779267125.51118,2053,2126,4
1779267125.511265,2224,2272,4
1779267125.5113358,2098,2260,4
1779267125.5114062,1896,3025,4
1779267125.511477,1814,2076,4
1779267125.511539,1947,1769,4
1779267125.511598,2115,2256,4
1779267125.51296,2253,1952,4
1779267125.514166,2031,1756,4
1779267125.5168068,1887,2353,4
1779267125.5233622,1950,1903,4
1779267125.5270422,2078,3134,4
1779267125.529384,2059,2464,4
1779267125.531958,2106,1722,4
1779267125.5368881,2168,2219,4
1779267125.5376692,1972,2261,4
1779267125.540815,1793,1313,4
1779267125.541,1891,2338,4
1779267125.5410628,2098,2074,4
1779267125.5411682,1943,2902,4
1779267125.54128,2151,2922,4
1779267125.5414112,2058,1799,4
1779267125.542754,1972,1936,4
1779267125.550175,2097,2292,4
1779267125.5523682,2179,1487,4
1779267125.5527308,2058,2144,4
1779267125.552983,1944,2269,4
1779267125.5552158,2001,2351,4
1779267125.5559838,2041,3126,4
1779267125.55775,2068,2044,4
1779267125.562288,2001,1776,4
1779267125.562915,1911,2302,4
1779267125.563346,2183,1928,4
1779267125.565758,1917,1792,4
1779267125.5671349,1997,2355,4
1779267125.568558,2042,1903,4
1779267125.571203,2148,3170,4
1779267125.5728729,1971,2426,4
1779267125.5787442,2097,1717,4
1779267125.578945,1940,2123,4
1779267125.5818508,1899,2045,4
1779267125.582486,2077,1376,4
1779267125.5869062,2008,2338,4
1779267125.591489,1939,2020,4
1779267125.591914,1968,2939,4
1779267125.59259,2032,2854,4
1779267125.593056,2144,1787,4
1779267125.5932422,1939,1977,4
1779267125.596341,1859,2349,4
1779267125.596498,1954,1544,4
1779267125.6056042,2357,2163,4
1779267125.6079519,2072,2247,4
1779267125.6105878,2023,2519,4
1779267125.6108658,2041,3103,4
1779267125.6169548,2105,2018,4
1779267125.6175659,2173,1805,4
1779267125.6183228,2096,2343,4
1779267125.6185029,1990,1836,4
1779267125.621825,2031,1837,4
1779267125.621949,2020,2342,4
1779267125.622028,1927,2102,4
1779267125.6221042,1960,3156,4
1779267125.6222122,2010,2375,4
1779267125.6248698,1985,1742,4
1779267125.626327,2068,2314,4
1779267125.635356,2112,2185,4
1779267125.6373901,2023,1417,4
1779267125.6379368,2053,2346,4
1779267125.63822,1965,1996,4
1779267125.638533,1817,3133,4
1779267125.640552,1935,2797,4
1779267125.6471198,1966,1775,4
1779267125.6480691,2025,2012,4
1779267125.648679,2155,2417,4
1779267125.6489222,1990,1536,4
1779267125.652003,1808,2187,4
1779267125.652334,2018,2233,4
1779267125.652423,2184,2712,4
1779267125.660671,2132,3253,4
1779267125.661952,1967,1971,4
1779267125.663929,1951,1831,4
1779267125.664258,2090,2432,4
1779267125.668868,2229,1971,4
1779267125.6692631,1543,1878,4
1779267125.676736,1722,2338,4
1779267125.677228,2958,2476,4
1779267125.677354,2281,3274,4
1779267125.677461,2038,2314,4
1779267125.6775591,1555,1773,4
1779267125.677658,1996,2403,4
1779267125.679051,2923,1982,4
1779267125.680437,2194,1510,4
1779267125.6830761,1510,2339,4
1779267125.689098,1284,1908,4
1779267125.692828,2419,2808,4
1779267125.693332,3787,2742,4
1779267125.69506,1190,1762,4
1779267125.702646,1019,2043,4
1779267125.702917,2399,2197,4
1779267125.7032142,2425,1418,4
1779267125.7057679,1851,2227,4
1779267125.70641,2053,2192,4
1779267125.706718,2124,2632,4
1779267125.7068229,1932,3088,4
1779267125.706939,1766,1930,4
1779267125.7083259,2413,1848,4
1779267125.714837,2284,2289,4
1779267125.715797,2113,1708,4
1779267125.716534,2995,1949,4
1779267125.718826,2390,2318,4
1779267125.71934,1609,1920,4
1779267125.721884,2073,3022,4
1779267125.7236228,2407,2277,4
1779267125.729172,2138,1729,4
1779267125.730083,2143,2300,4
1779267125.733402,2197,2062,4
1779267125.7335,2194,1531,4
1779267125.733642,2148,2365,4
1779267125.734993,2239,1925,4
1779267125.736376,2374,2960,4
1779267125.7390358,2425,2710,4
1779267125.7464871,2515,1743,4
1779267125.747304,2558,2041,4
1779267125.751762,2471,2214,4
1779267125.752523,2375,1289,4
1779267125.752876,2507,2260,4
1779267125.754949,2694,2197,4
1779267125.759815,2608,2650,4
1779267125.760329,2575,3085,4
1779267125.760719,2491,1908,4
1779267125.764,2439,1841,4
1779267125.7641768,2696,2361,4
1779267125.7643142,2611,1408,4
1779267125.764448,2514,2011,4
1779267125.7730849,2566,2332,4
1779267125.7754009,2480,2291,4
1779267125.778353,2421,3389,4
1779267125.78003,2398,2173,4
1779267125.785137,2491,1743,4
1779267125.785596,2481,2307,4
1779267125.786052,2396,1974,4
1779267125.786348,2355,1648,4
1779267125.786654,2038,2365,4
1779267125.789645,1743,1825,4
1779267125.79003,2727,2865,4
1779267125.790115,2654,2607,4
1779267125.791508,2847,1724,4
1779267125.792873,2977,2100,4
1779267125.795289,2602,2365,4
1779267125.802739,2488,1318,4
1779267125.805208,2613,2298,4
1779267125.805564,2776,2172,4
1779267125.807754,2286,2774,4
1779267125.810067,2289,3106,4
1779267125.814879,2429,1857,4
1779267125.815265,2349,1866,4
1779267125.816087,2702,2293,4
1779267125.816415,2324,1829,4
1779267125.816789,2483,2025,4
1779267125.8170922,2477,2314,4
1779267125.820299,2645,2259,4
1779267125.8203971,2077,3268,4
1779267125.829043,2303,2163,4
1779267125.831585,2305,1749,4
1779267125.831933,1913,2197,4
1779267125.832395,2301,1989,4
1779267125.834518,1885,1656,4
1779267125.835364,2315,2350,4
1779267125.837226,2318,1798,4
1779267125.842039,2552,2769,4
1779267125.842307,2596,2518,4
1779267125.8428411,2441,1734,4
1779267125.843531,2435,1759,4
1779267125.846412,2184,1702,4
1779267125.846733,2271,1230,4
1779267125.849365,2115,2271,4
1779267125.8507252,2124,2052,4
1779267125.8584561,2052,2136,4
1779267125.859647,2161,3068,4
1779267125.8599198,1557,1854,4
1779267125.862422,2376,1826,4
1779267125.865737,2337,1533,4
1779267125.8679008,2191,912,4
1779267125.8741162,2554,2140,4
1779267125.87464,2817,2218,4
1779267125.875167,2456,1381,4
1779267125.878231,2353,2252,4
1779267125.878489,2505,1893,4
1779267125.878592,2197,1493,4
1779267125.878687,2370,1597,4
1779267125.878836,2124,1614,4
1779267125.888461,2046,1666,4
1779267125.8908648,2164,2258,4
1779267125.8933618,1806,1664,4
1779267125.894476,1906,2727,4
1779267125.896845,2822,1988,4
1779267125.9022799,2284,1700,4
1779267125.9027772,1992,1553,4
1779267125.90327,2383,1438,4
1779267125.903636,2490,1234,4
1779267125.903988,2278,2156,4
1779267125.906338,2114,1892,4
1779267125.907192,2318,2214,4
1779267125.9072719,2321,2205,4
1779267125.9073431,2198,1932,4
1779267125.908473,2268,1807,4
1779267125.911144,2116,1883,4
1779267125.9126241,2247,1426,4
1779267125.919679,2050,1948,4
1779267125.921203,1863,2116,4
1779267125.924524,2213,2336,4
1779267125.9249432,2196,2703,4
1779267125.927517,2395,2224,4
1779267125.9293828,2375,1897,4
1779267125.934585,1716,1928,4
1779267125.935068,1729,1763,4
1779267125.9352589,2143,1668,4
1779267125.9355361,2294,2211,4
1779267125.936157,2055,1949,4
1779267125.936665,2028,2807,4
1779267125.939359,2076,2533,4
1779267125.940724,1959,1831,4
1779267125.9493172,1861,2084,4
1779267125.950052,2185,2209,4
1779267125.950809,2166,1655,4
1779267125.9536,2071,2200,4
1779267125.9542,2110,2017,4
1779267125.954665,1935,2924,4
1779267125.957705,1670,2549,4
1779267125.9598238,1881,1935,4
1779267125.965716,2007,1971,4
1779267125.966439,1911,2300,4
1779267125.966922,1869,2037,4
1779267125.967366,1859,1966,4
1779267125.967747,1900,2175,4
1779267125.971298,1932,2794,4
1779267125.971555,2502,2776,4
1779267125.9729311,2287,2216,4
1779267125.9743402,2206,1880,4
1779267125.9770062,1973,2234,4
1779267125.985068,2097,2397,4
1779267125.9858391,2045,2100,4
1779267125.986944,1899,2232,4
1779267125.98954,1991,2791,4
1779267125.9898791,2096,3235,4
1779267125.999947,2164,2625,4
1779267126.000557,1886,1948,4
1779267126.000942,1884,2158,4
1779267126.0013728,2105,2418,4
1779267126.001834,1916,2018,4
1779267126.004606,2065,2069,4
1779267126.005753,2005,2637,4
1779267126.00586,1899,3245,4
1779267126.005934,2273,2953,4
1779267126.007275,2010,2062,4
1779267126.01892,1988,1814,4
1779267126.019745,2072,2652,4
1779267126.033665,2101,2466,4
1779267126.034741,2141,1975,4
1779267126.0348318,2097,2094,4
1779267126.03491,1930,2770,4
1779267126.034979,2202,2938,4
1779267126.035042,2060,2323,4
1779267126.035106,1759,1999,4
1779267126.035172,1660,1908,4
1779267126.0352361,2070,2202,4
1779267126.035295,2223,1859,4
1779267126.0353541,1996,2067,4
1779267126.035413,2058,2313,4
1779267126.036787,2051,2801,4
1779267126.038354,2103,2213,4
1779267126.0412369,1920,1924,4
1779267126.056448,1642,1929,4
1779267126.062994,2235,1967,4
1779267126.063191,2003,1769,4
1779267126.063497,1874,2000,4
1779267126.066723,2071,2273,4
1779267126.0668259,1486,2837,4
1779267126.066902,2047,2217,4
1779267126.066973,2377,1716,4
1779267126.067036,2030,1432,4
1779267126.0670981,2231,1838,4
1779267126.0671601,2024,1914,4
1779267126.067221,1982,1709,4
1779267126.067286,1982,2115,4
1779267126.068921,1996,2447,4
1779267126.079427,2035,2208,4
1779267126.0800488,1683,1752,4
1779267126.082525,2132,1514,4
1779267126.085362,2220,1868,4
1779267126.085742,1979,2147,4
1779267126.091875,1773,1962,4
1779267126.092164,1647,1966,4
1779267126.092673,2475,2641,4
1779267126.09303,2262,2605,4
1779267126.093238,1993,1881,4
1779267126.093486,2114,1708,4
1779267126.096252,1930,1925,4
1779267126.097091,2177,2270,4
1779267126.0975602,1952,1975,4
1779267126.098995,2218,2029,4
1779267126.100445,2751,2438,4
1779267126.10308,2122,2993,4
1779267126.104751,1253,2635,4
1779267126.11023,1714,2146,4
1779267126.1116931,1994,2018,4
1779267126.1124558,2126,2281,4
1779267126.115137,2303,2520,4
1779267126.1155899,1748,2485,4
1779267126.117873,1442,2812,4
1779267126.120417,1977,3144,4
1779267126.1265962,2293,3037,4
1779267126.1273751,1755,2363,4
1779267126.1277308,2443,2125,4
1779267126.12808,3288,2459,4
1779267126.131715,2668,2811,4
1779267126.1318028,2795,2338,4
1779267126.1333241,952,2371,4
1779267126.134752,1700,2781,4
1779267126.1411881,2093,2845,4
1779267126.142996,2023,2485,4
1779267126.1452842,1977,2374,4
1779267126.1455948,1272,2332,4
1779267126.145798,1441,2336,4
1779267126.157099,1729,2422,4
1779267126.161367,2271,2559,4
1779267126.161588,2299,2886,4
1779267126.161695,2344,3062,4
1779267126.161827,2328,2676,4
1779267126.1619148,2186,2353,4
1779267126.1619809,1951,2164,4
1779267126.162051,1977,2327,4
1779267126.16341,1439,2394,4
1779267126.164779,1497,2366,4
1779267126.1674721,2557,2478,4
1779267126.173933,2301,2712,4
1779267126.1753652,1616,2438,4
1779267126.1756978,2416,2169,4
1779267126.179164,2077,2093,4
1779267126.182923,1779,2274,4
1779267126.185066,1577,2332,4
1779267126.185246,1649,2239,4
1779267126.1854742,2269,2428,4
1779267126.1857321,2445,2551,4
1779267126.192437,1776,2623,4
1779267126.192755,2108,2260,4
1779267126.196154,2403,2200,4
1779267126.196498,1753,2129,4
1779267126.196594,1617,2279,4
1779267126.1968,1941,2045,4
1779267126.205295,1916,2135,4
1779267126.2062669,1876,2437,4
1779267126.207131,1615,2769,4
1779267126.2100322,1210,2509,4
1779267126.210453,1759,2283,4
1779267126.210942,1860,2152,4
1779267126.212831,1704,2323,4
1779267126.2136462,2219,2296,4
1779267126.222365,2197,2135,4
1779267126.222985,1899,2314,4
1779267126.223259,1813,2530,4
1779267126.2236102,2002,2484,4
1779267126.223768,2086,2342,4
1779267126.227384,1773,2189,4
1779267126.2274728,1997,2322,4
1779267126.229373,1915,2189,4
1779267126.23072,2060,1925,4
1779267126.233328,1748,2032,4
1779267126.2347672,1745,2344,4
1779267126.2483041,1684,2544,4
1779267126.2487879,2194,2449,4
1779267126.2527812,1652,2417,4
1779267126.255577,1729,2099,4
1779267126.255831,2062,1972,4
1779267126.2561421,2120,1960,4
1779267126.2635021,1705,2103,4
1779267126.2641249,1772,2296,4
1779267126.2645261,2158,2604,4
1779267126.26502,1611,2198,4
1779267126.265443,1962,1930,4
1779267126.269405,1900,1974,4
1779267126.2699258,1976,2186,4
1779267126.270011,1927,2093,4
1779267126.2700841,2029,1952,4
1779267126.270154,1846,2257,4
1779267126.2702231,1827,2635,4
1779267126.271562,1883,2578,4
1779267126.2729201,1905,2286,4
1779267126.280731,1673,1955,4
1779267126.2824671,2002,2153,4
1779267126.286502,1683,2289,4
1779267126.28977,2134,2143,4
1779267126.290072,2019,2283,4
1779267126.299874,1779,2541,4
1779267126.300378,2047,2472,4
1779267126.301078,1998,2240,4
1779267126.301319,2018,2127,4
1779267126.301666,1844,2136,4
1779267126.301879,1813,2120,4
1779267126.302203,2452,1854,4
1779267126.302583,2021,2043,4
1779267126.302809,1331,2161,4
1779267126.303078,1745,2463,4
1779267126.306203,2040,2228,4
1779267126.307578,1987,1926,4
1779267126.308913,1896,1983,4
1779267126.311567,2131,2027,4
1779267126.3129,1751,2081,4
1779267126.315783,1878,1907,4
1779267126.321768,1956,2098,4
1779267126.324517,2076,2413,4
1779267126.324789,1963,2459,4
1779267126.328935,2144,2047,4
1779267126.329219,1955,1996,4
1779267126.3297348,1990,2144,4
1779267126.3335118,2104,2278,4
1779267126.3359091,2040,1953,4
1779267126.33657,2066,1871,4
1779267126.336742,2022,2156,4
1779267126.344079,1941,2408,4
1779267126.344543,2059,2170,4
1779267126.3448582,2016,1991,4
1779267126.345238,1963,1945,4
1779267126.345557,1973,2141,4
1779267126.350063,2036,1729,4
1779267126.350537,1988,1837,4
1779267126.350732,1939,2254,4
1779267126.3534331,1951,2419,4
1779267126.361424,2046,1968,4
1779267126.3616168,2022,1908,4
1779267126.3638332,2024,1762,4
1779267126.3670442,2252,2281,4
1779267126.36726,2226,2062,4
1779267126.370002,2032,1667,4
1779267126.370314,2040,1896,4
1779267126.371242,2081,2381,4
1779267126.371491,2190,2293,4
1779267126.37368,2160,2227,4
1779267126.380873,2042,1878,4
1779267126.381428,2044,2043,4
1779267126.381845,2080,2120,4
1779267126.382675,2080,1949,4
1779267126.382903,2043,2333,4
1779267126.38707,1983,2687,4
1779267126.38751,2083,2593,4
1779267126.388902,2138,2337,4
1779267126.391616,2144,2167,4
1779267126.393122,2127,2217,4
1779267126.396271,2067,2456,4
1779267126.403146,1935,2011,4
1779267126.404146,1930,2077,4
1779267126.405865,1982,2723,4
1779267126.4060612,2101,2723,4
1779267126.4063601,2257,2405,4
1779267126.412807,2127,2320,4
1779267126.413208,1951,2361,4
1779267126.416687,1960,2581,4
1779267126.424129,2034,2398,4
1779267126.424439,2295,2170,4
1779267126.424893,2068,2342,4
1779267126.425248,1786,2660,4
1779267126.425527,2137,2559,4
1779267126.425822,2538,2062,4
1779267126.4261801,2777,2260,4
1779267126.4307148,1508,1957,4
1779267126.431155,2042,2063,4
1779267126.431228,2666,2112,4
1779267126.432607,1665,2495,4
1779267126.444122,1775,2692,4
1779267126.44515,1998,2716,4
1779267126.447872,2087,2389,4
1779267126.448082,2042,2121,4
1779267126.448568,1702,1998,4
1779267126.45166,2221,2285,4
1779267126.45264,2451,2131,4
1779267126.4551291,2406,1789,4
1779267126.455565,2051,2431,4
1779267126.462592,1494,2570,4
1779267126.4631438,1824,2162,4
1779267126.463666,3311,2005,4
1779267126.464235,2047,1998,4
1779267126.464494,2134,2068,4
1779267126.467995,2280,1882,4
1779267126.46891,2071,1721,4
1779267126.469344,1915,1949,4
1779267126.4694982,2081,2116,4
1779267126.470937,2208,2035,4
1779267126.473631,2037,1583,4
1779267126.475024,1886,1549,4
1779267126.477571,1840,1670,4
1779267126.4789681,1941,1607,4
1779267126.489366,1945,1324,4
1779267126.49243,2453,1269,4
1779267126.49299,2287,1898,4
1779267126.495244,2081,1896,4
1779267126.499501,2120,1504,4
1779267126.509401,1959,1261,4
1779267126.509957,1766,1519,4
1779267126.510051,2307,1642,4
1779267126.5101209,2192,1405,4
1779267126.510195,1950,1743,4
1779267126.5102699,1986,1772,4
1779267126.510347,2148,2014,4
1779267126.5104861,2158,1918,4
1779267126.510655,2133,1636,4
1779267126.510819,2051,1664,4
1779267126.5109088,1978,1689,4
1779267126.513685,2030,1731,4
1779267126.5260842,1939,1703,4
1779267126.526935,2080,2003,4
1779267126.5301929,2121,2181,4
1779267126.532505,1996,2127,4
1779267126.532943,2003,1899,4
1779267126.538579,2494,1821,4
1779267126.5389419,1853,2079,4
1779267126.539253,2140,1960,4
1779267126.5395148,2083,1921,4
1779267126.5400808,2024,2213,4
1779267126.540556,1996,2322,4
1779267126.543958,2088,2409,4
1779267126.544364,2132,2196,4
1779267126.54452,2087,1848,4
1779267126.544629,2016,1974,4
1779267126.544725,2061,2117,4
1779267126.5473459,2080,2025,4
1779267126.548759,1998,2122,4
1779267126.552036,2112,2427,4
1779267126.560437,2027,2553,4
1779267126.561316,2291,2211,4
1779267126.563854,2167,1936,4
1779267126.567286,2125,2105,4
1779267126.569161,2122,2389,4
1779267126.574701,2048,2108,4
1779267126.5750139,2118,1948,4
1779267126.57542,2044,2243,4
1779267126.575982,2154,2542,4
1779267126.57633,2057,2401,4
1779267126.576664,1935,1925,4
1779267126.579345,2165,2080,4
1779267126.580346,2230,2307,4
1779267126.580509,2292,2137,4
1779267126.580678,2155,2039,4
1779267126.583422,1865,2213,4
1779267126.588993,2060,2387,4
1779267126.5898979,2255,2388,4
1779267126.594167,2264,2225,4
1779267126.5946481,2065,1971,4
1779267126.597106,1846,2085,4
1779267126.604971,2036,2236,4
1779267126.60534,2143,2012,4
1779267126.605789,2135,2035,4
1779267126.606046,1889,2319,4
1779267126.606324,2099,2619,4
1779267126.60659,2325,2087,4
1779267126.60673,2211,2115,4
1779267126.609358,2151,2104,4
1779267126.610713,2080,2182,4
1779267126.613338,2019,2100,4
1779267126.614677,2117,2113,4
1779267126.622261,2158,2246,4
1779267126.623656,2027,2628,4
1779267126.624416,1956,2396,4
1779267126.627837,2030,2074,4
1779267126.629876,2046,2184,4
1779267126.630621,1943,2116,4
1779267126.6314812,2316,2107,4
1779267126.634113,2041,2263,4
1779267126.638918,2006,2195,4
1779267126.63961,2165,2406,4
1779267126.64014,2064,2312,4
1779267126.640401,2106,2188,4
1779267126.642945,2102,2070,4
1779267126.643123,1996,2240,4
1779267126.64574,2057,2170,4
1779267126.651785,2071,2128,4
1779267126.654281,1982,2081,4
1779267126.656147,1951,2369,4
1779267126.6581728,2123,2391,4
1779267126.658874,2200,2294,4
1779267126.6606982,2169,2075,4
1779267126.660862,2056,2058,4
1779267126.665465,2080,2129,4
1779267126.665844,2151,2114,4
1779267126.6664162,2087,2140,4
1779267126.669343,1969,2261,4
1779267126.6696599,2028,2520,4
1779267126.6709828,2234,2418,4
1779267126.673512,2125,2120,4
1779267126.6748421,1981,1984,4
1779267126.680917,2050,2096,4
1779267126.682067,2166,2187,4
1779267126.684624,2136,2003,4
1779267126.686499,2029,2318,4
1779267126.6871412,1922,2624,4
1779267126.689321,1988,2483,4
1779267126.689575,2085,2137,4
1779267126.694062,2133,2076,4
1779267126.6943,2080,2066,4
1779267126.697556,2081,2177,4
1779267126.6976142,2110,2157,4
1779267126.698933,2062,2040,4
1779267126.705487,2108,2296,4
1779267126.7082298,2109,2415,4
1779267126.708493,2086,2219,4
1779267126.708718,2046,2113,4
1779267126.71077,2032,2393,4
1779267126.7114198,2097,2276,4
1779267126.7172601,2045,2087,4
1779267126.717472,1950,2270,4
1779267126.717846,2040,2442,4
1779267126.7210062,2041,2445,4
1779267126.721107,2090,2296,4
1779267126.723716,2169,2301,4
1779267126.7250829,2070,2210,4
1779267126.7325308,2039,2321,4
1779267126.733203,2103,2211,4
1779267126.7338219,2041,2317,4
1779267126.736047,2030,2458,4
1779267126.736354,2045,2408,4
1779267126.740624,2108,2325,4
1779267126.7408729,2095,2375,4
1779267126.7410839,2063,2245,4
1779267126.745471,2018,2437,4
1779267126.74575,2103,2413,4
1779267126.7489111,2116,2229,4
1779267126.749098,2060,2358,4
1779267126.750666,2041,2580,4
1779267126.757695,2029,2786,4
1779267126.757855,2068,2581,4
1779267126.7598588,2051,2442,4
1779267126.761363,2036,2494,4
1779267126.761926,2025,2552,4
1779267126.768498,2093,2327,4
1779267126.772274,2020,2542,4
1779267126.772435,1994,2652,4
1779267126.772568,2059,2876,4
1779267126.7726772,2106,2730,4
1779267126.772799,2067,2492,4
1779267126.7755048,2032,2456,4
1779267126.7769248,2034,2892,4
1779267126.786752,2034,2805,4
1779267126.788862,2051,2520,4
1779267126.791199,2010,2675,4
1779267126.798007,2014,3099,4
1779267126.798458,2043,3286,4
1779267126.799108,2076,2852,4
1779267126.8022678,2061,2809,4
1779267126.8027232,2062,2857,4
1779267126.802881,2068,2772,4
1779267126.802988,2064,2631,4
1779267126.803085,1989,2698,4
1779267126.803156,2008,2998,4
1779267126.803263,2055,3067,4
1779267126.80464,2087,2836,4
1779267126.8109162,2062,2767,4
1779267126.813816,2063,2559,4
1779267126.8142521,2026,2672,4
1779267126.8188128,2073,2342,4
1779267126.823348,2026,2011,4
1779267126.82379,1999,2309,4
1779267126.8241642,2047,2393,4
1779267126.824646,2093,2156,4
1779267126.825022,2068,1994,4
1779267126.828038,2036,1937,4
1779267126.8283782,1947,1840,4
1779267126.829788,2076,1768,4
1779267126.831142,2066,1778,4
1779267126.833793,1942,2037,4
1779267126.839896,1816,2420,4
1779267126.841182,1980,2459,4
1779267126.841446,2276,2324,4
1779267126.842182,2057,2223,4
1779267126.848175,1979,2252,4
1779267126.848407,2114,2346,4
1779267126.8530009,2020,2181,4
1779267126.8534138,1984,2075,4
1779267126.853803,1862,2573,4
1779267126.854125,1945,2553,4
1779267126.857116,2030,2280,4
1779267126.857502,1638,2092,4
1779267126.859211,1989,2320,4
1779267126.864744,2296,2333,4
1779267126.865608,2052,1931,4
1779267126.8664808,1955,2042,4
1779267126.869547,1966,2370,4
1779267126.869928,2003,2715,4
1779267126.874275,2018,2576,4
1779267126.878432,2022,2225,4
1779267126.8789198,1895,2391,4
1779267126.87971,1879,2469,4
1779267126.8801332,1861,2269,4
1779267126.8833642,1851,2113,4
1779267126.883531,1816,2307,4
1779267126.8849752,1929,2767,4
1779267126.887645,2082,2867,4
1779267126.889007,2048,2515,4
1779267126.895094,1916,2580,4
1779267126.8989089,1486,2883,4
1779267126.899623,1535,2575,4
1779267126.9024608,2029,2288,4
1779267126.904362,1990,2512,4
1779267126.9086232,2002,2932,4
1779267126.9094532,2000,3104,4
1779267126.911726,1875,3008,4
1779267126.912725,2058,2748,4
1779267126.9128451,2155,2764,4
1779267126.912912,2187,2752,4
1779267126.912964,2083,2496,4
1779267126.9204748,1810,2298,4
1779267126.921762,1622,2796,4
1779267126.924592,2330,3054,4
1779267126.9261382,1990,2860,4
1779267126.926833,2068,2664,4
1779267126.927636,2440,2733,4
1779267126.9337192,1863,3057,4
1779267126.9340968,1748,2706,4
1779267126.934485,2116,2657,4
1779267126.9351501,1567,3164,4
1779267126.93792,1453,3858,4
1779267126.938207,2230,3518,4
1779267126.939735,2043,2869,4
1779267126.94095,1641,2897,4
1779267126.943887,1784,3317,4
1779267126.953971,1974,2567,4
1779267126.956165,2394,1970,4
1779267126.957039,2304,2163,4
1779267126.958957,1499,3212,4
1779267126.959306,1740,3649,4
1779267126.963566,2485,2757,4
1779267126.964145,1721,2573,4
1779267126.964687,1308,3038,4
1779267126.9678059,1643,2661,4
1779267126.968149,1917,1821,4
1779267126.968243,1978,1824,4
1779267126.968343,2215,2394,4
1779267126.969795,1974,3054,4
1779267126.97728,1910,2594,4
1779267126.979311,1924,2101,4
1779267126.97966,1956,1790,4
1779267126.982378,1844,1736,4
1779267126.988829,1870,1228,4
1779267126.989655,1735,1819,4
1779267126.990169,1715,1538,4
1779267126.9905229,1818,2312,4
1779267126.990942,2015,2032,4
1779267126.9939399,2103,1634,4
1779267126.994118,1877,1594,4
1779267126.9942348,1899,1533,4
1779267126.995622,1940,815,4
1779267126.9970932,1880,1767,4
1779267126.999806,1817,1733,4
1779267127.006777,1672,1306,4
1779267127.008655,1752,1861,4
1779267127.010807,1709,1747,4
1779267127.013068,1753,1455,4
1779267127.013831,1837,1063,4
1779267127.019619,1834,761,4
1779267127.0202181,1425,1550,4
1779267127.0207481,2085,1832,4
1779267127.021176,2098,1305,4
1779267127.0242429,1856,2199,4
1779267127.024686,2050,1738,4
1779267127.024815,2080,1511,4
1779267127.024891,1382,1228,4
1779267127.032278,1728,1134,4
1779267127.033563,2015,1255,4
1779267127.036309,1977,1843,4
1779267127.036861,2207,1447,4
1779267127.0412211,1950,1543,4
1779267127.045661,1564,1928,4
1779267127.046315,1462,1618,4
1779267127.0470972,1835,1433,4
1779267127.050097,2057,1532,4
1779267127.0506089,1811,834,4
1779267127.050776,2293,1783,4
1779267127.050872,2306,1725,4
1779267127.0509481,1644,1269,4
1779267127.053571,1308,2155,4
1779267127.054973,2030,1948,4
1779267127.06169,2735,1692,4
1779267127.06244,2400,1546,4
1779267127.063711,2008,948,4
1779267127.06436,1809,1634,4
1779267127.069021,1844,1941,4
1779267127.070841,2023,1259,4
1779267127.0710971,2057,2051,4
1779267127.0752761,2047,1980,4
1779267127.075783,2069,1870,4
1779267127.076229,1947,1680,4
1779267127.07949,1950,1205,4
1779267127.07955,1982,1319,4
1779267127.080916,1899,2038,4
1779267127.087552,1895,1659,4
1779267127.088897,1949,2099,4
1779267127.0918772,2035,2331,4
1779267127.094422,2053,2019,4
1779267127.096195,2024,1870,4
1779267127.096492,1984,1700,4
1779267127.100766,1978,940,4
1779267127.1012218,2031,2036,4
1779267127.101758,1927,1978,4
1779267127.101901,1970,1770,4
1779267127.105053,2021,2567,4
1779267127.105185,2163,2116,4
1779267127.107797,1771,1906,4
1779267127.109215,1895,1875,4
1779267127.116853,1955,1421,4
1779267127.12001,1962,1829,4
1779267127.120579,1936,2194,4
1779267127.123488,1913,1450,4
1779267127.125356,1976,2670,4
1779267127.130056,1845,2385,4
1779267127.1305568,1824,1782,4
1779267127.1310022,2318,1998,4
1779267127.131697,2082,1705,4
1779267127.134594,2003,1469,4
1779267127.135775,1915,2285,4
1779267127.1358678,1910,1868,4
1779267127.135979,2007,2509,4
1779267127.137404,2176,2684,4
1779267127.1387799,2285,1810,4
1779267127.144056,2038,1985,4
1779267127.1457942,1903,1919,4
1779267127.150604,1847,1033,4
1779267127.1527722,1901,2218,4
1779267127.157456,1895,2149,4
1779267127.157824,1994,2268,4
1779267127.1585448,2001,2935,4
1779267127.159028,2199,1951,4
1779267127.159362,1848,1841,4
1779267127.15994,1629,2040,4
1779267127.163427,1954,1496,4
1779267127.16385,2302,1960,4
1779267127.1652749,2077,2295,4
1779267127.167874,1990,1625,4
1779267127.169216,1994,2958,4
1779267127.174856,2062,2263,4
1779267127.176191,1922,1714,4
1779267127.176487,1770,2130,4
1779267127.179787,1892,1866,4
1779267127.180267,1884,1556,4
1779267127.185271,2039,2358,4
1779267127.1896698,2245,1894,4
1779267127.19028,2044,2829,4
1779267127.1909509,1905,2697,4
1779267127.191371,1826,1743,4
1779267127.191726,1916,2047,4
1779267127.19471,1970,2119,4
1779267127.194827,1771,1119,4
1779267127.203954,2301,2283,4
1779267127.207466,2280,2181,4
1779267127.207777,1880,2333,4
1779267127.211016,1728,2972,4
1779267127.2113621,2303,1892,4
1779267127.213276,2135,1821,4
1779267127.213811,2099,2308,4
1779267127.21967,2131,1736,4
1779267127.222494,1966,1981,4
1779267127.223598,1835,2342,4
1779267127.2237859,1809,1899,4
1779267127.223861,1925,3161,4
1779267127.223969,1987,2234,4
1779267127.2240472,2006,1706,4
1779267127.22545,2004,2314,4
1779267127.2268019,2046,1879,4
1779267127.2294452,2090,1580,4
1779267127.230981,1908,2386,4
1779267127.237432,1849,1911,4
1779267127.238357,1993,2884,4
1779267127.239274,2164,2681,4
1779267127.2416818,1913,1725,4
1779267127.242163,1900,2043,4
1779267127.24528,1889,2253,4
1779267127.247158,2230,1144,4
1779267127.2473972,2051,2297,4
1779267127.2528481,1824,2203,4
1779267127.255785,1996,2690,4
1779267127.2568362,2055,3126,4
1779267127.2569869,1962,1865,4
1779267127.2570748,2069,1836,4
1779267127.260084,2227,2328,4
1779267127.266811,2024,1629,4
1779267127.267704,1892,2026,4
1779267127.27058,2105,2336,4
1779267127.271018,1945,1953,4
1779267127.2734048,1942,3210,4
1779267127.276026,1998,2182,4
1779267127.2812932,2467,1710,4
1779267127.28176,2204,2430,4
1779267127.28219,1864,2034,4
1779267127.28259,1971,1616,4
1779267127.282815,1905,2399,4
1779267127.286243,1757,1899,4
1779267127.286339,1958,3128,4
1779267127.287698,2008,2622,4
1779267127.2891011,2020,1706,4
1779267127.2919412,2112,2071,4
1779267127.29363,1994,2232,4
1779267127.299788,2051,1157,4
1779267127.301464,2136,2320,4
1779267127.3044631,2118,2182,4
1779267127.305195,2007,2570,4
1779267127.3077,1836,3056,4
1779267127.315212,1698,1845,4
1779267127.315687,2339,1839,4
1779267127.315945,2120,2451,4
1779267127.3168871,1904,1649,4
1779267127.317216,2050,2043,4
1779267127.320399,2198,2349,4
1779267127.320877,2238,2203,4
1779267127.320957,1888,3487,4
1779267127.3210292,2065,2135,4
1779267127.323841,1980,1719,4
1779267127.3298922,1840,2174,4
1779267127.330684,1962,1828,4
1779267127.3341298,1952,1693,4
1779267127.33465,1878,2373,4
1779267127.3363972,2237,1798,4
1779267127.337774,2117,2902,4
1779267127.339772,1997,2561,4
1779267127.340111,2166,1708,4
1779267127.345259,2142,2121,4
1779267127.345812,1819,2161,4
1779267127.346119,1883,1224,4
1779267127.35007,1894,2330,4
1779267127.350579,1933,2139,4
1779267127.350972,1937,2516,4
1779267127.353484,2179,3011,4
1779267127.3548238,2141,1823,4
1779267127.362962,1934,1861,4
1779267127.364322,1982,2297,4
1779267127.365779,2018,1418,4
1779267127.3659909,2021,2098,4
1779267127.368284,2033,2322,4
1779267127.368785,1997,1939,4
1779267127.369036,1999,3192,4
1779267127.3714921,2095,2108,4
1779267127.3740742,2050,1710,4
1779267127.37952,1862,2451,4
1779267127.380024,1753,2012,4
1779267127.3804202,1835,1694,4
1779267127.384198,2254,2409,4
1779267127.3842921,2245,1846,4
1779267127.38574,2146,3214,4
1779267127.3871841,2021,2540,4
1779267127.394305,2093,1686,4
1779267127.397042,2081,2117,4
1779267127.399578,2047,2301,4
1779267127.39979,2049,1225,4
1779267127.407242,2000,2347,4
1779267127.408637,1950,2161,4
1779267127.4092422,1930,2822,4
1779267127.40962,1948,3020,4
1779267127.409921,1973,1811,4
1779267127.41036,2020,1874,4
1779267127.4136288,2085,2504,4
1779267127.413995,2124,1536,4
1779267127.4141152,1933,2101,4
1779267127.415483,1982,2335,4
1779267127.417418,1938,2118,4
1779267127.418766,2013,3394,4
1779267127.427459,2052,2086,4
1779267127.428952,2004,1718,4
1779267127.429873,1953,2525,4
1779267127.435179,2056,1882,4
1779267127.437322,2113,1733,4
1779267127.437668,2054,2414,4
1779267127.442862,2045,1820,4
1779267127.443475,2076,3307,4
1779267127.4438221,1979,2491,4
1779267127.4440708,2033,1676,4
1779267127.444496,2037,2144,4
1779267127.447256,2016,2329,4
1779267127.448621,2057,1265,4
1779267127.448746,2027,2362,4
1779267127.448813,2035,2147,4
1779267127.456737,1995,2952,4
1779267127.457782,2022,2981,4
1779267127.4582798,2006,1794,4
1779267127.464774,2092,1889,4
1779267127.4677088,2148,2622,4
1779267127.473515,2079,1646,4
1779267127.473931,1923,2111,4
1779267127.4767182,1907,2333,4
1779267127.477684,2053,2394,4
1779267127.4777951,2086,3491,4
1779267127.4778712,2065,2060,4
1779267127.477942,1987,1749,4
1779267127.4780102,2001,2600,4
1779267127.478078,1957,2105,4
1779267127.479451,1967,1741,4
1779267127.4808571,2004,2406,4
1779267127.483739,2272,1816,4
1779267127.490746,2152,3302,4
1779267127.491141,2089,2486,4
1779267127.492845,1983,1681,4
1779267127.4937348,2101,2159,4
1779267127.4975958,2239,2504,4
1779267127.5008519,1762,1258,4
1779267127.5020201,1936,2362,4
1779267127.504572,1939,2153,4
1779267127.510795,1891,3009,4
1779267127.511109,2176,2973,4
1779267127.5120041,2084,1799,4
1779267127.5125551,2017,1897,4
1779267127.51283,2094,2504,4
1779267127.513489,2089,1493,4
1779267127.51705,2138,2128,4
1779267127.518029,2109,2322,4
1779267127.5185149,2088,2280,4
1779267127.519979,1984,3438,4
1779267127.5214012,1923,2047,4
1779267127.529325,2039,1739,4
1779267127.5295858,2282,2594,4
1779267127.529836,1890,1901,4
1779267127.530741,2020,1776,4
1779267127.531701,2155,2411,4
1779267127.5352519,2014,1801,4
1779267127.537944,2065,3397,4
1779267127.5381372,2069,2440,4
1779267127.54159,1816,1672,4
1779267127.547863,1751,2182,4
1779267127.5484319,2940,2278,4
1779267127.548939,2375,1323,4
1779267127.549162,1797,2374,4
1779267127.549817,1924,2115,4
1779267127.554882,2164,2907,4
1779267127.554975,2418,2928,4
1779267127.5550468,2142,1777,4
1779267127.557945,1924,1910,4
1779267127.5594711,1986,2526,4
1779267127.560887,2114,1338,4
1779267127.570167,2160,2169,4
1779267127.5710762,2081,2316,4
1779267127.572075,1977,2349,4
1779267127.572358,2300,3359,4
1779267127.576376,2366,2011,4
1779267127.577008,2193,1742,4
1779267127.5774,2024,2548,4
1779267127.580985,2144,1935,4
1779267127.5836658,2228,1810,4
1779267127.5901692,2222,2405,4
1779267127.590537,2316,1775,4
1779267127.5910301,2359,3323,4
1779267127.591337,2386,2411,4
1779267127.5917299,2289,1670,4
1779267127.592202,2287,2203,4
1779267127.596852,2430,2218,4
1779267127.59695,2488,1356,4
1779267127.597025,2527,2381,4
1779267127.600406,2593,2096,4
1779267127.607408,2758,2941,4
1779267127.608978,2821,2893,4
1779267127.612766,2701,1767,4
1779267127.613068,2691,1924,4
1779267127.616307,2570,2622,4
1779267127.6202571,2647,1421,4
1779267127.620847,2494,2174,4
1779267127.627109,2506,2315,4
1779267127.627745,2706,2430,4
1779267127.627987,2624,3421,4
1779267127.628319,2343,1999,4
1779267127.6288588,2249,1752,4
1779267127.631753,2703,2657,4
1779267127.6327622,2587,1943,4
1779267127.6328619,2618,1824,4
1779267127.63295,2563,2412,4
1779267127.633023,2343,1839,4
1779267127.6356428,2594,3453,4
1779267127.63698,2651,2387,4
1779267127.6395872,2480,1669,4
1779267127.647906,2238,2227,4
1779267127.6489,2341,2331,4
1779267127.649878,2422,1370,4
1779267127.650121,2546,2386,4
1779267127.650999,2230,2091,4
1779267127.651884,2489,3107,4
1779267127.6551418,2643,2865,4
1779267127.655412,2380,1761,4
1779267127.658133,2162,1941,4
1779267127.66782,2449,2564,4
1779267127.668076,2497,1423,4
1779267127.6683578,2232,2187,4
1779267127.668743,1935,2298,4
1779267127.6690712,2014,2597,4
1779267127.669524,2428,3209,4
1779267127.673907,2285,2001,4
1779267127.6740339,2229,1777,4
1779267127.6753752,2122,2382,4
1779267127.6767628,2278,1722,4
1779267127.690343,2448,1858,4
1779267127.694062,2201,2369,4
1779267127.695252,2225,1718,4
1779267127.697542,2501,3206,4
1779267127.697931,2393,2364,4
1779267127.698344,2113,1685,4
1779267127.698503,2237,2242,4
1779267127.705239,2448,1904,4
1779267127.7055411,2436,1442,4
1779267127.705763,2010,2380,4
1779267127.7062001,2214,2021,4
1779267127.706642,2096,2867,4
1779267127.707115,2114,2602,4
1779267127.707406,2406,1771,4
1779267127.7076359,2441,1927,4
1779267127.711096,2135,1775,4
1779267127.712376,2362,1152,4
1779267127.713918,2429,2218,4
1779267127.71537,2268,2199,4
1779267127.7167659,2184,1935,4
1779267127.72016,1963,2395,4
1779267127.729801,2021,1938,4
1779267127.7307572,1860,1526,4
1779267127.7310889,2314,1491,4
1779267127.731895,2463,1134,4
1779267127.734848,1949,1866,4
1779267127.7352269,1796,2236,4
1779267127.735544,2017,1463,4
1779267127.738399,2289,2396,4
1779267127.741407,2206,1872,4
1779267127.741664,2085,1496,4
1779267127.749077,1852,1311,4
1779267127.750219,1987,1304,4
1779267127.7540631,1951,1405,4
1779267127.755355,2048,2151,4
1779267127.7559412,2130,1741,4
1779267127.75602,2230,1786,4
1779267127.7560902,2209,2128,4
1779267127.7561622,1927,1854,4
1779267127.75752,1919,1428,4
1779267127.758992,2345,1812,4
1779267127.767272,2217,1511,4
1779267127.768876,1905,1950,4
1779267127.769151,2094,2002,4
1779267127.770192,2408,2342,4
1779267127.773193,2410,2674,4
1779267127.776376,2269,2186,4
1779267127.7800598,2121,1887,4
1779267127.787275,1988,1906,4
1779267127.7877278,2117,1726,4
1779267127.788484,2162,1729,4
1779267127.7888901,2270,2148,4
1779267127.789197,2409,2010,4
1779267127.793167,2259,2574,4
1779267127.793625,2182,2273,4
1779267127.79382,2347,1883,4
1779267127.7939048,2396,1878,4
1779267127.7940009,2240,2032,4
1779267127.7953532,2249,1564,4
1779267127.7967548,2236,2156,4
1779267127.799285,2062,2099,4
1779267127.800802,1909,2923,4
1779267127.8172128,2196,2720,4
1779267127.8257291,2202,1934,4
1779267127.8264089,2305,1962,4
1779267127.827165,2138,2223,4
1779267127.8277252,2089,2114,4
1779267127.831268,2275,1995,4
1779267127.831424,2410,2115,4
1779267127.831535,2085,2766,4
1779267127.831639,2039,2725,4
1779267127.831746,1968,2152,4
1779267127.831904,2022,1929,4
1779267127.831979,2065,2270,4
1779267127.832047,2026,2317,4
1779267127.832225,2046,1835,4
1779267127.832408,2018,2172,4
1779267127.8338869,1978,2866,4
1779267127.8402822,1965,3131,4
1779267127.841616,2085,2455,4
1779267127.844558,2031,1941,4
1779267127.84741,1945,2178,4
1779267127.855687,2126,2306,4
1779267127.8563101,2137,2001,4
1779267127.856898,1748,2111,4
1779267127.859828,1877,2519,4
1779267127.860935,2135,3036,4
1779267127.861373,2103,2640,4
1779267127.861529,2013,2019,4
1779267127.8615942,1815,2080,4
1779267127.861656,1921,2401,4
1779267127.8617148,1968,2273,4
1779267127.8632162,2086,1957,4
1779267127.865837,1904,2237,4
1779267127.8672068,2129,2846,4
1779267127.87443,1951,2800,4
1779267127.875287,2029,2134,4
1779267127.876043,2026,1786,4
1779267127.8773398,1871,2221,4
1779267127.8795981,1749,2409,4
1779267127.88449,2055,2165,4
1779267127.890761,2247,2278,4
1779267127.8911512,2089,2849,4
1779267127.891487,1737,3007,4
1779267127.891722,2168,2369,4
1779267127.8920362,2182,2111,4
1779267127.892253,2063,2068,4
1779267127.895734,2096,2235,4
1779267127.895801,2101,1968,4
1779267127.897135,1878,2074,4
1779267127.9053981,1896,2533,4
1779267127.906755,2120,3066,4
1779267127.908809,2114,2596,4
1779267127.909108,1923,2040,4
1779267127.909503,1957,1979,4
1779267127.909648,2078,2210,4
1779267127.911896,2049,2198,4
1779267127.91478,2029,2039,4
1779267127.920522,1926,2369,4
1779267127.920939,1971,2771,4
1779267127.9212039,2076,2708,4
1779267127.921738,1865,2363,4
1779267127.925401,1776,2117,4
1779267127.925725,1983,2215,4
1779267127.927068,2093,2313,4
1779267127.9296918,2113,2145,4
1779267127.931028,2100,2238,4
1779267127.937999,1845,2604,4
1779267127.940019,1897,2794,4
1779267127.940716,2242,2239,4
1779267127.9430962,2133,1714,4
1779267127.946163,2357,1803,4
1779267127.948262,2065,2198,4
1779267127.953834,1987,1963,4
1779267127.9541209,2223,2074,4
1779267127.9542882,1939,2420,4
1779267127.95446,1932,2708,4
1779267127.954705,2155,2268,4
1779267127.9550211,2019,1883,4
1779267127.957978,1988,1751,4
1779267127.959223,2037,2079,4
1779267127.9648309,1989,2157,4
1779267127.965842,1796,2099,4
1779267127.9670541,1996,2523,4
1779267127.968895,1864,2706,4
1779267127.9691572,1916,2433,4
1779267127.971222,2238,2073,4
1779267127.973682,2244,2127,4
1779267127.978687,1917,2185,4
1779267127.979029,1810,2336,4
1779267127.9793658,1927,2415,4
1779267127.982202,2036,2440,4
1779267127.9835572,1900,2830,4
1779267127.9848902,2199,2749,4
1779267127.9874969,1897,2099,4
1779267127.98894,1831,1718,4
1779267127.9944088,1581,1978,4
1779267127.995578,2209,2323,4
1779267127.997565,2417,2306,4
1779267127.997786,2329,2345,4
1779267128.001617,1908,2519,4
1779267128.001793,1945,2667,4
1779267128.006727,2151,2692,4
1779267128.007071,1652,2208,4
1779267128.007303,1536,2293,4
1779267128.010416,2192,2368,4
1779267128.0117629,2503,2377,4
1779267128.0192819,2086,2169,4
1779267128.0215838,1848,2435,4
1779267128.021933,1876,2729,4
1779267128.0222132,2122,2648,4
1779267128.024113,2203,2258,4
1779267128.02496,1739,2248,4
1779267128.0266519,1712,2329,4
1779267128.0315468,1817,2285,4
1779267128.032105,2076,2187,4
1779267128.0346649,1837,2266,4
1779267128.035601,1763,2707,4
1779267128.035711,1885,2847,4
1779267128.037065,2433,2445,4
1779267128.039659,1921,2239,4
1779267128.040979,2079,2276,4
1779267128.048404,1843,2416,4
1779267128.051183,1830,2249,4
1779267128.051842,2154,2458,4
1779267128.054261,2106,2665,4
1779267128.0571089,2045,2773,4
1779267128.057673,2057,2485,4
1779267128.062602,1678,2209,4
1779267128.0631528,2178,2156,4
1779267128.063689,2176,2358,4
1779267128.0642529,2164,2209,4
1779267128.066765,2273,2101,4
1779267128.067084,1745,2303,4
1779267128.068193,1902,2660,4
1779267128.069569,1841,2570,4
1779267128.077801,2474,2269,4
1779267128.08029,2563,1995,4
1779267128.089354,1934,2171,4
1779267128.089869,2075,2261,4
1779267128.090197,2015,2138,4
1779267128.090653,1898,2214,4
1779267128.093886,2029,2445,4
1779267128.094096,1907,2499,4
1779267128.094192,1884,2299,4
1779267128.0942678,1700,2098,4
1779267128.094338,2313,2074,4
1779267128.094423,2089,2196,4
1779267128.096382,1574,2103,4
1779267128.0977721,1598,2159,4
1779267128.09916,1596,2301,4
1779267128.105435,2167,2576,4
1779267128.106267,1225,2380,4
1779267128.10745,1274,2058,4
1779267128.1082802,1743,1967,4
1779267128.110486,1643,2193,4
1779267128.112691,1377,2052,4
1779267128.114985,1692,2165,4
1779267128.120244,1786,2222,4
1779267128.120748,1674,2581,4
1779267128.121079,1802,2280,4
1779267128.121637,1975,2054,4
1779267128.1239622,1667,2115,4
1779267128.125481,1385,2229,4
1779267128.1269708,1614,2154,4
1779267128.1342132,1680,1913,4
1779267128.136367,2465,2037,4
1779267128.1369689,1663,2319,4
1779267128.141129,1288,2513,4
1779267128.141547,1953,2112,4
1779267128.1465442,1662,1969,4
1779267128.146987,1715,2058,4
1779267128.147211,1697,2246,4
1779267128.1474729,2138,2195,4
1779267128.147808,1675,2065,4
1779267128.1513631,1817,2268,4
1779267128.151753,1560,2501,4
1779267128.153301,2147,2243,4
1779267128.15471,2144,2035,4
1779267128.157712,2467,1931,4
1779267128.164701,2100,2168,4
1779267128.166752,1581,2011,4
1779267128.167176,1359,1961,4
1779267128.167467,1707,2145,4
1779267128.169549,1906,2436,4
1779267128.170366,1752,2379,4
1779267128.172184,1618,2088,4
1779267128.177067,1840,1999,4
1779267128.1775339,1903,2118,4
1779267128.177805,2032,2043,4
1779267128.1810079,1983,1894,4
1779267128.18139,1879,2084,4
1779267128.182615,1844,2308,4
1779267128.190718,2089,2477,4
1779267128.1909492,1996,2152,4
1779267128.193547,1923,1995,4
1779267128.194001,1974,2018,4
1779267128.1960819,1941,2203,4
1779267128.203329,2062,1941,4
1779267128.203707,2046,1948,4
1779267128.2041962,2048,2117,4
1779267128.2045472,1924,2507,4
1779267128.2050052,1764,2300,4
1779267128.205426,1849,1993,4
1779267128.208332,1932,2025,4
1779267128.2096908,1962,2132,4
1779267128.211085,2211,1680,4
1779267128.213689,2512,1753,4
1779267128.220903,2035,2085,4
1779267128.222077,1947,2423,4
1779267128.224322,2161,2309,4
1779267128.226733,2193,1659,4
1779267128.23331,2173,1683,4
1779267128.233744,1952,2031,4
1779267128.234145,1996,2128,4
1779267128.234557,2003,1881,4
1779267128.234986,2093,1992,4
1779267128.2352939,1943,2226,4
1779267128.235584,1987,2408,4
1779267128.238452,2091,2082,4
1779267128.238761,2134,1805,4
1779267128.245951,2053,2091,4
1779267128.2471292,2001,2211,4
1779267128.2478411,2032,2055,4
1779267128.250556,2041,2062,4
1779267128.252479,1963,2494,4
1779267128.2538838,1953,2573,4
1779267128.255734,2086,2131,4
1779267128.260753,2069,2058,4
1779267128.264621,2054,2303,4
1779267128.264812,2011,2239,4
1779267128.2649212,2053,1977,4
1779267128.2650461,2056,2042,4
1779267128.265152,1993,2636,4
1779267128.2666821,1815,2759,4
1779267128.269334,1991,2514,4
1779267128.270725,2190,2319,4
1779267128.278843,2201,2114,4
1779267128.281034,2115,2497,4
1779267128.281279,1991,2587,4
1779267128.281693,2128,2511,4
1779267128.2866318,2157,2614,4
1779267128.291428,1976,2780,4
1779267128.29184,2092,2607,4
1779267128.292487,2382,2430,4
1779267128.292812,2288,2346,4
1779267128.2931368,2314,2554,4
1779267128.2962172,2049,2711,4
1779267128.29632,1888,2603,4
1779267128.297766,2107,2382,4
1779267128.304561,2350,2397,4
1779267128.305828,2178,2825,4
1779267128.308098,1382,2576,4
1779267128.309616,1857,2387,4
1779267128.311079,1718,2367,4
1779267128.3128908,2684,2527,4
1779267128.3131578,2758,2399,4
1779267128.3178189,2109,2345,4
1779267128.318269,1692,2573,4
1779267128.318796,1803,2627,4
1779267128.3190742,2352,2602,4
1779267128.3224452,2210,2294,4
1779267128.322654,2007,2122,4
1779267128.3253021,2040,2180,4
1779267128.327837,2193,2383,4
1779267128.334788,1853,2162,4
1779267128.337843,1692,2201,4
1779267128.3383381,1659,2367,4
1779267128.34111,2779,2278,4
1779267128.34284,2636,2080,4
1779267128.343217,2122,1839,4
1779267128.347926,1807,1988,4
1779267128.3486102,1884,2085,4
1779267128.351419,1988,2092,4
1779267128.352405,2030,2069,4
1779267128.3524852,2230,2188,4
1779267128.352597,1987,2306,4
1779267128.352683,1970,2138,4
1779267128.360091,2136,2029,4
1779267128.3617332,2070,1882,4
1779267128.36388,2012,1973,4
1779267128.365814,2060,2151,4
1779267128.366691,2055,2090,4
1779267128.367574,2089,2087,4
1779267128.3694541,2136,2401,4
1779267128.374176,2150,2194,4
1779267128.374976,2146,2140,4
1779267128.3751638,2154,1847,4
1779267128.375375,2107,1964,4
1779267128.378379,2178,2241,4
1779267128.379791,2180,1933,4
1779267128.381187,2115,2195,4
1779267128.382594,2121,2267,4
1779267128.3897212,2159,2431,4
1779267128.391666,2165,2082,4
1779267128.393884,2151,2166,4
1779267128.3942301,2110,2173,4
1779267128.3982441,2153,2178,4
1779267128.398711,2159,2267,4
1779267128.4031732,2087,2312,4
1779267128.403591,2047,2252,4
1779267128.403842,2070,2318,4
1779267128.404562,2150,2347,4
1779267128.404926,2131,2284,4
1779267128.408121,2054,2331,4
1779267128.409508,2071,2386,4
1779267128.416224,2118,2452,4
1779267128.4194539,2103,2358,4
1779267128.4221199,2068,2415,4
1779267128.4238038,2060,2427,4
1779267128.428446,2122,2314,4
1779267128.4290822,2083,2224,4
1779267128.429434,2057,2179,4
1779267128.429865,2016,2284,4
1779267128.430381,2149,2130,4
1779267128.430742,2070,2206,4
1779267128.433707,2046,2177,4
1779267128.433813,2064,2447,4
1779267128.4352572,2262,2384,4
1779267128.436706,2176,2237,4
1779267128.43937,2019,2171,4
1779267128.446767,1928,2306,4
1779267128.451088,2204,2412,4
1779267128.452172,2384,2327,4
1779267128.454539,2012,2117,4
1779267128.459834,1886,2499,4
1779267128.4604118,2034,2436,4
1779267128.460922,2129,2145,4
1779267128.461348,2127,2159,4
1779267128.461768,2084,2148,4
1779267128.462223,2005,2365,4
1779267128.46519,2083,2177,4
1779267128.465277,2044,2139,4
1779267128.465465,1988,2201,4
1779267128.466851,2013,2386,4
1779267128.4725828,2167,2450,4
1779267128.473429,2190,2230,4
1779267128.474134,2135,2195,4
1779267128.4771562,2086,2228,4
1779267128.479692,2128,2227,4
1779267128.4816692,2097,2118,4
1779267128.486302,2077,2216,4
1779267128.486727,2040,2380,4
1779267128.4897878,2098,2387,4
1779267128.490897,2183,2224,4
1779267128.4909801,2132,2069,4
1779267128.491051,2133,2047,4
1779267128.493702,2130,2265,4
1779267128.495085,2153,2230,4
1779267128.497735,2081,2199,4
1779267128.503165,2064,2360,4
1779267128.504541,2090,2399,4
1779267128.50552,2132,2277,4
1779267128.506376,2097,2229,4
1779267128.50931,2099,2213,4
1779267128.50953,2138,2270,4
1779267128.511917,2139,2499,4
1779267128.519352,2098,2027,4
1779267128.519787,2027,2180,4
1779267128.5203269,2034,2415,4
1779267128.520746,2193,2345,4
1779267128.521076,2167,2312,4
1779267128.524686,2158,2069,4
1779267128.525333,2071,2224,4
1779267128.526738,2109,2310,4
1779267128.533671,2117,2224,4
1779267128.534538,2079,2179,4
1779267128.535381,2035,2409,4
1779267128.536669,2129,2196,4
1779267128.5390441,2155,2195,4
1779267128.539407,2157,2249,4
1779267128.541748,2124,2248,4
1779267128.5444732,2148,2412,4
1779267128.54999,2038,2172,4
1779267128.554158,2022,2307,4
1779267128.554576,1999,2264,4
1779267128.554661,2061,2443,4
1779267128.554733,2124,2356,4
1779267128.554803,2031,2438,4
1779267128.557413,2060,2251,4
1779267128.5587509,2186,2360,4
1779267128.561534,2153,2401,4
1779267128.566746,2020,2330,4
1779267128.569232,2028,2470,4
1779267128.570133,2083,2563,4
1779267128.5723279,2150,2537,4
1779267128.5728729,2249,2505,4
1779267128.575571,2081,2386,4
1779267128.5782669,1987,2502,4
1779267128.578698,2063,2565,4
1779267128.583545,2085,2518,4
1779267128.583851,2089,2367,4
1779267128.584209,2059,2536,4
1779267128.5881228,2156,2670,4
1779267128.588217,2083,2483,4
1779267128.589591,2092,2274,4
1779267128.591236,2059,2396,4
1779267128.598023,2075,2492,4
1779267128.59951,2091,2500,4
1779267128.602109,2106,2559,4
1779267128.60238,2109,2728,4
1779267128.602711,2003,2564,4
1779267128.605147,2068,2353,4
1779267128.6059809,2180,2636,4
1779267128.6166852,2150,2520,4
1779267128.616789,1882,2349,4
1779267128.61686,2061,2276,4
1779267128.6169238,2173,2238,4
1779267128.616986,2036,2312,4
1779267128.617047,2006,2436,4
1779267128.620529,2057,2374,4
1779267128.6206121,2090,2358,4
1779267128.6236448,2034,2414,4
1779267128.653897,2045,2370,4
1779267128.653974,2327,2453,4
1779267128.6540349,2093,2391,4
1779267128.654093,2011,2354,4
1779267128.659368,1983,2474,4
1779267128.659443,2082,2568,4
1779267128.659507,2145,2386,4
1779267128.65957,2061,2304,4
1779267128.66011,2008,2243,4
1779267128.660268,2034,2549,4
1779267128.6605241,2091,2271,4
1779267128.661221,2055,2135,4
1779267128.661342,2016,2456,4
1779267128.661414,2126,2473,4
1779267128.661484,2114,2502,4
1779267128.661553,2114,2395,4
1779267128.6616168,2038,2390,4
1779267128.661682,2043,2537,4
1779267128.661749,2083,2297,4
1779267128.663038,2040,2317,4
1779267128.666469,1979,2457,4
1779267128.666548,2022,2739,4
1779267128.670201,2116,2754,4
1779267128.677282,2077,2592,4
1779267128.678082,2097,2643,4
1779267128.6942961,2038,2608,4
1779267128.694624,2095,2387,4
1779267128.6958249,2075,2442,4
1779267128.695976,2078,2320,4
1779267128.696047,2033,2546,4
1779267128.69611,2087,2583,4
1779267128.696172,2067,2397,4
1779267128.696233,2120,2369,4
1779267128.696296,2104,2516,4
1779267128.696357,2078,2420,4
1779267128.696418,2103,2250,4
1779267128.697819,2067,2464,4
1779267128.704134,2042,2704,4
1779267128.7049642,2030,2688,4
1779267128.7057412,2130,2639,4
1779267128.705935,2063,2603,4
1779267128.709177,2058,2732,4
1779267128.709604,2048,2753,4
1779267128.712088,2091,2784,4
1779267128.719122,2062,2545,4
1779267128.7195919,2019,2783,4
1779267128.7199092,2028,2853,4
1779267128.720242,2087,2645,4
1779267128.723988,2220,2645,4
1779267128.7240808,2327,2678,4
1779267128.725446,2104,2753,4
1779267128.726898,2024,2780,4
1779267128.729325,1901,2561,4
1779267128.731075,1963,2614,4
1779267128.737341,1985,2904,4
1779267128.7388108,2072,2920,4
1779267128.7420642,2317,2491,4
1779267128.7451751,2066,2305,4
1779267128.747193,1977,2220,4
1779267128.7475252,2062,2050,4
1779267128.75217,2209,1679,4
1779267128.752897,2164,1848,4
1779267128.75329,2036,1980,4
1779267128.753803,2002,1977,4
1779267128.7570078,1957,2018,4
1779267128.757359,2044,1926,4
1779267128.757445,1962,1928,4
1779267128.758601,2025,1723,4
1779267128.767892,2090,1624,4
1779267128.7680871,2063,1410,4
1779267128.770565,2037,1665,4
1779267128.77103,2053,1941,4
1779267128.771522,2146,1935,4
1779267128.776618,2113,1987,4
1779267128.7816162,1987,2070,4
1779267128.78601,2000,1954,4
1779267128.786473,2060,1841,4
1779267128.786552,2062,1656,4
1779267128.786623,2057,1858,4
1779267128.786693,2021,2149,4
1779267128.786814,2076,2121,4
1779267128.786896,2082,1977,4
1779267128.789869,2012,1896,4
1779267128.7913668,1935,2206,4
1779267128.792952,1990,2132,4
1779267128.805037,2081,1714,4
1779267128.805878,2014,1989,4
1779267128.8128588,1965,2318,4
1779267128.8134139,1995,2605,4
1779267128.813846,2059,2348,4
1779267128.814246,2007,2199,4
1779267128.814417,1998,2252,4
1779267128.8147352,1992,2227,4
1779267128.815105,2001,1947,4
1779267128.8197901,1900,2147,4
1779267128.819902,1880,2308,4
1779267128.819977,1906,2651,4
1779267128.82009,2003,2449,4
1779267128.821461,1902,2424,4
1779267128.8232808,1841,2256,4
1779267128.830163,2063,2063,4
1779267128.832736,2009,1899,4
1779267128.835386,1565,1859,4
1779267128.835781,1686,2071,4
1779267128.838805,2232,2599,4
1779267128.841106,2264,2362,4
1779267128.841451,1745,2268,4
1779267128.8417459,1463,2194,4
1779267128.842131,2127,2178,4
1779267128.847994,2755,2322,4
1779267128.8524191,2304,2006,4
1779267128.8532321,2133,2007,4
1779267128.853399,1838,2575,4
1779267128.853503,2032,2838,4
1779267128.8535821,2223,2765,4
1779267128.854898,2202,2885,4
1779267128.8565361,1381,3059,4
1779267128.859234,1780,2954,4
1779267128.860735,2042,2259,4
1779267128.868729,1965,2325,4
1779267128.877734,1692,2796,4
1779267128.878021,1951,3148,4
1779267128.881788,2461,2651,4
1779267128.884175,2146,2385,4
1779267128.884593,1882,2113,4
1779267128.8901792,2008,2081,4
1779267128.8909929,2039,1800,4
1779267128.8915899,1790,1613,4
1779267128.891893,1864,1857,4
1779267128.895211,1841,2461,4
1779267128.896467,2204,2449,4
1779267128.896592,2095,1936,4
1779267128.896672,1814,1961,4
1779267128.896745,1756,2287,4
1779267128.8969011,2051,2058,4
1779267128.897006,2188,1315,4
1779267128.897144,1547,1576,4
1779267128.900022,1614,2173,4
1779267128.906782,1723,2419,4
1779267128.9084,2469,2161,4
1779267128.909448,1929,1799,4
1779267128.9127722,1260,1701,4
1779267128.9130769,1982,1676,4
1779267128.9136178,1988,1406,4
1779267128.91397,1909,1707,4
1779267128.917623,2092,2125,4
1779267128.920484,1295,2366,4
1779267128.920817,1991,2155,4
1779267128.921098,2039,2060,4
1779267128.926857,2185,2161,4
1779267128.927683,1740,2029,4
1779267128.928042,1790,1292,4
1779267128.932575,2095,1753,4
1779267128.932677,2020,1566,4
1779267128.932758,1670,2077,4
1779267128.9354482,1441,2226,4
1779267128.936929,2113,1714,4
1779267128.93958,2266,1398,4
1779267128.9413571,1692,1582,4
1779267128.9518049,1879,1390,4
1779267128.955062,2151,1622,4
1779267128.955572,1847,1734,4
1779267128.95589,2153,1585,4
1779267128.958687,2360,2077,4
1779267128.959848,1613,1702,4
1779267128.962348,1621,1343,4
1779267128.962773,1806,1371,4
1779267128.968481,2290,1172,4
1779267128.9688,2147,1360,4
1779267128.969075,2026,1780,4
1779267128.969235,1920,1272,4
1779267128.969555,1925,1798,4
1779267128.969832,2050,1738,4
1779267128.974758,2084,1504,4
1779267128.9748569,2116,1327,4
1779267128.974932,1960,1167,4
1779267128.977823,1895,1015,4
1779267128.9841878,2036,1759,4
1779267128.9857779,1999,1537,4
1779267128.9870772,1794,1765,4
1779267128.99003,1963,2004,4
1779267128.9902909,2269,1663,4
1779267128.991024,1954,1403,4
1779267129.001635,2039,1277,4
1779267129.002363,2235,720,4
1779267129.002679,1815,1676,4
1779267129.003114,1766,1707,4
1779267129.003468,2193,1387,4
1779267129.0038168,1810,2193,4
1779267129.007497,1820,1891,4
1779267129.007592,2509,1653,4
1779267129.0076642,2346,1519,4
1779267129.009023,2140,1167,4
1779267129.0116549,2264,1498,4
1779267129.013438,2211,1877,4
1779267129.015052,2120,1287,4
1779267129.027719,2022,2145,4
1779267129.038893,2050,2024,4
1779267129.039551,2304,1725,4
1779267129.040002,1919,1516,4
1779267129.040542,1640,1475,4
1779267129.0410209,1779,1182,4
1779267129.044661,2070,1935,4
1779267129.044794,1811,1634,4
1779267129.044924,1946,2014,4
1779267129.0450308,2396,2160,4
1779267129.045105,1767,1901,4
1779267129.045173,1591,1716,4
1779267129.045238,2024,1740,4
1779267129.0453,1786,948,4
1779267129.045364,2033,1877,4
1779267129.0467079,2126,1906,4
1779267129.0560389,1887,1560,4
1779267129.056368,1598,2323,4
1779267129.057976,2331,2158,4
1779267129.06081,2150,1804,4
1779267129.0640168,2002,1647,4
1779267129.0661252,1871,1344,4
1779267129.070888,2345,1663,4
1779267129.071263,1733,2089,4
1779267129.071867,2002,1568,4
1779267129.0720909,2300,2606,4
1779267129.072547,1915,2329,4
1779267129.076152,1967,1896,4
1779267129.077419,2001,1792,4
1779267129.0775418,1947,1818,4
1779267129.077615,1922,1333,4
1779267129.0790029,1873,2162,4
1779267129.081486,1919,1816,4
1779267129.083224,1975,2433,4
1779267129.084629,2060,2446,4
1779267129.092602,2067,1937,4
1779267129.094662,2057,1828,4
1779267129.0948758,2016,1845,4
1779267129.0960588,1989,1194,4
1779267129.096918,1947,2066,4
1779267129.097157,1922,2070,4
1779267129.1008372,1982,2112,4
1779267129.101283,2008,2664,4
1779267129.105491,2102,2096,4
1779267129.108029,1942,1870,4
1779267129.1084569,1860,1905,4
1779267129.1087449,2250,1664,4
1779267129.1191502,2066,1802,4
1779267129.1192489,1809,2222,4
1779267129.119322,2099,1797,4
1779267129.11939,2038,2772,4
1779267129.1194549,2023,2391,4
1779267129.120834,2018,1796,4
1779267129.145323,2010,1928,4
1779267129.145769,2036,1886,4
1779267129.14991,2028,1432,4
1779267129.1501598,1937,2263,4
1779267129.150574,1889,1870,4
1779267129.150662,1859,2632,4
1779267129.1507351,1982,2624,4
1779267129.150806,2204,1835,4
1779267129.1508968,2086,1941,4
1779267129.150961,1859,2093,4
1779267129.151073,1998,1435,4
1779267129.151205,2197,2144,4
1779267129.1513221,2254,2145,4
1779267129.151448,1872,2319,4
1779267129.1515222,1923,2875,4
1779267129.1529,2013,2026,4
1779267129.155678,2048,1856,4
1779267129.157158,2028,2044,4
1779267129.1585789,1985,1656,4
1779267129.168271,2054,1868,4
1779267129.1692631,1745,2275,4
1779267129.170361,1802,1919,4
1779267129.176217,2172,2868,4
1779267129.177253,2126,2349,4
1779267129.177693,2078,1764,4
1779267129.180083,2232,2082,4
1779267129.1805801,1979,2005,4
1779267129.1861382,1865,1468,4
1779267129.186629,2109,2308,4
1779267129.187039,2069,1901,4
1779267129.187504,1996,2857,4
1779267129.187933,1884,2749,4
1779267129.188302,2362,1786,4
1779267129.193353,2199,2030,4
1779267129.1935859,1621,2111,4
1779267129.193696,1855,1409,4
1779267129.195153,2095,2204,4
1779267129.203607,2191,2169,4
1779267129.206039,1870,2448,4
1779267129.209651,1980,2823,4
1779267129.2099369,2044,1981,4
1779267129.21033,1964,1844,4
1779267129.2121751,1849,2167,4
1779267129.2136588,1945,1764,4
1779267129.213908,2050,1899,4
1779267129.215952,2109,2300,4
1779267129.22116,2013,2020,4
1779267129.221834,2089,2943,4
1779267129.2226582,2067,2321,4
1779267129.22297,1874,1756,4
1779267129.2264352,2204,2103,4
1779267129.22661,2137,2041,4
1779267129.2266712,1938,1492,4
1779267129.229293,2152,2322,4
1779267129.230704,2098,1899,4
1779267129.2338922,1971,2937,4
1779267129.245,1983,2723,4
1779267129.245719,1969,1773,4
1779267129.248975,1997,2041,4
1779267129.2558541,1857,2201,4
1779267129.256372,1924,1464,4
1779267129.256709,2072,2212,4
1779267129.2569711,2065,2174,4
1779267129.257334,2094,2505,4
1779267129.260763,2065,2932,4
1779267129.261151,2071,1962,4
1779267129.26129,1964,1847,4
1779267129.261399,1952,2191,4
1779267129.261466,2032,1756,4
1779267129.261581,2002,1919,4
1779267129.26294,1988,2304,4
1779267129.27154,1889,2040,4
1779267129.273773,1915,3030,4
1779267129.273985,2009,2292,4
1779267129.275936,2227,1748,4
1779267129.289033,1940,2073,4
1779267129.289155,1981,2018,4
1779267129.2892318,1831,1522,4
1779267129.2892978,2057,2324,4
1779267129.289362,2088,1877,4
1779267129.2894568,1835,3018,4
1779267129.28952,2037,2700,4
1779267129.2895832,1942,1764,4
1779267129.2896798,2081,2078,4
1779267129.29146,2090,2190,4
1779267129.293516,2117,1387,4
1779267129.300548,1928,2238,4
1779267129.301491,2023,2161,4
1779267129.302433,1911,2560,4
1779267129.3037598,2097,3040,4
1779267129.3040059,2048,1918,4
1779267129.306175,1939,1857,4
1779267129.308797,2071,2292,4
1779267129.311402,2059,1862,4
1779267129.316684,2035,1953,4
1779267129.317054,2005,2310,4
1779267129.317663,1977,2149,4
1779267129.32076,2062,3067,4
1779267129.321475,2077,2258,4
1779267129.3218062,1926,1752,4
1779267129.32318,1982,2115,4
1779267129.324687,1984,2021,4
1779267129.331192,2019,1561,4
1779267129.3319418,1958,2332,4
1779267129.332638,2009,1854,4
1779267129.33503,2101,2937,4
1779267129.338173,2109,2669,4
1779267129.340321,2082,1754,4
1779267129.3449259,2019,2083,4
1779267129.345323,1996,2190,4
1779267129.3457978,2046,1423,4
1779267129.3462222,2055,2248,4
1779267129.349796,1983,2156,4
1779267129.350076,1930,2743,4
1779267129.351497,2021,2932,4
1779267129.352871,2071,1917,4
1779267129.355498,2072,1880,4
1779267129.3627222,2063,2324,4
1779267129.364515,1934,1845,4
1779267129.366795,1750,1963,4
1779267129.369371,2089,2301,4
1779267129.371037,2474,2107,4
1779267129.375175,2006,3105,4
1779267129.375695,1922,2242,4
1779267129.3759859,1981,1753,4
1779267129.376338,2020,2239,4
1779267129.3766668,2015,2084,4
1779267129.379531,2149,1569,4
1779267129.38001,1886,2344,4
1779267129.381376,2103,1863,4
1779267129.387681,2481,3024,4
1779267129.390932,1985,2660,4
1779267129.3912199,1613,1746,4
1779267129.3914602,2125,2089,4
1779267129.3940759,2376,2273,4
1779267129.394284,1878,1535,4
1779267129.400029,1775,2244,4
1779267129.4004962,2103,2166,4
1779267129.400713,2541,2663,4
1779267129.4011688,1977,2974,4
1779267129.4043891,2167,1907,4
1779267129.4058151,1923,1868,4
1779267129.407159,1959,2316,4
1779267129.4098182,1829,1656,4
1779267129.4157891,2278,1974,4
1779267129.419586,2857,2308,4
1779267129.419847,1851,2271,4
1779267129.422008,1913,3243,4
1779267129.4242291,1946,2217,4
1779267129.428931,2308,1764,4
1779267129.431914,2320,2481,4
1779267129.432114,1984,2125,4
1779267129.432194,1732,1591,4
1779267129.4323149,1911,2363,4
1779267129.432483,2024,1953,4
1779267129.4326231,1909,3280,4
1779267129.439569,1956,2617,4
1779267129.441199,2039,1739,4
1779267129.443373,2185,2122,4
1779267129.443706,2516,2438,4
1779267129.44561,2179,1402,4
1779267129.4463859,1887,2275,4
1779267129.44801,2075,2164,4
1779267129.452149,2336,2756,4
1779267129.452513,2245,3116,4
1779267129.452917,2093,1875,4
1779267129.455379,2348,1873,4
1779267129.456737,2180,2408,4
1779267129.459368,2410,1636,4
1779267129.460709,2719,2027,4
1779267129.4689448,2332,2319,4
1779267129.4717429,2578,2169,4
1779267129.476618,2398,3282,4
1779267129.481333,1766,2164,4
1779267129.48244,2139,1740,4
1779267129.482806,2606,2292,4
1779267129.4868522,2351,1926,4
1779267129.486992,2709,1659,4
1779267129.487073,2322,2367,4
1779267129.4871712,2128,1819,4
1779267129.487562,2571,2959,4
1779267129.487637,2555,2602,4
1779267129.487705,2742,1715,4
1779267129.489486,2382,2101,4
1779267129.495992,2430,2011,4
1779267129.500847,2533,1221,4
1779267129.5011442,2260,2321,4
1779267129.501836,2200,2129,4
1779267129.502102,2111,2517,4
1779267129.504,2228,3047,4
1779267129.508756,2419,1827,4
1779267129.50916,2299,1868,4
1779267129.50964,2193,2376,4
1779267129.512701,2261,1547,4
1779267129.513,2321,2084,4
1779267129.513084,2477,2323,4
1779267129.515747,2463,2245,4
1779267129.5171,2327,3325,4
1779267129.5256069,2448,2106,4
1779267129.528179,2570,1739,4
1779267129.528596,2481,2499,4
1779267129.528904,2556,2041,4
1779267129.531805,2546,1705,4
1779267129.537868,2173,2395,4
1779267129.538473,1940,1821,4
1779267129.538871,2429,3190,4
1779267129.539277,2540,2524,4
1779267129.539592,2150,1696,4
1779267129.540014,2430,2135,4
1779267129.543176,2425,2302,4
1779267129.543265,2354,1240,4
1779267129.544665,2365,2346,4
1779267129.5526369,2593,2147,4
1779267129.554733,2339,2844,4
1779267129.5571158,2473,2978,4
1779267129.5592709,2301,1811,4
1779267129.563972,2275,1879,4
1779267129.564513,2142,2194,4
1779267129.5648909,2074,1430,4
1779267129.567652,2184,2119,4
1779267129.568643,2029,2297,4
1779267129.568706,2114,1907,4
1779267129.568848,2191,2976,4
1779267129.568985,2307,2100,4
1779267129.571525,2540,1720,4
1779267129.572926,2426,2082,4
1779267129.581315,1946,1778,4
1779267129.5860438,2134,1734,4
1779267129.586947,2326,2367,4
1779267129.593179,2079,1755,4
1779267129.5935948,2162,2974,4
1779267129.594215,2189,2512,4
1779267129.594461,1953,1701,4
1779267129.594804,2122,2048,4
1779267129.597878,2218,2035,4
1779267129.597993,2037,1447,4
1779267129.59805,1765,2315,4
1779267129.598141,1909,2088,4
1779267129.599505,2106,2701,4
1779267129.606318,1791,2786,4
1779267129.609343,1970,1840,4
1779267129.609683,2031,1896,4
1779267129.6099,2074,2330,4
1779267129.610132,1426,1924,4
1779267129.614197,2689,2039,4
1779267129.61452,3216,2282,4
1779267129.614688,2312,3135,4
