timestamp,ch1,ch2,label
1779267276.262379,2128,2447,6_S
1779267276.262658,2105,2089,6_S
1779267276.262837,1884,1883,6_S
1779267276.266986,1951,1875,6_S
1779267276.267926,2024,2009,6_S
1779267276.271717,2070,1818,6_S
1779267276.272331,2080,1799,6_S
1779267276.277266,2094,2061,6_S
1779267276.2790809,2038,2500,6_S
1779267276.279335,1877,2241,6_S
1779267276.2797272,2101,1870,6_S
1779267276.283498,2053,1843,6_S
1779267276.283697,2173,2017,6_S
1779267276.284905,2163,1949,6_S
1779267276.2875872,1842,1727,6_S
1779267276.28894,2026,1951,6_S
1779267276.296671,2021,2370,6_S
1779267276.297935,2101,2385,6_S
1779267276.302759,2206,1979,6_S
1779267276.3063118,2101,1744,6_S
1779267276.306934,2043,1852,6_S
1779267276.310932,2072,1992,6_S
1779267276.311085,2117,1695,6_S
1779267276.311198,2116,1796,6_S
1779267276.311269,1991,2236,6_S
1779267276.3113332,1984,2517,6_S
1779267276.311394,1936,2062,6_S
1779267276.312733,2028,1858,6_S
1779267276.315407,1982,1907,6_S
1779267276.316949,1976,2103,6_S
1779267276.3302882,2009,1821,6_S
1779267276.332423,2083,1730,6_S
1779267276.33586,2078,2054,6_S
1779267276.335995,2024,2410,6_S
1779267276.3360782,2035,2246,6_S
1779267276.3361568,2130,1916,6_S
1779267276.336222,2000,1799,6_S
1779267276.336284,1951,1983,6_S
1779267276.3363452,1979,1957,6_S
1779267276.33775,2106,1707,6_S
1779267276.344975,2142,1882,6_S
1779267276.348533,2086,2331,6_S
1779267276.352795,1962,2389,6_S
1779267276.353655,2061,1960,6_S
1779267276.355629,2206,1798,6_S
1779267276.3559182,2111,1932,6_S
1779267276.3562932,2084,2003,6_S
1779267276.356571,1931,1687,6_S
1779267276.356709,2028,1810,6_S
1779267276.356817,2230,2242,6_S
1779267276.360626,2094,2575,6_S
1779267276.360715,2044,2145,6_S
1779267276.363384,1959,1967,6_S
1779267276.364796,1922,1895,6_S
1779267276.371704,2107,2082,6_S
1779267276.3737779,2179,1776,6_S
1779267276.3739798,2038,1814,6_S
1779267276.377101,2027,2097,6_S
1779267276.379092,2105,2536,6_S
1779267276.380013,2157,2243,6_S
1779267276.383782,2029,1858,6_S
1779267276.384476,1976,1757,6_S
1779267276.384941,2141,2008,6_S
1779267276.38538,2049,1965,6_S
1779267276.388561,1860,1779,6_S
1779267276.388641,2005,1970,6_S
1779267276.397897,2059,2432,6_S
1779267276.4000351,2022,2508,6_S
1779267276.4003992,1999,2007,6_S
1779267276.40254,2053,1775,6_S
1779267276.405071,2129,1896,6_S
1779267276.407124,2117,1997,6_S
1779267276.407778,1997,1721,6_S
1779267276.41075,2081,1784,6_S
1779267276.4112482,2234,2167,6_S
1779267276.4113522,2210,2411,6_S
1779267276.411465,1981,2133,6_S
1779267276.413096,2062,1902,6_S
1779267276.415736,1988,1861,6_S
1779267276.417451,1997,2041,6_S
1779267276.423253,1918,1746,6_S
1779267276.4242449,1964,1694,6_S
1779267276.4254751,2010,2072,6_S
1779267276.427582,2020,2502,6_S
1779267276.428127,2025,2254,6_S
1779267276.4366121,2036,1934,6_S
1779267276.43762,2062,1823,6_S
1779267276.4377449,1989,2045,6_S
1779267276.437844,1969,1907,6_S
1779267276.437941,2178,1698,6_S
1779267276.439287,2107,1955,6_S
1779267276.445623,2049,2406,6_S
1779267276.449273,2044,2314,6_S
1779267276.4497359,2055,1949,6_S
1779267276.4519072,2066,1741,6_S
1779267276.454189,1934,1899,6_S
1779267276.4545212,2075,1979,6_S
1779267276.4549792,2079,1720,6_S
1779267276.4568949,1952,1872,6_S
1779267276.4573178,2145,2327,6_S
1779267276.461458,2005,2471,6_S
1779267276.461597,2072,2039,6_S
1779267276.46274,2235,1860,6_S
1779267276.465395,2112,1881,6_S
1779267276.466743,2058,2131,6_S
1779267276.477016,2023,1796,6_S
1779267276.477507,2015,1705,6_S
1779267276.4780438,2030,2080,6_S
1779267276.480287,2147,2530,6_S
1779267276.482778,2049,2304,6_S
1779267276.484612,2027,2014,6_S
1779267276.4849658,1989,1802,6_S
1779267276.4852722,1959,1999,6_S
1779267276.485589,1929,1872,6_S
1779267276.488965,2188,1659,6_S
1779267276.489086,1973,1959,6_S
1779267276.498246,2040,2422,6_S
1779267276.500441,2087,2391,6_S
1779267276.5008159,2024,2019,6_S
1779267276.503374,1975,1780,6_S
1779267276.505305,1852,1922,6_S
1779267276.507301,2186,1971,6_S
1779267276.508029,2116,1741,6_S
1779267276.5085251,2052,1835,6_S
1779267276.509227,2051,2217,6_S
1779267276.512356,2094,2467,6_S
1779267276.512465,2151,2083,6_S
1779267276.512565,1969,1748,6_S
1779267276.5152,2044,1833,6_S
1779267276.516576,2094,2046,6_S
1779267276.525026,2065,1809,6_S
1779267276.527504,2003,1702,6_S
1779267276.527919,1958,2135,6_S
1779267276.528419,1971,2507,6_S
1779267276.5311959,2123,2227,6_S
1779267276.5329988,2097,1828,6_S
1779267276.5350358,1961,1747,6_S
1779267276.535591,1959,1937,6_S
1779267276.535895,1981,1850,6_S
1779267276.538933,2032,1606,6_S
1779267276.539349,2307,1852,6_S
1779267276.540721,2045,2364,6_S
1779267276.547557,1977,2352,6_S
1779267276.548852,2019,1947,6_S
1779267276.550972,2357,1773,6_S
1779267276.551349,2106,1923,6_S
1779267276.551661,1855,2002,6_S
1779267276.5543628,2065,1612,6_S
1779267276.5580008,1989,1800,6_S
1779267276.558339,1985,2281,6_S
1779267276.5589042,2016,2576,6_S
1779267276.562001,2011,2117,6_S
1779267276.563398,1984,1818,6_S
1779267276.5647721,1966,1884,6_S
1779267276.567453,2115,2019,6_S
1779267276.577288,2122,1699,6_S
1779267276.5777721,1849,1683,6_S
1779267276.579958,2033,2087,6_S
1779267276.5806952,2202,2547,6_S
1779267276.582552,2001,2224,6_S
1779267276.584815,1956,1805,6_S
1779267276.585108,2050,1723,6_S
1779267276.585524,2154,1991,6_S
1779267276.585897,2210,1868,6_S
1779267276.5891352,2081,1700,6_S
1779267276.589194,2048,1934,6_S
1779267276.59056,2134,2512,6_S
1779267276.597274,2237,2387,6_S
1779267276.600974,2011,1929,6_S
1779267276.601237,1935,1767,6_S
1779267276.60187,1916,1923,6_S
1779267276.6044722,2103,1972,6_S
1779267276.608326,2042,1651,6_S
1779267276.609202,1896,1803,6_S
1779267276.609658,2038,2299,6_S
1779267276.610016,1966,2514,6_S
1779267276.6132832,2071,2065,6_S
1779267276.613394,1935,1755,6_S
1779267276.614732,2115,1861,6_S
1779267276.6172318,2174,2014,6_S
1779267276.618749,1908,1728,6_S
1779267276.624655,2046,1737,6_S
1779267276.626318,2184,2079,6_S
1779267276.628478,2173,2457,6_S
1779267276.628884,2103,2217,6_S
1779267276.6333709,2028,1902,6_S
1779267276.633745,2049,1841,6_S
1779267276.6360981,2041,2092,6_S
1779267276.636541,1976,1882,6_S
1779267276.637024,1956,1613,6_S
1779267276.640245,2012,1921,6_S
1779267276.6416152,1980,2522,6_S
1779267276.643318,1935,2444,6_S
1779267276.648509,2149,2013,6_S
1779267276.650304,2099,1879,6_S
1779267276.652558,2013,2011,6_S
1779267276.65288,2010,2077,6_S
1779267276.655607,1912,1596,6_S
1779267276.6573062,1984,1760,6_S
1779267276.6575449,2326,2265,6_S
1779267276.659913,2272,2507,6_S
1779267276.6633139,1973,2008,6_S
1779267276.663433,1974,1658,6_S
1779267276.6648462,2080,1734,6_S
1779267276.6675131,2064,2022,6_S
1779267276.6689012,2038,1684,6_S
1779267276.675403,1929,1715,6_S
1779267276.679184,1878,2160,6_S
1779267276.679656,2180,2635,6_S
1779267276.681885,2165,2276,6_S
1779267276.6844869,2001,1846,6_S
1779267276.6872718,1995,1701,6_S
1779267276.687744,2032,1998,6_S
1779267276.688021,2241,1783,6_S
1779267276.6913202,2383,1608,6_S
1779267276.691423,2055,2051,6_S
1779267276.691502,1713,2531,6_S
1779267276.692838,1873,2274,6_S
1779267276.699334,2471,1620,6_S
1779267276.700002,1877,1355,6_S
1779267276.700661,1663,1517,6_S
1779267276.7026272,2127,1409,6_S
1779267276.7029078,2431,1396,6_S
1779267276.704951,2231,1615,6_S
1779267276.7073169,1252,1768,6_S
1779267276.7097988,1506,2011,6_S
1779267276.7133179,2611,1433,6_S
1779267276.713515,2610,1307,6_S
1779267276.715477,2247,1403,6_S
1779267276.7168782,1502,1713,6_S
1779267276.7195652,1369,1257,6_S
1779267276.7259781,1649,1585,6_S
1779267276.727329,3110,1415,6_S
1779267276.728679,2796,2351,6_S
1779267276.7306461,1086,2025,6_S
1779267276.7328079,1849,1769,6_S
1779267276.7330308,3049,1231,6_S
1779267276.735488,2716,1847,6_S
1779267276.7381618,1182,1885,6_S
1779267276.738883,1260,1511,6_S
1779267276.7392929,1913,1698,6_S
1779267276.742553,2116,2237,6_S
1779267276.7427359,2402,2269,6_S
1779267276.7504342,2283,1883,6_S
1779267276.753834,1677,1682,6_S
1779267276.754352,1391,1639,6_S
1779267276.7588449,3395,1641,6_S
1779267276.761825,2785,1407,6_S
1779267276.762469,2207,1677,6_S
1779267276.762722,1932,2038,6_S
1779267276.763041,2229,2368,6_S
1779267276.763573,2266,1902,6_S
1779267276.766258,1534,1656,6_S
1779267276.7675211,2014,1751,6_S
1779267276.7676108,1750,2056,6_S
1779267276.768991,1995,1639,6_S
1779267276.7716339,3307,1694,6_S
1779267276.772989,2378,2002,6_S
1779267276.78124,2357,2424,6_S
1779267276.781951,2174,2132,6_S
1779267276.782172,2067,1736,6_S
1779267276.785693,2052,1724,6_S
1779267276.785912,1980,1888,6_S
1779267276.786197,1840,1701,6_S
1779267276.7887318,1412,1616,6_S
1779267276.789548,3670,1754,6_S
1779267276.791508,1955,2550,6_S
1779267276.794674,2003,2373,6_S
1779267276.794967,2338,1828,6_S
1779267276.7980978,2952,1791,6_S
1779267276.799454,1927,2027,6_S
1779267276.800834,1466,1870,6_S
1779267276.8076632,2535,1633,6_S
1779267276.8091671,1477,1958,6_S
1779267276.8093781,2031,2384,6_S
1779267276.8126342,2490,2545,6_S
1779267276.813032,2294,2053,6_S
1779267276.815414,1955,1770,6_S
1779267276.816225,2379,1859,6_S
1779267276.821725,2692,1861,6_S
1779267276.821994,1940,1725,6_S
1779267276.8223832,2659,1741,6_S
1779267276.822687,2175,2056,6_S
1779267276.8266602,1716,2652,6_S
1779267276.8267798,1672,2030,6_S
1779267276.829462,3594,1872,6_S
1779267276.830875,1569,1768,6_S
1779267276.833408,1956,1937,6_S
1779267276.841135,2761,1885,6_S
1779267276.844789,2215,1658,6_S
1779267276.844925,1895,1992,6_S
1779267276.8478878,1856,2575,6_S
1779267276.848119,2420,2473,6_S
1779267276.8535302,1756,1892,6_S
1779267276.853796,2440,1904,6_S
1779267276.854182,2634,2119,6_S
1779267276.854582,1652,2045,6_S
1779267276.855016,2487,1639,6_S
1779267276.8551848,2621,1873,6_S
1779267276.858886,2134,2322,6_S
1779267276.858977,2099,2430,6_S
1779267276.86632,2239,1953,6_S
1779267276.871346,1706,1842,6_S
1779267276.876478,1479,1630,6_S
1779267276.876822,3740,1972,6_S
1779267276.8807411,2327,1951,6_S
1779267276.881191,1036,1778,6_S
1779267276.881572,2268,2155,6_S
1779267276.885206,2399,2627,6_S
1779267276.886462,2832,2300,6_S
1779267276.886631,2091,1988,6_S
1779267276.886692,1884,1850,6_S
1779267276.88675,2205,2179,6_S
1779267276.8868108,1522,2017,6_S
1779267276.8868742,2164,1668,6_S
1779267276.88943,2308,2192,6_S
1779267276.890709,1580,2675,6_S
1779267276.898999,710,2414,6_S
1779267276.8992078,3936,2121,6_S
1779267276.8999271,2411,1870,6_S
1779267276.90346,1457,1946,6_S
1779267276.903784,1690,2237,6_S
1779267276.904481,1770,1826,6_S
1779267276.9068182,2958,2027,6_S
1779267276.909667,1935,2618,6_S
1779267276.913538,1984,2863,6_S
1779267276.9138792,2627,2412,6_S
1779267276.914318,1847,2117,6_S
1779267276.914645,2131,2192,6_S
1779267276.918608,1758,2712,6_S
1779267276.918738,1616,2369,6_S
1779267276.921522,2175,2449,6_S
1779267276.9286551,1888,2948,6_S
1779267276.931869,3462,3250,6_S
1779267276.935134,2048,2967,6_S
1779267276.935298,536,2386,6_S
1779267276.9374971,2117,2514,6_S
1779267276.941897,3878,2819,6_S
1779267276.942655,1661,2555,6_S
1779267276.942925,2300,2251,6_S
1779267276.943418,2657,2960,6_S
1779267276.9462872,353,3513,6_S
1779267276.947446,1491,2933,6_S
1779267276.947553,2720,2502,6_S
1779267276.947647,1385,2332,6_S
1779267276.949012,1762,2699,6_S
1779267276.9505012,3430,2813,6_S
1779267276.9531488,2562,2239,6_S
1779267276.972576,1674,3002,6_S
1779267276.9793558,551,3354,6_S
1779267276.979795,2618,2880,6_S
1779267276.980028,3682,2725,6_S
1779267276.98664,2213,2359,6_S
1779267276.98801,1909,2705,6_S
1779267276.9906251,829,2717,6_S
1779267276.992718,497,2306,6_S
1779267276.993516,3868,2358,6_S
1779267276.996147,2874,2688,6_S
1779267277.000803,1509,3051,6_S
1779267277.001102,1961,2792,6_S
1779267277.0014908,1161,2457,6_S
1779267277.001846,3666,2286,6_S
1779267277.002221,2310,2596,6_S
1779267277.0024478,10,1980,6_S
1779267277.002719,4095,1614,6_S
1779267277.003105,4040,2268,6_S
1779267277.0037398,1271,2874,6_S
1779267277.007243,1694,2081,6_S
1779267277.008893,2271,1948,6_S
1779267277.0091782,2276,1760,6_S
1779267277.0092769,2650,1824,6_S
1779267277.009444,1925,2493,6_S
1779267277.009526,329,2091,6_S
1779267277.009713,1475,2149,6_S
1779267277.0097961,3236,2200,6_S
1779267277.0098639,1447,2544,6_S
1779267277.01122,3842,2223,6_S
1779267277.012564,1834,1899,6_S
1779267277.0152051,1224,1846,6_S
1779267277.016573,4001,1653,6_S
1779267277.024738,3411,1454,6_S
1779267277.025621,1499,1779,6_S
1779267277.026592,1862,2461,6_S
1779267277.030293,2572,2618,6_S
1779267277.0332959,2442,2338,6_S
1779267277.036555,0,1686,6_S
1779267277.037028,3909,1904,6_S
1779267277.042773,3260,1738,6_S
1779267277.04328,1474,2327,6_S
1779267277.043537,199,1813,6_S
1779267277.0439098,3685,1861,6_S
1779267277.044512,4095,2488,6_S
1779267277.044898,3337,1767,6_S
1779267277.045411,1340,1818,6_S
1779267277.0488389,2140,1608,6_S
1779267277.050215,3353,1817,6_S
1779267277.051639,2530,1899,6_S
1779267277.053039,2937,1830,6_S
1779267277.0629172,1865,1635,6_S
1779267277.0638552,1618,1928,6_S
1779267277.067255,3989,2502,6_S
1779267277.067798,3511,2403,6_S
1779267277.071468,2559,1684,6_S
1779267277.074624,2756,1838,6_S
1779267277.075239,2658,1915,6_S
1779267277.0819168,3377,1415,6_S
1779267277.0824819,2951,1588,6_S
1779267277.0828779,3259,2303,6_S
1779267277.083194,2653,1929,6_S
1779267277.083324,2815,1412,6_S
1779267277.0838242,2763,1656,6_S
1779267277.087213,2917,2152,6_S
1779267277.0885918,2199,1698,6_S
1779267277.0886889,2345,1660,6_S
1779267277.088764,3044,1657,6_S
1779267277.0889118,2979,2036,6_S
1779267277.091635,2391,2521,6_S
1779267277.093044,3081,2376,6_S
1779267277.095584,2211,1959,6_S
1779267277.0973718,1570,2102,6_S
1779267277.104213,3461,2498,6_S
1779267277.106084,2254,2637,6_S
1779267277.106984,2337,2529,6_S
1779267277.107274,1958,2719,6_S
1779267277.1109529,2327,3295,6_S
1779267277.1113758,3000,3514,6_S
1779267277.111628,1841,2763,6_S
1779267277.1155462,2293,2644,6_S
1779267277.1280892,2260,2675,6_S
1779267277.129459,2722,2758,6_S
1779267277.129664,2037,2370,6_S
1779267277.129745,1863,2651,6_S
1779267277.129817,2513,2876,6_S
1779267277.129893,1801,3360,6_S
1779267277.129995,1491,2898,6_S
1779267277.13008,1470,2575,6_S
1779267277.131458,3135,2393,6_S
1779267277.1330078,2694,2532,6_S
1779267277.143286,1698,2299,6_S
1779267277.144473,2069,2229,6_S
1779267277.1474812,2121,2507,6_S
1779267277.148003,1929,2679,6_S
1779267277.14835,2108,2597,6_S
1779267277.1489348,2990,1913,6_S
1779267277.149329,2460,2099,6_S
1779267277.149611,549,2304,6_S
1779267277.1534169,1075,2074,6_S
1779267277.155957,1652,1828,6_S
1779267277.1631382,2443,1960,6_S
1779267277.163328,2825,2533,6_S
1779267277.163575,2242,2490,6_S
1779267277.16381,1863,2280,6_S
1779267277.164225,1941,2003,6_S
1779267277.1688352,1653,2125,6_S
1779267277.1692522,1354,2235,6_S
1779267277.169329,2756,1952,6_S
1779267277.17071,1958,2070,6_S
1779267277.173422,2263,2412,6_S
1779267277.1746612,1853,2768,6_S
1779267277.177713,1278,2257,6_S
1779267277.185888,2455,2102,6_S
1779267277.186066,2488,1997,6_S
1779267277.187079,2193,2474,6_S
1779267277.191316,968,2174,6_S
1779267277.191859,2135,2176,6_S
1779267277.192157,2408,2523,6_S
1779267277.1942852,1828,3009,6_S
1779267277.19524,1845,2712,6_S
1779267277.195462,1885,2345,6_S
1779267277.198532,2303,2276,6_S
1779267277.198783,2187,2395,6_S
1779267277.205655,2093,2305,6_S
1779267277.2058911,1988,2030,6_S
1779267277.2061892,3297,2286,6_S
1779267277.210935,2377,2993,6_S
1779267277.2114089,1367,2978,6_S
1779267277.211489,1567,2559,6_S
1779267277.212828,2310,2130,6_S
1779267277.221938,2012,2471,6_S
1779267277.2229388,2164,2438,6_S
1779267277.23041,2178,2052,6_S
1779267277.234546,2054,2327,6_S
1779267277.234999,2047,2644,6_S
1779267277.242374,2188,2753,6_S
1779267277.2428281,1843,2347,6_S
1779267277.243516,2573,2090,6_S
1779267277.243925,1061,2214,6_S
1779267277.244108,2765,2228,6_S
1779267277.244549,3283,2152,6_S
1779267277.248697,1319,2072,6_S
1779267277.249262,1735,2268,6_S
1779267277.2493591,2528,2690,6_S
1779267277.249434,2194,2654,6_S
1779267277.249506,1716,2237,6_S
1779267277.249575,2212,1916,6_S
1779267277.2496362,1950,2133,6_S
1779267277.251061,2469,1925,6_S
1779267277.2525282,2072,2040,6_S
1779267277.255187,1564,1862,6_S
1779267277.2568471,2810,2325,6_S
1779267277.2656121,1679,2551,6_S
1779267277.2666419,2009,1813,6_S
1779267277.267719,2042,2140,6_S
1779267277.268826,1198,2009,6_S
1779267277.271807,2532,2165,6_S
1779267277.27245,3188,1925,6_S
1779267277.27903,2110,2046,6_S
1779267277.279357,2145,2374,6_S
1779267277.286989,1747,2827,6_S
1779267277.2871501,1707,2357,6_S
1779267277.287874,2052,2011,6_S
1779267277.28813,3061,1990,6_S
1779267277.288615,2651,2147,6_S
1779267277.289071,920,1922,6_S
1779267277.292827,1447,2127,6_S
1779267277.293771,2156,2332,6_S
1779267277.294101,2285,2600,6_S
1779267277.294167,2838,2418,6_S
1779267277.2955,1921,2129,6_S
1779267277.2970822,1729,1994,6_S
1779267277.302908,981,2069,6_S
1779267277.305853,3620,1972,6_S
1779267277.3088481,2219,1812,6_S
1779267277.312156,1822,2304,6_S
1779267277.3211908,1503,2463,6_S
1779267277.321558,2486,2420,6_S
1779267277.321915,2471,2184,6_S
1779267277.325572,2328,1776,6_S
1779267277.326449,1889,2158,6_S
1779267277.326795,1601,2037,6_S
1779267277.326863,1867,1987,6_S
1779267277.3269901,1377,1856,6_S
1779267277.3270788,1999,2231,6_S
1779267277.32714,3016,2503,6_S
1779267277.327203,1945,2233,6_S
1779267277.3285608,1576,1932,6_S
1779267277.3311841,1946,1987,6_S
1779267277.332526,3055,2297,6_S
1779267277.342201,1458,2014,6_S
1779267277.345205,1894,1942,6_S
1779267277.3456352,1987,2291,6_S
1779267277.3460422,2487,2497,6_S
1779267277.3482182,2011,2401,6_S
1779267277.356886,1172,2353,6_S
1779267277.357153,2364,2020,6_S
1779267277.357565,2266,2221,6_S
1779267277.358023,2334,1852,6_S
1779267277.358402,2667,2149,6_S
1779267277.358516,245,1879,6_S
1779267277.358952,4044,2628,6_S
1779267277.361561,2730,2864,6_S
1779267277.362491,191,2201,6_S
1779267277.362824,1892,2047,6_S
1779267277.365723,2203,2195,6_S
1779267277.371051,2052,2459,6_S
1779267277.371166,1899,2294,6_S
1779267277.372525,2034,2483,6_S
1779267277.373843,1769,2889,6_S
1779267277.378299,1903,2835,6_S
1779267277.3807418,2334,2746,6_S
1779267277.381037,2163,2295,6_S
1779267277.387315,2758,2394,6_S
1779267277.387548,1779,2733,6_S
1779267277.387774,1719,2515,6_S
1779267277.388057,1921,2424,6_S
1779267277.391938,2264,2650,6_S
1779267277.392215,2442,2960,6_S
1779267277.392388,1736,2710,6_S
1779267277.394995,2218,2251,6_S
1779267277.396441,2384,2253,6_S
1779267277.3993359,1754,2415,6_S
1779267277.4044511,2740,2210,6_S
1779267277.404652,2265,2478,6_S
1779267277.405382,1316,2300,6_S
1779267277.4094899,1662,2654,6_S
1779267277.414401,2542,2849,6_S
1779267277.421002,1876,2109,6_S
1779267277.42132,2316,2267,6_S
1779267277.42158,1830,2099,6_S
1779267277.421921,1981,2465,6_S
1779267277.422682,1210,1942,6_S
1779267277.42303,2969,2043,6_S
1779267277.4256482,2957,2261,6_S
1779267277.426419,1907,2938,6_S
1779267277.426809,876,2247,6_S
1779267277.429664,2471,1916,6_S
1779267277.4340868,2354,1980,6_S
1779267277.4365451,1812,2206,6_S
1779267277.437377,1441,1868,6_S
1779267277.4395561,2860,1784,6_S
1779267277.442645,1932,2078,6_S
1779267277.442925,1858,2438,6_S
1779267277.444761,2161,2219,6_S
1779267277.4449558,1874,1852,6_S
1779267277.451404,1901,1678,6_S
1779267277.451641,2382,2006,6_S
1779267277.451929,2946,1684,6_S
1779267277.4548538,1660,1833,6_S
1779267277.455874,1184,2005,6_S
1779267277.4572852,1719,2329,6_S
1779267277.4586282,1763,2353,6_S
1779267277.46122,3049,1824,6_S
1779267277.462455,2486,1910,6_S
1779267277.46699,1926,2017,6_S
1779267277.4686568,1894,2247,6_S
1779267277.468828,1487,1829,6_S
1779267277.471522,2115,1674,6_S
1779267277.47557,2600,2291,6_S
1779267277.4758348,1952,2514,6_S
1779267277.48473,1680,2105,6_S
1779267277.4851022,1162,1872,6_S
1779267277.485215,1925,1735,6_S
1779267277.485294,3881,1890,6_S
1779267277.4853601,1494,1996,6_S
1779267277.486677,618,2019,6_S
1779267277.4919271,1365,2087,6_S
1779267277.4926348,3457,2377,6_S
1779267277.493396,2243,2416,6_S
1779267277.496576,1499,2126,6_S
1779267277.496715,1811,1994,6_S
1779267277.5004008,1565,2214,6_S
1779267277.5006971,1847,2009,6_S
1779267277.506388,2500,1984,6_S
1779267277.507288,2503,2171,6_S
1779267277.5079098,1979,2232,6_S
1779267277.51012,1987,2595,6_S
1779267277.511459,1825,2139,6_S
1779267277.512779,1589,1916,6_S
1779267277.515376,1462,1879,6_S
1779267277.516892,3595,2138,6_S
1779267277.522387,2026,1685,6_S
1779267277.535375,1727,2041,6_S
1779267277.535866,1915,2224,6_S
1779267277.536473,2407,2370,6_S
1779267277.5368478,2000,2233,6_S
1779267277.537628,1540,1772,6_S
1779267277.54208,2185,1978,6_S
1779267277.542311,2941,1984,6_S
1779267277.542445,2083,2036,6_S
1779267277.54252,1359,2029,6_S
1779267277.54259,1276,2302,6_S
1779267277.5426629,2121,2559,6_S
1779267277.542751,1737,2368,6_S
1779267277.549988,2894,2063,6_S
1779267277.553827,2606,1968,6_S
1779267277.554521,1320,2223,6_S
1779267277.558851,1730,2059,6_S
1779267277.56488,2220,1751,6_S
1779267277.56565,2774,1993,6_S
1779267277.566089,2183,2519,6_S
1779267277.566329,1819,2561,6_S
1779267277.569679,1909,2080,6_S
1779267277.569813,2085,1896,6_S
1779267277.569877,1985,2028,6_S
1779267277.569994,1956,2344,6_S
1779267277.570146,1844,2174,6_S
1779267277.570339,719,2197,6_S
1779267277.572989,2365,2345,6_S
1779267277.574336,3548,2636,6_S
1779267277.5820239,1759,2328,6_S
1779267277.582284,1810,2058,6_S
1779267277.5853848,1822,1990,6_S
1779267277.5860531,1881,2331,6_S
1779267277.588256,1701,2034,6_S
1779267277.588984,2817,1950,6_S
1779267277.590676,2111,2141,6_S
1779267277.5966668,2622,2545,6_S
1779267277.597164,1921,2537,6_S
1779267277.597614,1371,2051,6_S
1779267277.59817,2457,1724,6_S
1779267277.598544,2667,2342,6_S
1779267277.6018372,1413,2100,6_S
1779267277.6032572,1787,1972,6_S
1779267277.6092002,1858,2265,6_S
1779267277.610136,2266,2332,6_S
1779267277.611935,1957,2621,6_S
1779267277.614047,1365,2278,6_S
1779267277.614468,2898,2002,6_S
1779267277.617172,1879,1942,6_S
1779267277.6190789,2436,1929,6_S
1779267277.6254132,2233,2231,6_S
1779267277.626115,1012,2146,6_S
1779267277.626627,2414,2441,6_S
1779267277.629338,1878,2486,6_S
1779267277.6304488,2278,2245,6_S
1779267277.630532,2157,1882,6_S
1779267277.630602,1892,1965,6_S
1779267277.633277,1790,2398,6_S
1779267277.634659,1890,1953,6_S
1779267277.6433752,2484,1905,6_S
1779267277.6462479,2784,2495,6_S
1779267277.65056,1553,2594,6_S
1779267277.656779,2038,2271,6_S
1779267277.657363,1902,1816,6_S
1779267277.657987,2740,2124,6_S
1779267277.6612558,1658,2138,6_S
1779267277.661371,2265,1950,6_S
1779267277.661452,1957,2119,6_S
1779267277.6616042,1584,2137,6_S
1779267277.661708,1363,2324,6_S
1779267277.661781,3544,2268,6_S
1779267277.661868,2218,2106,6_S
1779267277.663352,2124,2101,6_S
1779267277.6709802,1636,2166,6_S
1779267277.673692,1564,2175,6_S
1779267277.674009,2469,1854,6_S
1779267277.676658,2784,1934,6_S
1779267277.677373,1528,2331,6_S
1779267277.677742,1339,2531,6_S
1779267277.6797,2489,2104,6_S
1779267277.685736,2035,2103,6_S
1779267277.6861382,1519,1987,6_S
1779267277.686652,2028,2043,6_S
1779267277.68703,2650,1847,6_S
1779267277.68744,2491,2100,6_S
1779267277.6904268,1636,2129,6_S
1779267277.690511,2168,2431,6_S
1779267277.69312,1281,2353,6_S
1779267277.6945071,2645,1938,6_S
1779267277.701836,3201,1953,6_S
1779267277.7031832,829,2134,6_S
1779267277.709138,1822,2068,6_S
1779267277.711246,1698,1734,6_S
1779267277.711761,2452,2018,6_S
1779267277.718795,2416,2291,6_S
1779267277.7192771,2293,2342,6_S
1779267277.71967,1787,2040,6_S
1779267277.720036,1600,1854,6_S
1779267277.720465,1997,1929,6_S
1779267277.720651,2131,1985,6_S
1779267277.723541,2067,1888,6_S
1779267277.7239501,1987,1970,6_S
1779267277.724013,2525,2101,6_S
1779267277.725387,2163,2555,6_S
1779267277.73628,2039,2118,6_S
1779267277.738812,755,2045,6_S
1779267277.741506,2096,1638,6_S
1779267277.748804,2731,2092,6_S
1779267277.749577,1923,1940,6_S
1779267277.749951,2400,2001,6_S
1779267277.750388,1713,2261,6_S
1779267277.75087,2054,2485,6_S
1779267277.7546601,1954,2217,6_S
1779267277.754805,2033,1959,6_S
1779267277.754913,2043,1925,6_S
1779267277.7550569,1645,1842,6_S
1779267277.755169,2430,2074,6_S
1779267277.755235,2644,1978,6_S
1779267277.755347,1556,1965,6_S
1779267277.7568378,1592,2459,6_S
1779267277.759507,2674,2396,6_S
1779267277.761007,2046,2028,6_S
1779267277.7681122,1963,1769,6_S
1779267277.769701,2339,2044,6_S
1779267277.7725198,1897,2030,6_S
1779267277.7730439,1833,1863,6_S
1779267277.773608,1605,1990,6_S
1779267277.773968,1899,2184,6_S
1779267277.777316,2666,2349,6_S
1779267277.779476,2035,1901,6_S
1779267277.779763,2413,2128,6_S
1779267277.7872589,1512,2054,6_S
1779267277.7875772,1778,2120,6_S
1779267277.7881658,1625,1886,6_S
1779267277.788536,2779,1723,6_S
1779267277.7888472,2670,2171,6_S
1779267277.7922618,1498,2545,6_S
1779267277.792347,1764,2285,6_S
1779267277.800475,2073,1987,6_S
1779267277.801274,2181,1839,6_S
1779267277.8041759,2005,2174,6_S
1779267277.8095949,2141,2052,6_S
1779267277.8166668,2123,1945,6_S
1779267277.8170938,1636,2096,6_S
1779267277.8176541,1798,2306,6_S
1779267277.817947,2564,2239,6_S
1779267277.8182468,2163,2065,6_S
1779267277.818654,1961,1913,6_S
1779267277.820981,1953,1977,6_S
1779267277.82208,2056,2022,6_S
1779267277.8222342,1700,1842,6_S
1779267277.822334,2592,1958,6_S
1779267277.8224251,1861,2209,6_S
1779267277.825106,1832,2362,6_S
1779267277.8265128,2439,2038,6_S
1779267277.833179,1907,1825,6_S
1779267277.834409,2242,1890,6_S
1779267277.8375092,1967,2084,6_S
1779267277.8379269,1989,1797,6_S
1779267277.8430002,1804,1937,6_S
1779267277.843379,1930,2190,6_S
1779267277.850462,1911,2496,6_S
1779267277.85111,1986,2285,6_S
1779267277.851386,2142,2016,6_S
1779267277.851935,1970,1943,6_S
1779267277.8522618,2268,2120,6_S
1779267277.85466,2298,1929,6_S
1779267277.8555782,2033,1946,6_S
1779267277.855665,1864,2134,6_S
1779267277.857162,2128,2371,6_S
1779267277.864744,1975,2241,6_S
1779267277.867535,2123,2036,6_S
1779267277.8702211,1891,1896,6_S
1779267277.8711722,1987,1999,6_S
1779267277.87317,2001,2001,6_S
1779267277.879498,2204,1862,6_S
1779267277.8800051,2026,1968,6_S
1779267277.880333,1923,2261,6_S
1779267277.880733,2017,2368,6_S
1779267277.881265,2081,2143,6_S
1779267277.884981,2151,2000,6_S
1779267277.8859699,1903,2037,6_S
1779267277.886088,2006,2046,6_S
1779267277.886227,2106,1820,6_S
1779267277.8863082,2098,1863,6_S
1779267277.888937,2029,2207,6_S
1779267277.8902771,1975,2466,6_S
1779267277.898819,1909,2222,6_S
1779267277.900974,1885,1966,6_S
1779267277.9035451,1950,1946,6_S
1779267277.903832,2060,2093,6_S
1779267277.904396,2072,1939,6_S
1779267277.9095209,1940,1891,6_S
1779267277.9099,1996,2100,6_S
1779267277.916375,2166,2474,6_S
1779267277.9170802,2058,2377,6_S
1779267277.917473,2040,1971,6_S
1779267277.917665,2088,1889,6_S
1779267277.91805,2017,2053,6_S
1779267277.918286,1946,2081,6_S
1779267277.9185011,1952,1866,6_S
1779267277.921375,1951,2013,6_S
1779267277.922684,1915,2258,6_S
1779267277.931176,1927,2403,6_S
1779267277.932461,1917,2117,6_S
1779267277.935082,2007,1966,6_S
1779267277.937061,1855,2009,6_S
1779267277.937885,1946,2036,6_S
1779267277.9387012,2013,1880,6_S
1779267277.946219,2007,1878,6_S
1779267277.9466188,1881,2154,6_S
1779267277.946982,2014,2367,6_S
1779267277.947493,2197,2220,6_S
1779267277.9505029,2054,2072,6_S
1779267277.951645,1981,1975,6_S
1779267277.951751,1981,2055,6_S
1779267277.951862,1740,1945,6_S
1779267277.9532428,1789,1861,6_S
1779267277.954589,1897,1999,6_S
1779267277.957226,1775,2376,6_S
1779267277.96334,1891,2303,6_S
1779267277.9643142,1841,1929,6_S
1779267277.965622,1850,1857,6_S
1779267277.965827,1837,2090,6_S
1779267277.968779,1703,2089,6_S
1779267277.971157,2001,1841,6_S
1779267277.9738722,2371,1912,6_S
1779267277.980358,2099,2286,6_S
1779267277.981005,1928,2484,6_S
1779267277.981453,1901,2196,6_S
1779267277.981646,1984,1975,6_S
1779267277.9851468,1876,1741,6_S
1779267277.985522,1969,1979,6_S
1779267277.9856782,2323,1831,6_S
1779267277.988081,2399,1881,6_S
1779267277.99432,1557,2137,6_S
1779267277.994528,1057,2409,6_S
1779267277.995181,1789,2138,6_S
1779267277.995976,2635,1902,6_S
1779267277.999398,2073,1815,6_S
1779267278.000055,1866,1989,6_S
1779267278.000316,1589,1924,6_S
1779267278.011229,2370,1839,6_S
1779267278.011764,2341,2166,6_S
1779267278.012247,1838,2405,6_S
1779267278.012653,1954,2225,6_S
1779267278.0131369,1682,1982,6_S
1779267278.01349,1710,1816,6_S
1779267278.017113,1909,1995,6_S
1779267278.017204,2102,2108,6_S
1779267278.018452,1901,1960,6_S
1779267278.0210738,1323,1986,6_S
1779267278.022421,1768,2376,6_S
1779267278.029601,2319,2520,6_S
1779267278.030477,1917,2033,6_S
1779267278.031232,2156,1865,6_S
1779267278.034656,1905,1970,6_S
1779267278.035242,1909,2053,6_S
1779267278.037864,1872,1795,6_S
1779267278.0380118,1566,1776,6_S
1779267278.046727,1890,2081,6_S
1779267278.047306,2217,2371,6_S
1779267278.047901,1876,2158,6_S
1779267278.048445,2077,1968,6_S
1779267278.0489001,2077,1907,6_S
1779267278.0516942,2082,2046,6_S
1779267278.051938,1411,1966,6_S
1779267278.053314,2099,1765,6_S
1779267278.054663,2285,2049,6_S
1779267278.065848,2110,2300,6_S
1779267278.0664089,1955,2162,6_S
1779267278.0668511,1252,1967,6_S
1779267278.069248,1917,2190,6_S
1779267278.070047,2484,2091,6_S
1779267278.0784798,2198,1824,6_S
1779267278.078859,2202,1779,6_S
1779267278.0790799,1799,1943,6_S
1779267278.079382,1764,2308,6_S
1779267278.079502,2166,2400,6_S
1779267278.08251,2262,1958,6_S
1779267278.083402,1755,1815,6_S
1779267278.0837271,1565,1949,6_S
1779267278.083827,2045,2107,6_S
1779267278.085171,1986,1711,6_S
1779267278.0867531,1870,1784,6_S
1779267278.088201,1789,2147,6_S
1779267278.090841,2001,2444,6_S
1779267278.101421,2538,2194,6_S
1779267278.10196,2240,1903,6_S
1779267278.105118,1767,1794,6_S
1779267278.107383,1342,1954,6_S
1779267278.113771,1868,1845,6_S
1779267278.1143281,2086,1788,6_S
1779267278.114811,2360,1952,6_S
1779267278.115121,2001,2251,6_S
1779267278.115465,2073,2314,6_S
1779267278.115728,1928,1987,6_S
1779267278.1193862,1845,1759,6_S
1779267278.119492,2118,1836,6_S
1779267278.119566,2292,1680,6_S
1779267278.1196349,1882,1575,6_S
1779267278.121133,1865,1823,6_S
1779267278.127487,1794,2231,6_S
1779267278.129462,1748,2325,6_S
1779267278.132382,2253,2009,6_S
1779267278.1328871,2394,1762,6_S
1779267278.135264,1889,1895,6_S
1779267278.1363149,1799,1944,6_S
1779267278.144586,1794,1720,6_S
1779267278.1449401,1990,1729,6_S
1779267278.145354,2277,2032,6_S
1779267278.145779,1896,2442,6_S
1779267278.145986,2048,2050,6_S
1779267278.149777,2169,1789,6_S
1779267278.14992,1855,1864,6_S
1779267278.150196,1994,2018,6_S
1779267278.1502888,2121,1846,6_S
1779267278.152925,2071,1709,6_S
1779267278.154314,2045,2046,6_S
1779267278.1635141,1939,2396,6_S
1779267278.1638641,1887,2171,6_S
1779267278.167459,1630,1909,6_S
1779267278.1699488,2219,1719,6_S
1779267278.178572,2522,1805,6_S
1779267278.1793401,1770,1705,6_S
1779267278.179871,1676,1674,6_S
1779267278.183647,2377,1897,6_S
1779267278.1837518,2133,2196,6_S
1779267278.184075,1924,2206,6_S
1779267278.1842408,2049,1934,6_S
1779267278.184309,2233,1790,6_S
1779267278.184373,1948,1878,6_S
1779267278.184462,2012,1967,6_S
1779267278.1845272,2039,1598,6_S
1779267278.193005,1895,1672,6_S
1779267278.1940322,1948,2076,6_S
1779267278.1943161,1957,2371,6_S
1779267278.195009,2024,2003,6_S
1779267278.196376,1976,1729,6_S
1779267278.198855,1948,1780,6_S
1779267278.201521,2054,1969,6_S
1779267278.202281,1901,1645,6_S
1779267278.2024698,2019,1525,6_S
1779267278.204406,2163,1863,6_S
1779267278.2107,1933,2274,6_S
1779267278.2108428,2078,2162,6_S
1779267278.2111082,2010,1839,6_S
1779267278.215921,1811,1699,6_S
1779267278.2160058,1881,1831,6_S
1779267278.2174258,1923,1810,6_S
1779267278.2187939,2178,1499,6_S
1779267278.2213,2089,1731,6_S
1779267278.22859,1976,2236,6_S
1779267278.230659,2071,2244,6_S
1779267278.233131,1955,1800,6_S
1779267278.2339368,2020,1606,6_S
1779267278.236705,1941,1754,6_S
1779267278.237063,1922,1845,6_S
1779267278.237948,1968,1492,6_S
1779267278.246169,1922,1552,6_S
1779267278.246618,1870,2007,6_S
1779267278.247338,2017,2376,6_S
1779267278.250279,1939,1992,6_S
1779267278.2513542,2038,1669,6_S
1779267278.2517838,2015,1681,6_S
1779267278.251869,1940,1922,6_S
1779267278.2519429,1909,1660,6_S
1779267278.253292,1895,1568,6_S
1779267278.254696,2083,1875,6_S
1779267278.261847,1897,2294,6_S
1779267278.2650208,2003,2055,6_S
1779267278.265578,1932,1752,6_S
1779267278.265884,1911,1665,6_S
1779267278.266167,1980,1937,6_S
1779267278.2697809,2178,1807,6_S
1779267278.2722712,2036,1515,6_S
1779267278.272557,1808,1797,6_S
1779267278.272745,1991,2246,6_S
1779267278.2800388,2097,2364,6_S
1779267278.2804182,1958,1943,6_S
1779267278.280791,1659,1677,6_S
1779267278.281601,2220,1755,6_S
1779267278.285881,2155,1940,6_S
1779267278.286251,2230,1614,6_S
1779267278.286334,1876,1682,6_S
1779267278.288956,2045,2155,6_S
1779267278.290368,2268,2486,6_S
1779267278.2930748,2060,2106,6_S
1779267278.294462,2109,1760,6_S
1779267278.301919,2082,1786,6_S
1779267278.303019,1942,2003,6_S
1779267278.304045,1681,1807,6_S
1779267278.3084621,1787,1749,6_S
1779267278.308851,2097,2032,6_S
1779267278.309324,2108,2490,6_S
1779267278.309601,1963,2295,6_S
1779267278.312712,2121,1898,6_S
1779267278.313073,2468,1748,6_S
1779267278.322866,2137,1973,6_S
1779267278.32345,1694,1893,6_S
1779267278.323832,1813,1662,6_S
1779267278.324236,1930,1910,6_S
1779267278.324613,2044,2300,6_S
1779267278.324925,2053,2355,6_S
1779267278.3283892,2048,1964,6_S
1779267278.3295412,1853,1754,6_S
1779267278.330946,2101,1864,6_S
1779267278.332295,2090,1974,6_S
1779267278.3456159,2114,1645,6_S
1779267278.346091,2137,1706,6_S
1779267278.346714,2209,2160,6_S
1779267278.349578,2135,2488,6_S
1779267278.3507562,1838,2045,6_S
1779267278.353568,1893,1816,6_S
1779267278.360333,1975,1821,6_S
1779267278.360667,1939,2004,6_S
1779267278.3610098,1952,1803,6_S
1779267278.3612869,2126,1660,6_S
1779267278.36193,2070,2021,6_S
1779267278.3624058,2156,2486,6_S
1779267278.3627038,2245,2228,6_S
1779267278.362911,2079,1862,6_S
1779267278.363254,1951,1763,6_S
1779267278.367827,2047,1998,6_S
1779267278.367925,2032,1855,6_S
1779267278.369277,2016,1670,6_S
1779267278.370707,1951,1943,6_S
1779267278.3723679,1958,2429,6_S
1779267278.3751621,1918,2472,6_S
1779267278.376759,2113,2031,6_S
1779267278.383571,1872,1796,6_S
1779267278.3852642,2161,1873,6_S
1779267278.389451,2126,2054,6_S
1779267278.389855,2103,1763,6_S
1779267278.390391,1954,1865,6_S
1779267278.390819,2009,2241,6_S
1779267278.393897,2136,2527,6_S
1779267278.394332,2052,2086,6_S
1779267278.397619,2136,1795,6_S
1779267278.40462,1911,1808,6_S
1779267278.404854,2017,2114,6_S
1779267278.405282,2065,1875,6_S
1779267278.4056609,2045,1734,6_S
1779267278.4058769,2153,2140,6_S
1779267278.410916,2007,2557,6_S
1779267278.411019,1856,2381,6_S
1779267278.411093,1892,1964,6_S
1779267278.412596,1965,1827,6_S
1779267278.4226649,2045,2064,6_S
1779267278.423661,2058,1970,6_S
1779267278.4248042,2154,1703,6_S
1779267278.42635,1905,1983,6_S
1779267278.428886,1949,2437,6_S
1779267278.4290738,2163,2455,6_S
1779267278.429481,1974,2083,6_S
1779267278.429714,1930,1835,6_S
1779267278.43354,2117,1927,6_S
1779267278.436102,2147,2019,6_S
1779267278.443101,2116,1643,6_S
1779267278.443753,1804,1846,6_S
1779267278.444535,1902,2265,6_S
1779267278.444971,2200,2519,6_S
1779267278.4453518,2185,2120,6_S
1779267278.448533,2019,1863,6_S
1779267278.4499662,1900,1792,6_S
1779267278.450198,1842,2051,6_S
1779267278.450329,2108,1746,6_S
1779267278.453059,2290,1766,6_S
1779267278.4544818,2066,2138,6_S
1779267278.457181,2026,2573,6_S
1779267278.4586298,2046,2223,6_S
1779267278.4665148,2070,1855,6_S
1779267278.467542,2072,1810,6_S
1779267278.4685462,1986,2022,6_S
1779267278.471914,2028,1912,6_S
1779267278.472505,2008,1703,6_S
1779267278.4763148,2012,1974,6_S
1779267278.479139,1992,2519,6_S
1779267278.479372,1986,2425,6_S
1779267278.4796648,2101,2030,6_S
1779267278.486619,2182,1772,6_S
1779267278.4868941,1954,1894,6_S
1779267278.48749,2024,2045,6_S
1779267278.487822,2035,1673,6_S
1779267278.491561,2006,1888,6_S
1779267278.4929988,2069,2349,6_S
1779267278.493195,2119,2553,6_S
1779267278.493284,2119,2122,6_S
1779267278.494674,2015,1840,6_S
1779267278.503579,2111,1865,6_S
1779267278.505205,2079,2052,6_S
1779267278.506866,1717,1924,6_S
1779267278.50963,1751,1722,6_S
1779267278.509967,2585,2101,6_S
1779267278.510336,2342,2504,6_S
1779267278.510612,2043,2423,6_S
1779267278.513519,1561,2046,6_S
1779267278.5145102,2303,1749,6_S
1779267278.5171049,2239,2137,6_S
1779267278.517417,1737,2049,6_S
1779267278.528345,2072,1736,6_S
1779267278.528862,2308,2023,6_S
1779267278.528943,1560,2615,6_S
1779267278.5290182,2024,2423,6_S
1779267278.529092,2673,1910,6_S
1779267278.529161,1682,1804,6_S
1779267278.530508,1864,2024,6_S
1779267278.533129,2311,1999,6_S
1779267278.534477,2436,1808,6_S
1779267278.537141,1814,1839,6_S
1779267278.546897,1998,2406,6_S
1779267278.550695,1931,2595,6_S
1779267278.562552,2024,2125,6_S
1779267278.562987,2259,1925,6_S
1779267278.563393,2221,1940,6_S
1779267278.563661,1633,2206,6_S
1779267278.564074,1924,1929,6_S
1779267278.5644212,1934,1834,6_S
1779267278.564683,2079,2281,6_S
1779267278.565066,1728,2736,6_S
1779267278.565425,2763,2425,6_S
1779267278.565758,2801,2082,6_S
1779267278.569963,1542,2035,6_S
1779267278.5703418,1500,2253,6_S
1779267278.5704262,2272,2153,6_S
1779267278.570503,2230,1993,6_S
1779267278.570574,2125,2229,6_S
1779267278.5733728,2234,2798,6_S
1779267278.5819929,1711,2640,6_S
1779267278.583103,1939,2349,6_S
1779267278.586566,1640,2218,6_S
1779267278.5870059,1748,2338,6_S
1779267278.590355,2643,2331,6_S
1779267278.5915232,2479,2180,6_S
1779267278.594197,1989,2301,6_S
1779267278.59444,1800,2844,6_S
1779267278.5946639,1755,2908,6_S
1779267278.601014,2007,2406,6_S
1779267278.601519,2691,2141,6_S
1779267278.601747,2045,2390,6_S
1779267278.6022139,1710,2511,6_S
1779267278.60247,2047,2178,6_S
1779267278.603263,1946,2318,6_S
1779267278.608276,2707,2784,6_S
1779267278.6084428,2001,3266,6_S
1779267278.608596,1509,2838,6_S
1779267278.611454,1928,2500,6_S
1779267278.612872,2077,2448,6_S
1779267278.6142561,2182,2655,6_S
1779267278.6169689,2273,2763,6_S
1779267278.6261,1631,2693,6_S
1779267278.627229,1786,3103,6_S
1779267278.62908,2093,3289,6_S
1779267278.63227,2710,3193,6_S
1779267278.6364129,2486,2744,6_S
1779267278.644355,1205,2557,6_S
1779267278.64462,2677,2773,6_S
1779267278.645123,1845,2916,6_S
1779267278.6458602,1794,2887,6_S
1779267278.649013,2547,2896,6_S
1779267278.6500921,2214,3297,6_S
1779267278.650261,1992,3523,6_S
1779267278.650502,1514,2972,6_S
1779267278.650659,1586,2659,6_S
1779267278.650815,3574,3015,6_S
1779267278.65088,1997,3190,6_S
1779267278.650941,1244,2838,6_S
1779267278.6522849,2125,2854,6_S
1779267278.6639621,2811,3449,6_S
1779267278.6644669,1452,3516,6_S
1779267278.675227,1758,2980,6_S
1779267278.6761081,2765,2543,6_S
1779267278.676896,2990,2830,6_S
1779267278.677204,1200,2903,6_S
1779267278.680983,1566,3012,6_S
1779267278.681119,2184,2649,6_S
1779267278.6812239,2290,2991,6_S
1779267278.681474,1127,2947,6_S
1779267278.6815639,2238,3333,6_S
1779267278.681658,2785,2708,6_S
1779267278.681725,1673,2272,6_S
1779267278.681869,2578,2930,6_S
1779267278.683222,2164,2627,6_S
1779267278.684704,2970,2611,6_S
1779267278.686172,1756,2908,6_S
1779267278.6930969,1530,3129,6_S
1779267278.694636,2861,3034,6_S
1779267278.6960378,2166,2641,6_S
1779267278.69926,1800,2545,6_S
1779267278.701727,1572,2295,6_S
1779267278.704368,373,2570,6_S
1779267278.709804,2560,2083,6_S
1779267278.710203,4095,2262,6_S
1779267278.710857,1421,2660,6_S
1779267278.711137,3198,2890,6_S
1779267278.7115798,2680,2749,6_S
1779267278.71428,2283,2038,6_S
1779267278.715282,3289,2179,6_S
1779267278.7156758,973,2653,6_S
1779267278.717037,1736,2335,6_S
1779267278.7183712,1536,2265,6_S
1779267278.7249641,3532,2270,6_S
1779267278.7251709,2772,2696,6_S
1779267278.726018,1376,2593,6_S
1779267278.7272692,1798,2291,6_S
1779267278.729356,2603,2219,6_S
1779267278.732378,2467,2084,6_S
1779267278.734284,2184,2246,6_S
1779267278.734632,3363,2290,6_S
1779267278.7398121,3481,2377,6_S
1779267278.743437,1638,2484,6_S
1779267278.744378,2805,2273,6_S
1779267278.744763,2055,2763,6_S
1779267278.744828,918,2251,6_S
1779267278.747256,3042,2153,6_S
1779267278.748589,2692,2183,6_S
1779267278.751327,3639,2220,6_S
1779267278.756978,1288,2550,6_S
1779267278.758535,1764,2613,6_S
1779267278.759904,3352,2694,6_S
1779267278.7620668,2813,2176,6_S
1779267278.762548,1866,2236,6_S
1779267278.765313,1514,2354,6_S
1779267278.767246,2148,2191,6_S
1779267278.772966,4047,2357,6_S
1779267278.77363,2006,2366,6_S
1779267278.7743292,181,2158,6_S
1779267278.7769952,2417,2877,6_S
1779267278.7776508,2716,2566,6_S
1779267278.7780612,2618,2245,6_S
1779267278.7782311,2828,2077,6_S
1779267278.780965,2538,2232,6_S
1779267278.7861,2366,2222,6_S
1779267278.786701,1943,2230,6_S
1779267278.788592,2654,1882,6_S
1779267278.790587,1874,2476,6_S
1779267278.790902,2037,2617,6_S
1779267278.7932951,3700,2306,6_S
1779267278.795035,2076,2455,6_S
1779267278.799507,1477,2184,6_S
1779267278.799724,2476,2126,6_S
1779267278.8029802,2880,2092,6_S
1779267278.803071,987,2023,6_S
1779267278.8041978,2931,2187,6_S
1779267278.8069918,3151,2488,6_S
1779267278.808377,995,2038,6_S
1779267278.814314,2879,2134,6_S
1779267278.8154712,3178,1657,6_S
1779267278.815996,2168,2138,6_S
1779267278.817991,2215,2207,6_S
1779267278.818202,2923,2201,6_S
1779267278.822176,2147,2580,6_S
1779267278.826754,875,2772,6_S
1779267278.827255,3986,2862,6_S
1779267278.827435,3355,3018,6_S
1779267278.830384,1222,2735,6_S
1779267278.8306298,2230,3135,6_S
1779267278.8330822,2280,3917,6_S
1779267278.8393228,1836,4036,6_S
1779267278.841779,3006,4095,6_S
1779267278.8421,1359,4095,6_S
1779267278.842238,1939,3963,6_S
1779267278.8441489,2213,3577,6_S
1779267278.8448372,2010,3485,6_S
1779267278.850852,2182,3701,6_S
1779267278.851205,2557,4066,6_S
1779267278.851393,1824,4095,6_S
1779267278.854523,2619,4095,6_S
1779267278.854582,3423,4095,6_S
1779267278.85727,1695,4095,6_S
1779267278.858625,1288,3894,6_S
1779267278.866,2622,3770,6_S
1779267278.8670762,2399,3544,6_S
1779267278.869034,2367,3670,6_S
1779267278.869217,1861,3200,6_S
1779267278.8695612,2274,2975,6_S
1779267278.871385,2378,2881,6_S
1779267278.878124,2312,2873,6_S
1779267278.8783538,2208,2821,6_S
1779267278.878576,1833,2448,6_S
1779267278.8788779,1667,2416,6_S
1779267278.881943,2614,2096,6_S
1779267278.883324,2438,2010,6_S
1779267278.896949,2276,1877,6_S
1779267278.902397,2454,2590,6_S
1779267278.9030058,1851,2310,6_S
1779267278.903504,1923,1905,6_S
1779267278.9038022,1955,1941,6_S
1779267278.906618,1923,2018,6_S
1779267278.907611,2291,1486,6_S
1779267278.9077919,2597,2111,6_S
1779267278.9079602,1472,1989,6_S
1779267278.908074,1841,1831,6_S
1779267278.908175,2001,1712,6_S
1779267278.908266,2649,2183,6_S
1779267278.908439,1976,2143,6_S
1779267278.911069,1690,1956,6_S
1779267278.912406,1810,2021,6_S
1779267278.91983,2897,1792,6_S
1779267278.922932,1977,1917,6_S
1779267278.9233658,1776,1854,6_S
1779267278.923931,2013,1993,6_S
1779267278.928224,2190,2088,6_S
1779267278.92866,1803,1911,6_S
1779267278.933484,2284,1833,6_S
1779267278.933943,2485,1946,6_S
1779267278.934434,1390,1852,6_S
1779267278.934722,1618,1856,6_S
1779267278.934965,2379,1921,6_S
1779267278.938349,2157,1701,6_S
1779267278.938449,2352,1816,6_S
1779267278.9473941,1572,2050,6_S
1779267278.949943,1753,1897,6_S
1779267278.95439,2242,1870,6_S
1779267278.9547892,1661,1869,6_S
1779267278.959954,2518,1861,6_S
1779267278.960453,2269,2005,6_S
1779267278.9609861,1301,1841,6_S
1779267278.961288,2064,1802,6_S
1779267278.9615731,2264,2054,6_S
1779267278.963968,2101,1932,6_S
1779267278.96492,2010,1854,6_S
1779267278.9650822,1811,1959,6_S
1779267278.965201,2042,1957,6_S
1779267278.966571,1745,1913,6_S
1779267278.9691908,1825,1737,6_S
1779267278.970718,1935,1939,6_S
1779267278.976388,2228,1860,6_S
1779267278.977586,2530,2003,6_S
1779267278.978325,1934,1992,6_S
1779267278.980465,1938,2085,6_S
1779267278.982831,1114,1648,6_S
1779267278.985288,3075,2015,6_S
1779267278.9908109,2036,2042,6_S
1779267278.99138,1087,1780,6_S
1779267278.99194,2301,1866,6_S
1779267278.9953039,2395,1967,6_S
1779267278.995455,1627,1989,6_S
1779267278.995643,1554,1780,6_S
1779267278.9971,2498,1664,6_S
1779267279.003773,2352,1942,6_S
1779267279.010999,1412,1709,6_S
1779267279.016295,1808,1658,6_S
1779267279.016725,2078,1786,6_S
1779267279.01697,2183,1769,6_S
1779267279.0173812,1583,2317,6_S
1779267279.0177898,2426,1885,6_S
1779267279.018267,2155,1756,6_S
1779267279.018566,2106,1866,6_S
1779267279.021724,1855,1786,6_S
1779267279.021935,1926,1775,6_S
1779267279.022047,1846,1903,6_S
1779267279.022188,2203,1977,6_S
1779267279.02481,2076,1861,6_S
1779267279.026241,1701,1779,6_S
1779267279.0372732,2420,1748,6_S
1779267279.037601,1996,1583,6_S
1779267279.038034,1987,1612,6_S
1779267279.042549,2114,1608,6_S
1779267279.0473611,2869,1702,6_S
1779267279.047863,1524,1990,6_S
1779267279.048304,1502,2021,6_S
1779267279.048554,2169,1765,6_S
1779267279.049151,2412,1562,6_S
1779267279.0523698,2374,1927,6_S
1779267279.0524778,1034,2007,6_S
1779267279.0525749,1571,1742,6_S
1779267279.052633,1959,1907,6_S
1779267279.06044,2112,1956,6_S
1779267279.061732,2281,1977,6_S
1779267279.063832,2364,1811,6_S
1779267279.0657349,2072,1846,6_S
1779267279.066515,1142,1780,6_S
1779267279.068715,3133,1775,6_S
1779267279.074036,2001,1806,6_S
1779267279.074551,1767,1416,6_S
1779267279.0748239,2705,1914,6_S
1779267279.075318,1393,2087,6_S
1779267279.0755992,1658,1904,6_S
1779267279.0788019,3000,2068,6_S
1779267279.078897,1312,1995,6_S
1779267279.080362,1857,1940,6_S
1779267279.083026,1487,1971,6_S
1779267279.084244,2173,1726,6_S
1779267279.090915,3173,1678,6_S
1779267279.0917099,1645,2164,6_S
1779267279.0942059,1468,2090,6_S
1779267279.094558,2335,1855,6_S
1779267279.0966852,1695,1724,6_S
1779267279.098922,2301,1704,6_S
1779267279.1040032,2870,1865,6_S
1779267279.104338,1954,1685,6_S
1779267279.104749,1258,1953,6_S
1779267279.105002,1883,1915,6_S
1779267279.1083572,2262,2065,6_S
1779267279.108445,2407,1979,6_S
1779267279.1113112,1971,1904,6_S
1779267279.1171572,2061,1803,6_S
1779267279.117932,1813,1923,6_S
1779267279.120773,1849,1856,6_S
1779267279.1257029,2826,1535,6_S
1779267279.1261172,2030,1934,6_S
1779267279.1316009,1802,2075,6_S
1779267279.132371,2454,1807,6_S
1779267279.132847,2107,1742,6_S
1779267279.1360629,2561,1781,6_S
1779267279.1361349,1418,2041,6_S
1779267279.1362638,878,1789,6_S
1779267279.136374,1695,1685,6_S
1779267279.136492,3459,1777,6_S
1779267279.1391308,2130,1883,6_S
1779267279.140509,1391,1843,6_S
1779267279.1517398,1823,1747,6_S
1779267279.152253,2293,1571,6_S
1779267279.15257,2416,1758,6_S
1779267279.156785,1229,1738,6_S
1779267279.162425,2781,1610,6_S
1779267279.16309,2317,1799,6_S
1779267279.1634638,1023,1946,6_S
1779267279.166025,1800,2132,6_S
1779267279.1670442,2819,2018,6_S
1779267279.1671271,2074,1812,6_S
1779267279.1672761,2294,1809,6_S
1779267279.1673658,1764,1956,6_S
1779267279.1675,1572,1893,6_S
1779267279.168879,2282,1654,6_S
1779267279.1754508,1930,1821,6_S
1779267279.1833239,2381,1838,6_S
1779267279.188718,1898,2021,6_S
1779267279.188941,1594,2088,6_S
1779267279.189984,1560,1781,6_S
1779267279.190239,3446,1864,6_S
1779267279.192624,2282,1761,6_S
1779267279.1935701,2233,1693,6_S
1779267279.193677,2199,1975,6_S
1779267279.1938078,1489,1955,6_S
1779267279.193917,1991,2102,6_S
1779267279.1939788,2094,1881,6_S
1779267279.194039,2042,1880,6_S
1779267279.1966872,1936,1722,6_S
1779267279.198089,2981,1777,6_S
1779267279.205088,1105,2233,6_S
1779267279.205982,638,1753,6_S
1779267279.207426,2122,1884,6_S
1779267279.209665,2848,2095,6_S
1779267279.210274,3638,2200,6_S
1779267279.2127402,894,1895,6_S
1779267279.213061,1719,1825,6_S
1779267279.214912,2012,1919,6_S
1779267279.220248,2152,1668,6_S
1779267279.220573,2636,1619,6_S
1779267279.220842,2099,1935,6_S
1779267279.2242718,1419,2214,6_S
1779267279.2243829,2417,1973,6_S
1779267279.231828,2071,1810,6_S
1779267279.23561,1809,1787,6_S
1779267279.236106,2121,1850,6_S
1779267279.2384279,2174,2021,6_S
1779267279.240875,1673,1716,6_S
1779267279.246355,2459,1820,6_S
1779267279.246921,2085,2021,6_S
1779267279.247457,2515,2079,6_S
1779267279.25089,2097,1706,6_S
1779267279.251002,1984,1914,6_S
1779267279.25108,1617,1837,6_S
1779267279.2511659,2452,1880,6_S
1779267279.251279,2098,1819,6_S
1779267279.252667,2322,1785,6_S
1779267279.253948,1648,1953,6_S
1779267279.2565591,1953,2195,6_S
1779267279.262348,2683,1865,6_S
1779267279.263743,1387,1916,6_S
1779267279.265237,1660,1810,6_S
1779267279.270897,2111,1847,6_S
1779267279.2729652,3847,1702,6_S
1779267279.279209,1897,1930,6_S
1779267279.279571,1198,1969,6_S
1779267279.280249,2181,2112,6_S
1779267279.280735,2453,1857,6_S
1779267279.281114,1937,1833,6_S
1779267279.281402,1682,2073,6_S
1779267279.281903,1382,1893,6_S
1779267279.284558,3130,1864,6_S
1779267279.28554,1361,1716,6_S
1779267279.286943,1790,1730,6_S
1779267279.294865,2614,2212,6_S
1779267279.297163,1678,2255,6_S
1779267279.2975922,2350,1898,6_S
1779267279.300274,2354,1916,6_S
1779267279.3006122,1690,1861,6_S
1779267279.3016691,2120,1981,6_S
1779267279.303492,1744,1771,6_S
1779267279.304081,2185,1973,6_S
1779267279.310596,1565,2166,6_S
1779267279.310848,1766,2342,6_S
1779267279.311241,2261,2087,6_S
1779267279.311572,2281,1958,6_S
1779267279.315045,2159,1967,6_S
1779267279.315134,2219,2021,6_S
1779267279.31652,1621,1934,6_S
1779267279.3179488,2173,1786,6_S
1779267279.3205838,3167,2091,6_S
1779267279.327172,1426,2229,6_S
1779267279.3287969,2062,2117,6_S
1779267279.329113,1731,1847,6_S
1779267279.33056,2475,1875,6_S
1779267279.3331652,3128,2044,6_S
1779267279.3355038,1381,2073,6_S
1779267279.3362272,1756,1913,6_S
1779267279.3483431,2119,1924,6_S
1779267279.349304,2275,2132,6_S
1779267279.3497128,2132,2206,6_S
1779267279.349859,1734,2029,6_S
1779267279.3499699,1693,1961,6_S
1779267279.350097,2480,1969,6_S
1779267279.350183,1582,1956,6_S
1779267279.350292,2322,1894,6_S
1779267279.358619,2253,1781,6_S
1779267279.359671,2014,2274,6_S
1779267279.360519,1775,2345,6_S
1779267279.363488,2359,2039,6_S
1779267279.363893,2145,1785,6_S
1779267279.36625,2169,1844,6_S
1779267279.3671958,2235,2085,6_S
1779267279.369189,1396,1840,6_S
1779267279.375833,2076,1809,6_S
1779267279.376309,2790,1978,6_S
1779267279.376523,1756,2354,6_S
1779267279.377049,1018,2136,6_S
1779267279.377385,2807,1957,6_S
1779267279.3814368,2913,2029,6_S
1779267279.3815281,1100,1937,6_S
1779267279.3828979,1984,2112,6_S
1779267279.3845592,2227,2034,6_S
1779267279.385983,2290,2055,6_S
1779267279.396252,1947,2267,6_S
1779267279.396458,2038,2262,6_S
1779267279.399615,2040,2084,6_S
1779267279.404334,1713,2044,6_S
1779267279.404518,2095,1985,6_S
1779267279.4048698,1797,2032,6_S
1779267279.411327,2647,1913,6_S
1779267279.412035,1971,1920,6_S
1779267279.4164171,1730,2264,6_S
1779267279.417084,2235,2288,6_S
1779267279.417252,2123,2238,6_S
1779267279.4173498,1828,1963,6_S
1779267279.417512,2152,2029,6_S
1779267279.4176,1653,2197,6_S
1779267279.4176672,1683,1976,6_S
1779267279.4188328,2731,1922,6_S
1779267279.425554,2031,2187,6_S
1779267279.426389,1984,2165,6_S
1779267279.427217,2878,2447,6_S
1779267279.430866,1408,1990,6_S
1779267279.431322,2163,1923,6_S
1779267279.431628,2283,2065,6_S
1779267279.436713,1876,2074,6_S
1779267279.437087,1714,1934,6_S
1779267279.443454,1803,2054,6_S
1779267279.443993,2129,2213,6_S
1779267279.444716,2076,2205,6_S
1779267279.448391,2139,1958,6_S
1779267279.44853,2137,1879,6_S
1779267279.4486852,2110,1950,6_S
1779267279.4487538,1990,2081,6_S
1779267279.450171,1701,1873,6_S
1779267279.452898,2372,1872,6_S
1779267279.454533,2109,2197,6_S
1779267279.463474,1893,2278,6_S
1779267279.46367,2038,1912,6_S
1779267279.467366,2479,1823,6_S
1779267279.4678662,2124,2069,6_S
1779267279.470409,1486,2151,6_S
1779267279.471228,2168,1948,6_S
1779267279.473983,2184,2009,6_S
1779267279.4806578,1918,2129,6_S
1779267279.481492,1915,2292,6_S
1779267279.48211,1969,2270,6_S
1779267279.4847538,2381,2052,6_S
1779267279.48595,1994,1972,6_S
1779267279.486059,1868,2082,6_S
1779267279.486203,2079,2004,6_S
1779267279.486273,2161,1790,6_S
1779267279.486337,1785,1956,6_S
1779267279.494859,2125,2304,6_S
1779267279.49506,2152,2334,6_S
1779267279.495265,2080,2093,6_S
1779267279.4972968,2025,2006,6_S
1779267279.499939,1944,2097,6_S
1779267279.5004191,2148,2134,6_S
1779267279.500652,2286,1983,6_S
1779267279.503514,2030,2032,6_S
1779267279.5120268,1866,2247,6_S
1779267279.512564,1950,2294,6_S
1779267279.512919,2031,2101,6_S
1779267279.513393,1991,1945,6_S
1779267279.513642,2007,1880,6_S
1779267279.517591,2041,2068,6_S
1779267279.51795,2041,2057,6_S
1779267279.518535,1868,2003,6_S
1779267279.519938,1817,2197,6_S
1779267279.5227919,2140,2314,6_S
1779267279.524145,2178,2218,6_S
1779267279.532039,1967,2061,6_S
1779267279.5330079,1911,1944,6_S
1779267279.535855,1973,1985,6_S
1779267279.53624,2123,2021,6_S
1779267279.536503,2074,2008,6_S
1779267279.536798,1999,2103,6_S
1779267279.541384,2007,2208,6_S
1779267279.54208,1999,2272,6_S
1779267279.5487192,1946,2174,6_S
1779267279.549109,1932,1961,6_S
1779267279.549498,1895,1972,6_S
1779267279.553312,1999,1975,6_S
1779267279.553719,1981,1882,6_S
1779267279.553856,1962,2159,6_S
1779267279.553997,2021,2222,6_S
1779267279.561891,2030,2270,6_S
1779267279.563329,1975,2095,6_S
1779267279.564644,1936,2038,6_S
1779267279.566877,1972,1996,6_S
1779267279.567158,2027,2082,6_S
1779267279.5673752,2043,1867,6_S
1779267279.578123,1864,1909,6_S
1779267279.578688,1909,2088,6_S
1779267279.5789282,1963,2310,6_S
1779267279.579253,1975,2238,6_S
1779267279.5794718,1992,2096,6_S
1779267279.579805,1915,1928,6_S
1779267279.580203,1959,2094,6_S
1779267279.5839381,1917,1971,6_S
1779267279.58409,1820,1878,6_S
1779267279.586804,1987,2042,6_S
1779267279.588149,2140,2273,6_S
1779267279.5964448,1976,2254,6_S
1779267279.5985868,1774,2130,6_S
1779267279.599537,1746,1983,6_S
1779267279.6017978,1933,2075,6_S
1779267279.6025019,2169,2024,6_S
1779267279.605197,2108,1759,6_S
1779267279.6060648,1937,1877,6_S
1779267279.614005,1931,2109,6_S
1779267279.6147468,2093,2279,6_S
1779267279.6154501,2217,2104,6_S
1779267279.6182039,1866,1918,6_S
1779267279.61847,1802,1924,6_S
1779267279.619545,1956,2037,6_S
1779267279.619628,1909,1811,6_S
1779267279.619699,1892,1841,6_S
1779267279.620917,1647,2094,6_S
1779267279.6222541,1800,2245,6_S
1779267279.629907,1849,2084,6_S
1779267279.631474,1828,1952,6_S
1779267279.632465,2074,1898,6_S
1779267279.6327271,1766,1972,6_S
1779267279.635382,1561,1871,6_S
1779267279.635809,1951,1767,6_S
1779267279.6380641,1932,1910,6_S
1779267279.6425421,2169,2122,6_S
1779267279.642755,1996,2248,6_S
1779267279.650458,1934,2037,6_S
1779267279.6507149,1911,1865,6_S
1779267279.651124,1804,1876,6_S
1779267279.651927,2050,1915,6_S
1779267279.65614,2027,1764,6_S
1779267279.6567411,1758,1795,6_S
1779267279.656822,1680,2028,6_S
1779267279.6569002,1977,2236,6_S
1779267279.6582599,2394,2037,6_S
1779267279.660917,2109,1797,6_S
1779267279.662387,1882,1838,6_S
1779267279.6651351,1861,1978,6_S
1779267279.672991,2117,1802,6_S
1779267279.674051,2009,1795,6_S
1779267279.676994,1730,1905,6_S
1779267279.677224,1954,2145,6_S
1779267279.6803992,1869,1945,6_S
1779267279.6806772,1843,1851,6_S
1779267279.683003,2065,1873,6_S
1779267279.6868532,1997,1843,6_S
1779267279.687061,2057,1760,6_S
1779267279.68733,2219,1544,6_S
1779267279.6875079,2074,1821,6_S
1779267279.695622,2250,2194,6_S
1779267279.695951,2287,2151,6_S
1779267279.7000792,1872,1896,6_S
1779267279.700178,1866,1806,6_S
1779267279.700253,2030,1824,6_S
1779267279.70047,1933,1760,6_S
1779267279.7005608,1858,1524,6_S
1779267279.701973,2028,1596,6_S
1779267279.73691,1849,1956,6_S
1779267279.737011,1809,2154,6_S
1779267279.73709,2030,1936,6_S
1779267279.737161,2157,1731,6_S
1779267279.737232,1964,1736,6_S
1779267279.7373009,2120,1872,6_S
1779267279.737369,2114,1702,6_S
1779267279.737437,1532,1646,6_S
1779267279.769723,1754,1886,6_S
1779267279.7841122,1829,2156,6_S
1779267279.795274,1622,1936,6_S
1779267279.7959082,1841,1688,6_S
1779267279.80093,1792,1803,6_S
1779267279.801018,1747,1935,6_S
1779267279.8010821,1456,1742,6_S
1779267279.801292,1806,1454,6_S
1779267279.8013692,2125,1711,6_S
1779267279.801436,1965,2262,6_S
1779267279.801503,2077,2135,6_S
1779267279.801567,1922,1684,6_S
1779267279.801634,1761,1593,6_S
1779267279.801697,1802,1739,6_S
1779267279.801837,2186,1706,6_S
1779267279.801929,1888,1473,6_S
1779267279.802009,2071,1661,6_S
1779267279.802092,2037,2058,6_S
1779267279.802206,1828,2217,6_S
1779267279.8022752,2014,1909,6_S
1779267279.802342,1954,1632,6_S
1779267279.80241,2032,1656,6_S
1779267279.8024771,2062,1912,6_S
1779267279.8025448,2181,1640,6_S
1779267279.802612,1898,1599,6_S
1779267279.802679,2138,1909,6_S
1779267279.802784,2397,2128,6_S
1779267279.8028522,2057,2059,6_S
1779267279.8029199,1843,1878,6_S
1779267279.803058,2006,1770,6_S
1779267279.803134,1912,1929,6_S
1779267279.803242,1713,1645,6_S
1779267279.803319,2019,1508,6_S
1779267279.803396,2286,1803,6_S
1779267279.8034718,1813,2150,6_S
1779267279.80361,2282,2041,6_S
1779267279.8036869,2126,1761,6_S
1779267279.803752,2233,1688,6_S
1779267279.803863,2160,1804,6_S
1779267279.803972,2317,1702,6_S
1779267279.804041,2500,1587,6_S
1779267279.804109,2342,1655,6_S
1779267279.8041759,2199,2023,6_S
1779267279.807157,2398,2159,6_S
1779267279.809064,2227,1891,6_S
1779267279.817136,2067,1632,6_S
1779267279.8182971,2203,1709,6_S
1779267279.82016,2333,1900,6_S
1779267279.8203578,2101,1634,6_S
1779267279.8238668,2066,1565,6_S
1779267279.82691,1295,1943,6_S
1779267279.827293,1685,2329,6_S
1779267279.836041,2968,1950,6_S
1779267279.836569,2435,1541,6_S
1779267279.836929,2003,1661,6_S
1779267279.837187,2314,1807,6_S
1779267279.837631,2333,1602,6_S
1779267279.838179,2034,1478,6_S
1779267279.838547,2201,1752,6_S
1779267279.8413801,2164,2124,6_S
1779267279.842241,1940,2059,6_S
1779267279.842324,1925,1744,6_S
1779267279.844934,1751,1390,6_S
1779267279.8520901,1749,1611,6_S
1779267279.853112,1676,1648,6_S
1779267279.854049,1707,1439,6_S
1779267279.8549829,2219,1526,6_S
1779267279.856043,1883,2015,6_S
1779267279.858824,2130,2152,6_S
1779267279.859522,2029,1684,6_S
1779267279.863465,1681,1486,6_S
1779267279.866025,1454,1485,6_S
1779267279.872482,1867,1685,6_S
1779267279.872745,2270,1274,6_S
1779267279.8732202,2120,1347,6_S
1779267279.873891,1956,1655,6_S
1779267279.874241,1869,2043,6_S
1779267279.874707,1490,1739,6_S
1779267279.879124,2055,1480,6_S
1779267279.8795462,2124,1555,6_S
1779267279.880894,1850,1756,6_S
1779267279.882282,1780,1507,6_S
1779267279.8849862,1912,1342,6_S
1779267279.886354,1865,1589,6_S
1779267279.8881679,1860,2088,6_S
1779267279.894912,1911,2037,6_S
1779267279.8960772,2168,1765,6_S
1779267279.898357,2127,1610,6_S
1779267279.8985732,1770,1773,6_S
1779267279.90137,2192,1548,6_S
1779267279.901825,2035,1286,6_S
1779267279.90473,2049,1593,6_S
1779267279.90577,2084,2021,6_S
1779267279.914544,2310,2195,6_S
1779267279.9151518,2015,1790,6_S
1779267279.9154072,2103,1528,6_S
1779267279.91593,2085,1625,6_S
1779267279.916369,2129,1722,6_S
1779267279.9169211,2083,1471,6_S
1779267279.921032,2036,1577,6_S
1779267279.921427,1807,2011,6_S
1779267279.92283,2004,2269,6_S
1779267279.924215,1907,1889,6_S
1779267279.931396,2045,1541,6_S
1779267279.93303,1849,1635,6_S
1779267279.9341922,2051,1850,6_S
1779267279.934426,2192,1594,6_S
1779267279.937622,2175,1443,6_S
1779267279.9381492,2116,1748,6_S
1779267279.9384892,1842,2297,6_S
1779267279.9450922,2067,2183,6_S
1779267279.951497,2003,1775,6_S
1779267279.952566,2047,1609,6_S
1779267279.952918,1945,1721,6_S
1779267279.953217,2052,1741,6_S
1779267279.953577,1800,1416,6_S
1779267279.953805,2026,1671,6_S
1779267279.954206,2263,2064,6_S
1779267279.958775,2180,2257,6_S
1779267279.95888,2046,1835,6_S
1779267279.9602518,2006,1638,6_S
1779267279.9629362,1923,1754,6_S
1779267279.964602,1853,1871,6_S
1779267279.9659882,1927,1544,6_S
1779267279.977014,2247,1647,6_S
1779267279.98134,1869,2071,6_S
1779267279.981604,1953,2425,6_S
1779267279.9855092,2059,2055,6_S
1779267279.99475,2088,1767,6_S
1779267279.999307,1900,1697,6_S
1779267280.001066,1988,1944,6_S
1779267280.001211,1848,1824,6_S
1779267280.001293,1892,1695,6_S
1779267280.001361,2147,1957,6_S
1779267280.001427,1973,2428,6_S
1779267280.001531,1974,2233,6_S
1779267280.001631,1981,1827,6_S
1779267280.001835,2093,1693,6_S
1779267280.0019221,2078,1895,6_S
1779267280.001985,2181,1825,6_S
1779267280.002103,1998,1535,6_S
1779267280.002235,1832,1801,6_S
1779267280.00995,1821,2337,6_S
1779267280.014904,2033,2391,6_S
1779267280.01566,2142,2009,6_S
1779267280.018722,1957,1738,6_S
1779267280.020766,1845,1811,6_S
1779267280.026245,1970,1978,6_S
1779267280.02735,2053,1667,6_S
1779267280.033029,2259,1753,6_S
1779267280.033241,2165,2149,6_S
1779267280.033419,2051,2530,6_S
1779267280.033498,1971,2114,6_S
1779267280.033559,2152,1781,6_S
1779267280.0336168,1922,1784,6_S
1779267280.0338602,1911,2037,6_S
1779267280.033928,2162,1802,6_S
1779267280.034057,1972,1675,6_S
1779267280.0368361,2043,2064,6_S
1779267280.038213,2249,2588,6_S
1779267280.046067,1808,2280,6_S
1779267280.0482361,1869,1807,6_S
1779267280.052825,2030,1667,6_S
1779267280.0535839,1953,1947,6_S
1779267280.061622,1965,1848,6_S
1779267280.062021,1899,1596,6_S
1779267280.062526,1846,1885,6_S
1779267280.0629,1807,2287,6_S
1779267280.063254,2094,2333,6_S
1779267280.0662332,2369,1927,6_S
1779267280.067178,2201,1778,6_S
1779267280.067334,2021,1891,6_S
1779267280.067429,2056,1988,6_S
1779267280.067489,2296,1648,6_S
1779267280.0688808,2119,1762,6_S
1779267280.070527,1794,2256,6_S
1779267280.07865,1857,2589,6_S
1779267280.081295,2110,2168,6_S
1779267280.081504,2062,1823,6_S
1779267280.081814,2245,1768,6_S
1779267280.0837991,1909,2059,6_S
1779267280.085213,1795,1836,6_S
1779267280.087116,1902,1757,6_S
1779267280.087469,2082,2112,6_S
1779267280.092672,2029,2553,6_S
1779267280.093054,1904,2222,6_S
1779267280.093605,2059,1832,6_S
1779267280.09724,2132,1724,6_S
1779267280.097591,2175,1957,6_S
1779267280.09899,1858,1869,6_S
1779267280.100323,2077,1639,6_S
1779267280.1029499,2382,1919,6_S
1779267280.104285,2058,2347,6_S
1779267280.109479,2091,2432,6_S
1779267280.110325,1983,1984,6_S
1779267280.1104891,1842,1832,6_S
1779267280.112781,1973,1865,6_S
1779267280.114862,2102,1986,6_S
1779267280.116713,1886,1697,6_S
1779267280.119852,1999,1765,6_S
1779267280.124871,2249,2205,6_S
1779267280.1255412,2086,2483,6_S
1779267280.1259341,1882,2108,6_S
1779267280.126341,2151,1814,6_S
1779267280.130156,2047,1796,6_S
1779267280.130219,1790,2063,6_S
1779267280.1374562,2114,1827,6_S
1779267280.139434,1898,1783,6_S
1779267280.142307,2179,2110,6_S
1779267280.1453571,2145,2527,6_S
1779267280.147097,2053,2294,6_S
1779267280.1516218,1898,1920,6_S
1779267280.151924,2342,1868,6_S
1779267280.152268,2259,2064,6_S
1779267280.152496,1934,1897,6_S
1779267280.152879,1927,1648,6_S
1779267280.153097,1925,1938,6_S
1779267280.1558578,2369,2406,6_S
1779267280.156131,2112,2438,6_S
1779267280.158723,1877,1993,6_S
1779267280.160059,1952,1745,6_S
1779267280.16714,1972,1897,6_S
1779267280.1673028,1966,2020,6_S
1779267280.168437,2082,1618,6_S
1779267280.170783,2163,1809,6_S
1779267280.1711879,1890,2305,6_S
1779267280.1752782,1964,2548,6_S
1779267280.175491,1825,2066,6_S
1779267280.1798651,2005,1820,6_S
1779267280.1802711,2239,1818,6_S
1779267280.1806982,2014,2080,6_S
1779267280.183648,2179,1792,6_S
1779267280.1849651,1981,1690,6_S
1779267280.1904159,2139,2107,6_S
1779267280.191023,2111,2592,6_S
1779267280.191691,2062,2308,6_S
1779267280.194216,2071,1905,6_S
1779267280.194512,2132,1814,6_S
1779267280.196536,1899,2026,6_S
1779267280.1985621,2011,1925,6_S
1779267280.20288,1955,1711,6_S
1779267280.203098,2088,1990,6_S
1779267280.206317,2178,2520,6_S
1779267280.2064168,2163,2475,6_S
1779267280.209387,2015,2015,6_S
1779267280.210592,2048,1748,6_S
1779267280.211974,1995,1894,6_S
1779267280.218932,2008,2011,6_S
1779267280.2196,1965,1657,6_S
1779267280.221878,1952,1792,6_S
1779267280.2221498,2091,2330,6_S
1779267280.2223098,2062,2573,6_S
1779267280.226517,1957,2118,6_S
1779267280.226795,2027,1814,6_S
1779267280.2309399,2016,1831,6_S
1779267280.231456,2104,2037,6_S
1779267280.234436,2177,1755,6_S
1779267280.234706,1967,1691,6_S
1779267280.236032,1984,2106,6_S
1779267280.242167,2061,2596,6_S
1779267280.243171,1984,2283,6_S
1779267280.243951,2050,1859,6_S
1779267280.245792,2070,1749,6_S
1779267280.2475898,2112,2049,6_S
1779267280.2501519,2037,1985,6_S
1779267280.254548,2002,1754,6_S
1779267280.2576058,2004,2064,6_S
1779267280.2576692,1863,2564,6_S
1779267280.2577531,1747,2493,6_S
1779267280.2579892,2088,2030,6_S
1779267280.2606761,2599,1909,6_S
1779267280.262092,2157,2137,6_S
1779267280.2712162,1740,2121,6_S
1779267280.2744598,2058,1836,6_S
1779267280.274683,2220,1861,6_S
1779267280.276609,2265,2217,6_S
1779267280.2780852,2080,2573,6_S
1779267280.28015,1517,2216,6_S
1779267280.284641,1773,1925,6_S
1779267280.284961,2516,1527,6_S
1779267280.2853901,2177,2347,6_S
1779267280.285711,1136,1981,6_S
1779267280.28611,2016,1895,6_S
1779267280.2863932,2618,2413,6_S
1779267280.289614,2374,2843,6_S
1779267280.2910562,1919,2566,6_S
1779267280.298652,1455,2141,6_S
1779267280.301384,2659,2052,6_S
1779267280.301754,1672,2334,6_S
1779267280.303808,1795,2147,6_S
1779267280.3045819,2720,1853,6_S
1779267280.306321,1927,2260,6_S
1779267280.311027,2290,2511,6_S
1779267280.311331,2084,2832,6_S
1779267280.3116958,1579,2141,6_S
1779267280.312196,2539,2045,6_S
1779267280.312493,1540,2201,6_S
1779267280.315649,1651,2146,6_S
1779267280.31708,2044,1745,6_S
1779267280.3187509,2478,2042,6_S
1779267280.320161,1610,2717,6_S
1779267280.327876,1551,2892,6_S
1779267280.329202,2965,2308,6_S
1779267280.3311539,2253,1727,6_S
1779267280.3341482,2020,2185,6_S
1779267280.336141,2134,2339,6_S
1779267280.340374,1903,2021,6_S
1779267280.341434,2089,1973,6_S
1779267280.3441799,2484,2445,6_S
1779267280.345119,2062,2840,6_S
1779267280.345207,1978,2330,6_S
1779267280.345336,2672,2289,6_S
1779267280.345469,1261,2194,6_S
1779267280.346868,1960,2308,6_S
1779267280.3528872,2142,2109,6_S
1779267280.3564491,1879,2042,6_S
1779267280.358433,2341,2346,6_S
1779267280.359311,2068,2902,6_S
1779267280.361653,1670,2755,6_S
1779267280.36202,2067,2350,6_S
1779267280.366281,1965,2037,6_S
1779267280.3666182,2481,2424,6_S
1779267280.366922,2373,2515,6_S
1779267280.367219,2295,2196,6_S
1779267280.370409,1940,2451,6_S
1779267280.3707368,2012,2872,6_S
1779267280.372159,1797,2990,6_S
1779267280.374799,2018,2514,6_S
1779267280.376189,2193,2167,6_S
1779267280.38209,3730,2273,6_S
1779267280.385823,2099,2582,6_S
1779267280.386212,1126,2555,6_S
1779267280.388341,2310,2563,6_S
1779267280.389132,2197,2942,6_S
1779267280.3951948,1969,3405,6_S
1779267280.395705,1849,3025,6_S
1779267280.395963,2379,2553,6_S
1779267280.396348,2248,2674,6_S
1779267280.396681,1800,2979,6_S
1779267280.399242,1925,3162,6_S
1779267280.400647,1711,2962,6_S
1779267280.40196,2222,3257,6_S
1779267280.40836,2712,3605,6_S
1779267280.4092748,2910,3522,6_S
1779267280.4119968,1842,2804,6_S
1779267280.4149828,1821,2689,6_S
1779267280.416932,1807,3131,6_S
1779267280.42146,2226,3146,6_S
1779267280.421791,2027,2982,6_S
1779267280.422546,2304,3090,6_S
1779267280.425796,1841,3645,6_S
1779267280.425993,1911,3348,6_S
1779267280.4260879,2031,3038,6_S
1779267280.426218,1939,2811,6_S
1779267280.428942,2236,2793,6_S
1779267280.430376,1586,2916,6_S
1779267280.437658,3042,2774,6_S
1779267280.438998,1604,2579,6_S
1779267280.439716,2074,3139,6_S
1779267280.442015,2072,3176,6_S
1779267280.443528,2111,3049,6_S
1779267280.45313,1723,2601,6_S
1779267280.4541812,2169,2531,6_S
1779267280.454298,2302,2820,6_S
1779267280.454433,1931,2708,6_S
1779267280.454562,1462,2658,6_S
1779267280.454693,2109,2797,6_S
1779267280.4548118,1728,3090,6_S
1779267280.456202,1450,3078,6_S
1779267280.462178,2688,2686,6_S
1779267280.463915,3058,2098,6_S
1779267280.4664729,1504,2720,6_S
1779267280.4669518,1719,2145,6_S
1779267280.469203,2719,2639,6_S
1779267280.4699168,1267,2611,6_S
1779267280.4719,1484,2781,6_S
1779267280.476369,2189,2672,6_S
1779267280.4768362,3673,2568,6_S
1779267280.477115,939,2282,6_S
1779267280.4803042,1492,2492,6_S
1779267280.4806678,2650,2559,6_S
1779267280.482024,2459,2376,6_S
1779267280.484672,1886,2374,6_S
1779267280.48604,2142,2599,6_S
1779267280.4930859,1665,2822,6_S
1779267280.494983,2460,2618,6_S
1779267280.4971251,2100,2299,6_S
1779267280.497558,1809,2038,6_S
1779267280.500171,1252,2392,6_S
1779267280.5020611,2883,2268,6_S
1779267280.507133,3256,2109,6_S
1779267280.509813,2152,2321,6_S
1779267280.5109298,2644,2496,6_S
1779267280.5110269,2863,2300,6_S
1779267280.511148,1791,2511,6_S
1779267280.511221,604,2083,6_S
1779267280.512596,1345,2174,6_S
1779267280.521701,3272,2282,6_S
1779267280.5220401,2668,2136,6_S
1779267280.522633,2151,2261,6_S
1779267280.524804,1695,2559,6_S
1779267280.525654,1118,2456,6_S
1779267280.527584,3704,2091,6_S
1779267280.532245,2481,1713,6_S
1779267280.532522,1861,2397,6_S
1779267280.532906,2539,2315,6_S
1779267280.533204,2371,2117,6_S
1779267280.5365171,737,2102,6_S
1779267280.536671,993,2366,6_S
1779267280.5382662,4095,2623,6_S
1779267280.540939,3618,2249,6_S
1779267280.542409,1512,2320,6_S
1779267280.551695,1224,2112,6_S
1779267280.55199,2799,2135,6_S
1779267280.55228,1793,2524,6_S
1779267280.552653,2122,2193,6_S
1779267280.555289,2472,2226,6_S
1779267280.5614238,2102,2641,6_S
1779267280.561793,2601,2509,6_S
1779267280.562146,3435,2417,6_S
1779267280.562429,1482,2238,6_S
1779267280.562767,2163,2315,6_S
1779267280.5657542,4095,2252,6_S
1779267280.566138,1968,2920,6_S
1779267280.573897,557,2722,6_S
1779267280.575273,3776,2884,6_S
1779267280.577923,1798,3295,6_S
1779267280.578335,2153,3147,6_S
1779267280.578767,2929,2955,6_S
1779267280.581465,2414,3044,6_S
1779267280.583304,3547,2808,6_S
1779267280.5879529,3039,2802,6_S
1779267280.5882418,2808,3044,6_S
1779267280.5885599,3457,3524,6_S
1779267280.5890932,2026,3550,6_S
1779267280.5923252,1928,3234,6_S
1779267280.592705,2149,3093,6_S
1779267280.5941498,1872,2979,6_S
1779267280.596666,3311,3411,6_S
1779267280.598022,2794,3606,6_S
1779267280.607996,2003,4020,6_S
1779267280.608438,2738,3880,6_S
1779267280.611428,2496,4095,6_S
1779267280.6134012,2965,3730,6_S
1779267280.6183429,3097,3437,6_S
1779267280.61864,1760,3495,6_S
1779267280.618943,3253,3829,6_S
1779267280.6193652,3297,4095,6_S
1779267280.619754,636,4095,6_S
1779267280.6202781,2726,4095,6_S
1779267280.620435,3375,4095,6_S
1779267280.6236842,2569,4020,6_S
1779267280.62506,2193,3666,6_S
1779267280.632319,1997,3310,6_S
1779267280.635016,3800,3703,6_S
1779267280.636781,2488,3694,6_S
1779267280.6374762,2208,3435,6_S
1779267280.6397052,1557,3529,6_S
1779267280.644553,2382,3361,6_S
1779267280.6449668,3309,3409,6_S
1779267280.645262,2524,3152,6_S
1779267280.645767,2351,3286,6_S
1779267280.6462588,1400,3228,6_S
1779267280.6491678,2129,3134,6_S
1779267280.649556,2907,2963,6_S
1779267280.650762,2477,2900,6_S
1779267280.652151,2494,3004,6_S
1779267280.654794,2501,2966,6_S
1779267280.66157,1371,2863,6_S
1779267280.66272,2545,2603,6_S
1779267280.6666062,3111,2419,6_S
1779267280.6691148,2656,2653,6_S
1779267280.675104,1666,2672,6_S
1779267280.67563,2143,2666,6_S
1779267280.6760929,2274,2543,6_S
1779267280.676406,2287,2675,6_S
1779267280.676704,2568,2654,6_S
1779267280.676974,2078,2416,6_S
1779267280.6772008,1485,2506,6_S
1779267280.681052,2248,2259,6_S
1779267280.6811829,2563,2217,6_S
1779267280.6825962,1581,2254,6_S
1779267280.6921852,2339,2273,6_S
1779267280.692781,2121,2296,6_S
1779267280.695246,1983,2291,6_S
1779267280.698001,2035,2182,6_S
1779267280.6982138,1822,2045,6_S
1779267280.704004,1859,1903,6_S
1779267280.7043068,1543,2371,6_S
1779267280.704912,1357,2101,6_S
1779267280.705193,2741,1932,6_S
1779267280.708354,1496,2067,6_S
1779267280.709097,1778,2138,6_S
1779267280.709439,2873,1942,6_S
1779267280.709514,1440,1935,6_S
1779267280.710879,1509,1985,6_S
1779267280.7122219,2059,1808,6_S
1779267280.714853,1707,1768,6_S
1779267280.716583,1992,1975,6_S
1779267280.7230499,1402,1997,6_S
1779267280.7252889,1508,1929,6_S
1779267280.727477,2218,1923,6_S
1779267280.727998,1766,1961,6_S
1779267280.728409,1588,1530,6_S
1779267280.728608,2465,2111,6_S
1779267280.7392719,1287,1839,6_S
1779267280.739845,2136,1699,6_S
1779267280.740587,2130,2208,6_S
1779267280.7411652,2251,1760,6_S
1779267280.7439418,2000,1967,6_S
1779267280.744971,1292,2035,6_S
1779267280.745297,2131,1962,6_S
1779267280.745398,1953,1917,6_S
1779267280.746562,2178,1915,6_S
1779267280.753681,1494,1988,6_S
1779267280.7545228,2139,1837,6_S
1779267280.75521,2012,1905,6_S
1779267280.755994,2149,2011,6_S
1779267280.7588549,2017,1999,6_S
1779267280.75917,1743,2056,6_S
1779267280.762269,2260,1917,6_S
1779267280.764891,2200,1969,6_S
1779267280.765304,1944,2021,6_S
1779267280.771335,2123,1908,6_S
1779267280.7719092,1812,2004,6_S
1779267280.772162,1211,2081,6_S
1779267280.772554,2670,2062,6_S
1779267280.776444,1977,2151,6_S
1779267280.7765481,1733,2104,6_S
1779267280.777937,1950,1929,6_S
1779267280.7805572,1811,2054,6_S
1779267280.781949,2168,2032,6_S
1779267280.7905521,2361,1908,6_S
1779267280.79262,2241,1978,6_S
1779267280.7997382,2076,2086,6_S
1779267280.80589,2282,2106,6_S
1779267280.806298,1544,1962,6_S
1779267280.8067179,1863,2081,6_S
1779267280.8073149,1989,2065,6_S
1779267280.80753,1861,2268,6_S
1779267280.807998,2064,2146,6_S
1779267280.811096,1322,1943,6_S
1779267280.8120892,2224,2182,6_S
1779267280.812448,2879,1970,6_S
1779267280.812534,2098,1960,6_S
1779267280.812641,1559,1946,6_S
1779267280.812761,1561,1928,6_S
1779267280.814126,3009,1839,6_S
1779267280.821972,2259,2179,6_S
1779267280.8221571,2065,2125,6_S
1779267280.8228369,1089,2068,6_S
1779267280.824217,1675,2129,6_S
1779267280.826658,1931,2154,6_S
1779267280.8269389,2990,2011,6_S
1779267280.831826,2684,2077,6_S
1779267280.837729,1162,1972,6_S
1779267280.838228,2064,2114,6_S
1779267280.839019,2967,1702,6_S
1779267280.839555,1375,2092,6_S
1779267280.843088,2066,2095,6_S
1779267280.843513,2494,2127,6_S
1779267280.843596,1998,2116,6_S
1779267280.845278,2488,1949,6_S
1779267280.8466702,1889,2415,6_S
1779267280.848045,1115,2230,6_S
1779267280.8570628,2091,2101,6_S
1779267280.8606799,2722,2457,6_S
1779267280.861013,1959,2309,6_S
1779267280.861334,1787,2232,6_S
1779267280.863246,2717,2410,6_S
1779267280.864135,1984,2369,6_S
1779267280.8649259,1486,2256,6_S
1779267280.865076,2277,2438,6_S
1779267280.867284,2174,2022,6_S
1779267280.8733308,2808,2682,6_S
1779267280.876947,1573,2350,6_S
1779267280.878052,2226,2574,6_S
1779267280.878137,1967,2581,6_S
1779267280.878209,1743,2523,6_S
1779267280.878279,2115,2466,6_S
1779267280.8810391,2214,2253,6_S
1779267280.887307,2139,2114,6_S
1779267280.887606,2152,2072,6_S
1779267280.891259,1966,2209,6_S
1779267280.891626,2151,2343,6_S
1779267280.891895,2452,2446,6_S
1779267280.893827,1757,2208,6_S
1779267280.894639,2051,2125,6_S
1779267280.897165,2300,2192,6_S
1779267280.902955,1846,1991,6_S
1779267280.903481,2226,1932,6_S
1779267280.903739,1868,1992,6_S
1779267280.9051368,1641,1886,6_S
1779267280.908962,2716,2263,6_S
1779267280.909045,2071,2240,6_S
1779267280.910435,1867,2049,6_S
1779267280.913126,2009,2052,6_S
1779267280.914567,2202,1808,6_S
1779267280.920964,2421,1620,6_S
1779267280.926307,2468,1816,6_S
1779267280.926559,1836,1982,6_S
1779267280.929145,1508,1852,6_S
1779267280.937563,1806,1554,6_S
1779267280.938524,2082,1480,6_S
1779267280.941649,2155,1421,6_S
1779267280.943094,1983,1459,6_S
1779267280.943169,2618,1162,6_S
1779267280.943297,2198,1079,6_S
1779267280.943447,2023,1455,6_S
1779267280.943648,1867,1538,6_S
1779267280.9437351,2279,1647,6_S
1779267280.943846,1747,1552,6_S
1779267280.9439528,1962,1407,6_S
1779267280.9524422,2221,1426,6_S
1779267280.953783,1809,1158,6_S
1779267280.956107,1974,1185,6_S
1779267280.956365,1615,1371,6_S
1779267280.959446,1898,1492,6_S
1779267280.961484,2057,1303,6_S
1779267280.961845,2328,1319,6_S
1779267280.9622998,2040,1222,6_S
1779267280.968213,3241,1157,6_S
1779267280.9689631,1954,1364,6_S
1779267280.969368,1398,1081,6_S
1779267280.9696379,2153,1239,6_S
1779267280.9729762,1523,1371,6_S
1779267280.973399,1938,1213,6_S
1779267280.974835,2192,1164,6_S
1779267280.976212,3307,1312,6_S
1779267280.979024,2159,1335,6_S
1779267280.9806452,667,1291,6_S
1779267280.986194,2248,1202,6_S
1779267280.987892,1936,1317,6_S
1779267280.9925098,2132,1415,6_S
1779267280.992824,2099,1512,6_S
1779267280.993081,2224,1439,6_S
1779267280.993423,1910,1438,6_S
1779267280.996345,1629,1353,6_S
1779267280.9996412,2017,1381,6_S
1779267281.006794,2480,1249,6_S
1779267281.008065,2499,1142,6_S
1779267281.0086489,2052,1543,6_S
1779267281.0132968,1448,1656,6_S
1779267281.013741,1803,1678,6_S
1779267281.013848,3133,1721,6_S
1779267281.013917,1479,1503,6_S
1779267281.013986,1546,1569,6_S
1779267281.0140538,1570,1455,6_S
1779267281.017309,3119,1485,6_S
1779267281.024401,2307,1592,6_S
1779267281.025543,1666,1789,6_S
1779267281.02588,2020,1805,6_S
1779267281.027515,2149,1401,6_S
1779267281.0309172,1825,1628,6_S
1779267281.034894,905,1555,6_S
1779267281.0373518,2813,1363,6_S
1779267281.044873,2660,1535,6_S
1779267281.045194,1810,1864,6_S
1779267281.045577,1470,1752,6_S
1779267281.0459552,2033,2001,6_S
1779267281.04637,2067,1800,6_S
1779267281.046628,2029,1740,6_S
1779267281.04704,2719,1549,6_S
1779267281.047321,1705,1914,6_S
1779267281.0517461,1291,1740,6_S
1779267281.051906,1795,1604,6_S
1779267281.052099,2272,1728,6_S
1779267281.054776,2545,2049,6_S
1779267281.056138,2084,1881,6_S
1779267281.058777,2423,1388,6_S
1779267281.06012,2732,1984,6_S
1779267281.068483,79,2070,6_S
1779267281.0687711,2148,1675,6_S
1779267281.070535,2502,1522,6_S
1779267281.076837,1506,1803,6_S
1779267281.0779252,2139,2073,6_S
1779267281.0804548,2769,2237,6_S
1779267281.088098,1451,1912,6_S
1779267281.08851,2443,1806,6_S
1779267281.0887969,2284,1918,6_S
1779267281.089115,1740,1797,6_S
1779267281.089513,2574,1665,6_S
1779267281.090025,2405,1694,6_S
1779267281.090505,1873,1949,6_S
1779267281.0910149,1275,2357,6_S
1779267281.094353,1941,1865,6_S
1779267281.095744,2203,1769,6_S
1779267281.096205,1918,1770,6_S
1779267281.0962949,2344,1855,6_S
1779267281.098872,1973,1976,6_S
1779267281.1064389,994,1794,6_S
1779267281.1076212,3247,1997,6_S
1779267281.1088588,1990,2140,6_S
1779267281.110614,1788,1988,6_S
1779267281.1133811,2316,1917,6_S
1779267281.1137211,2018,1881,6_S
1779267281.1198678,1793,1911,6_S
1779267281.120246,2509,1825,6_S
1779267281.1278489,1940,1894,6_S
1779267281.128627,1912,1937,6_S
1779267281.1290162,2220,2126,6_S
1779267281.12928,2193,2124,6_S
1779267281.129654,1729,1930,6_S
1779267281.1338298,1984,1776,6_S
1779267281.1339872,2200,1825,6_S
1779267281.134061,1976,1915,6_S
1779267281.134197,1739,1851,6_S
1779267281.1342678,2078,1890,6_S
1779267281.136895,1933,2036,6_S
1779267281.138143,1828,2151,6_S
1779267281.140998,2793,2110,6_S
1779267281.1486971,1945,1921,6_S
1779267281.1496792,1765,1945,6_S
1779267281.152276,2100,1982,6_S
1779267281.153236,2381,1677,6_S
1779267281.155929,1656,2223,6_S
1779267281.156217,1694,2034,6_S
1779267281.1586938,2125,2194,6_S
1779267281.159657,2010,2229,6_S
1779267281.162805,1883,1983,6_S
1779267281.163255,1899,1862,6_S
1779267281.170631,2071,1997,6_S
1779267281.1708422,2059,1988,6_S
1779267281.171628,2154,1862,6_S
1779267281.171967,2075,2040,6_S
1779267281.172414,1887,2256,6_S
1779267281.172828,1936,2104,6_S
1779267281.177014,2149,1982,6_S
1779267281.177429,1894,1872,6_S
1779267281.1788101,2186,1962,6_S
1779267281.180151,1929,2053,6_S
1779267281.187453,1961,1804,6_S
1779267281.1893451,2111,1915,6_S
1779267281.190399,1902,2203,6_S
1779267281.1914198,1967,2324,6_S
1779267281.194129,1961,1985,6_S
1779267281.194471,1953,1805,6_S
1779267281.198493,1850,1908,6_S
1779267281.20082,1766,2037,6_S
1779267281.201063,2323,1815,6_S
1779267281.201515,2093,1802,6_S
1779267281.208837,1881,2034,6_S
1779267281.2097611,1949,2245,6_S
1779267281.210102,2056,2103,6_S
1779267281.2106082,1961,1958,6_S
1779267281.21105,1902,1929,6_S
1779267281.215297,2048,2080,6_S
1779267281.215567,2021,2112,6_S
1779267281.216938,1732,1880,6_S
1779267281.218421,2016,1932,6_S
1779267281.21985,1923,2166,6_S
1779267281.222676,1980,2104,6_S
1779267281.22387,2243,2012,6_S
1779267281.233154,1985,1915,6_S
1779267281.2340438,1849,1880,6_S
1779267281.237769,2081,1822,6_S
1779267281.2382,2111,1725,6_S
1779267281.238552,1965,1962,6_S
1779267281.241724,1988,2162,6_S
1779267281.245007,2050,2235,6_S
1779267281.253021,1999,2015,6_S
1779267281.253495,1960,1881,6_S
1779267281.25391,1961,1928,6_S
1779267281.254394,1984,1959,6_S
1779267281.254653,2020,1799,6_S
1779267281.255085,1973,1722,6_S
1779267281.255774,1980,2010,6_S
1779267281.256139,1960,2228,6_S
1779267281.260334,2008,2076,6_S
1779267281.260946,1995,1833,6_S
1779267281.2610471,1982,1816,6_S
1779267281.2624042,2012,1866,6_S
1779267281.263942,2007,1776,6_S
1779267281.272199,1937,1737,6_S
1779267281.278322,1943,2036,6_S
1779267281.280716,1940,2227,6_S
1779267281.2826738,2015,2108,6_S
1779267281.284946,1949,1847,6_S
1779267281.285324,1925,1894,6_S
1779267281.291614,1927,1985,6_S
1779267281.292206,1955,1994,6_S
1779267281.292577,1956,1787,6_S
1779267281.292973,1960,1857,6_S
1779267281.295739,1919,2063,6_S
1779267281.296927,1922,2250,6_S
1779267281.297085,1940,2034,6_S
1779267281.297266,1957,1857,6_S
1779267281.2973921,1949,1830,6_S
1779267281.2975402,1945,2005,6_S
1779267281.29895,1913,1972,6_S
1779267281.3004138,1914,1734,6_S
1779267281.3017979,1919,2025,6_S
1779267281.304917,1929,2323,6_S
1779267281.313378,1993,2086,6_S
1779267281.3136158,1909,1885,6_S
1779267281.3190432,1932,1901,6_S
1779267281.321711,1979,2067,6_S
1779267281.322037,1969,1822,6_S
1779267281.32794,2018,1677,6_S
1779267281.328131,1953,1931,6_S
1779267281.328479,1940,2219,6_S
1779267281.328941,1909,2209,6_S
1779267281.329289,1999,1949,6_S
1779267281.329709,1958,1936,6_S
1779267281.330019,1857,2129,6_S
1779267281.332744,1881,1915,6_S
1779267281.333726,1957,1781,6_S
1779267281.3338618,1951,1810,6_S
1779267281.336583,1936,2065,6_S
1779267281.3422751,2048,2228,6_S
1779267281.344033,1888,2035,6_S
1779267281.347018,1958,1893,6_S
1779267281.3500721,1988,1838,6_S
1779267281.350883,1850,1872,6_S
1779267281.353015,1857,1714,6_S
1779267281.358936,2078,1699,6_S
1779267281.3592489,1850,1936,6_S
1779267281.3596532,2077,2289,6_S
1779267281.3598962,1943,2009,6_S
1779267281.360321,2012,1701,6_S
1779267281.360561,1902,1676,6_S
1779267281.364047,1878,1841,6_S
1779267281.364167,2025,1697,6_S
1779267281.366414,1813,1547,6_S
1779267281.367851,1562,1761,6_S
1779267281.370482,1817,2142,6_S
1779267281.376708,1670,2100,6_S
1779267281.377884,1657,1818,6_S
1779267281.3781152,1707,1703,6_S
1779267281.378773,1851,1797,6_S
1779267281.3817222,1978,1714,6_S
1779267281.386359,2429,1560,6_S
1779267281.386621,1818,1697,6_S
1779267281.3923829,1515,1960,6_S
1779267281.392905,2185,2046,6_S
1779267281.393266,2340,1966,6_S
1779267281.393447,1827,1811,6_S
1779267281.396968,1570,1581,6_S
1779267281.397349,1445,1686,6_S
1779267281.3986812,1641,1631,6_S
1779267281.4001799,2408,1745,6_S
1779267281.406264,2226,1940,6_S
1779267281.410214,1911,2112,6_S
1779267281.4104881,1989,1928,6_S
1779267281.4107451,2272,1764,6_S
1779267281.410922,2125,1674,6_S
1779267281.414903,1642,1775,6_S
1779267281.415096,1765,2010,6_S
1779267281.4200928,1622,1743,6_S
1779267281.4202619,2064,1768,6_S
1779267281.420492,2000,2177,6_S
1779267281.423809,1821,2195,6_S
1779267281.423913,1805,1910,6_S
1779267281.426498,1990,1679,6_S
1779267281.427827,1839,1842,6_S
1779267281.434598,2245,1709,6_S
1779267281.435265,2160,1413,6_S
1779267281.438275,1781,1481,6_S
1779267281.438627,1705,1842,6_S
1779267281.4412851,1997,1905,6_S
1779267281.443082,2116,1822,6_S
1779267281.44331,1734,1694,6_S
1779267281.448415,2215,1726,6_S
1779267281.448698,2194,1690,6_S
1779267281.448919,2083,1527,6_S
1779267281.4519901,1714,1411,6_S
1779267281.4520729,1696,1717,6_S
1779267281.4587882,1940,2098,6_S
1779267281.459758,1970,1851,6_S
1779267281.46034,2121,1673,6_S
1779267281.461055,1954,1538,6_S
1779267281.464567,1425,1474,6_S
1779267281.465258,1915,1285,6_S
1779267281.4714508,2095,1394,6_S
1779267281.471651,1901,1561,6_S
1779267281.471906,2170,1990,6_S
1779267281.47211,2075,1912,6_S
1779267281.475208,1952,1478,6_S
1779267281.476545,1805,1445,6_S
1779267281.477875,1917,1571,6_S
1779267281.48046,1879,1433,6_S
1779267281.486804,1706,1230,6_S
1779267281.4875462,1998,1427,6_S
1779267281.488168,2290,1808,6_S
1779267281.4908211,1832,1929,6_S
1779267281.492506,1517,1542,6_S
1779267281.493183,2047,1514,6_S
1779267281.495299,2483,1514,6_S
1779267281.5000808,2148,1656,6_S
1779267281.500371,2219,1529,6_S
1779267281.5005949,2148,1502,6_S
1779267281.503735,1907,1775,6_S
1779267281.503797,1706,2172,6_S
1779267281.5115268,2160,1925,6_S
1779267281.5122309,2749,1685,6_S
1779267281.5128949,1607,1565,6_S
1779267281.5147011,1572,1732,6_S
1779267281.514852,2030,1602,6_S
1779267281.5189278,1877,1392,6_S
1779267281.523787,2286,1745,6_S
1779267281.527495,1953,2277,6_S
1779267281.527622,1581,2040,6_S
1779267281.5277739,2081,1666,6_S
1779267281.527853,1994,1543,6_S
1779267281.527959,2183,1727,6_S
1779267281.530603,2098,1590,6_S
1779267281.5319638,1972,1361,6_S
1779267281.543809,1889,1624,6_S
1779267281.5444741,1974,1999,6_S
1779267281.5474281,2041,2099,6_S
1779267281.5494888,2062,1667,6_S
1779267281.554322,1930,1616,6_S
1779267281.5547369,2132,1700,6_S
1779267281.555309,2340,1726,6_S
1779267281.5587652,1967,1438,6_S
1779267281.559202,2021,1445,6_S
1779267281.559315,2130,1851,6_S
1779267281.5593789,2184,2289,6_S
1779267281.559432,1967,1844,6_S
1779267281.559545,1801,1567,6_S
1779267281.56126,1830,1562,6_S
1779267281.567051,2059,1803,6_S
1779267281.5684302,1954,1591,6_S
1779267281.57097,2068,1458,6_S
1779267281.5713239,1969,1737,6_S
1779267281.5735118,2111,2159,6_S
1779267281.575944,2014,1914,6_S
1779267281.5808482,2019,1647,6_S
1779267281.581307,1938,1690,6_S
1779267281.581845,1872,1770,6_S
1779267281.582228,1965,1572,6_S
1779267281.582537,1969,1322,6_S
1779267281.585527,1919,1579,6_S
1779267281.586953,2005,1963,6_S
1779267281.588165,2090,2128,6_S
1779267281.590631,1982,1754,6_S
1779267281.5919712,2005,1535,6_S
1779267281.598445,1947,1640,6_S
1779267281.601561,1926,1745,6_S
1779267281.602132,1972,1413,6_S
1779267281.604201,1856,1552,6_S
1779267281.6066298,2114,1917,6_S
1779267281.61137,2187,2291,6_S
1779267281.611964,1861,1929,6_S
1779267281.612489,1716,1603,6_S
1779267281.6128352,1880,1559,6_S
1779267281.6131961,1922,1797,6_S
1779267281.6164742,2247,1487,6_S
1779267281.6166039,2120,1522,6_S
1779267281.6180239,2024,1849,6_S
1779267281.624521,2038,2312,6_S
1779267281.627854,2120,2058,6_S
1779267281.6283898,1999,1698,6_S
1779267281.631107,2024,1607,6_S
1779267281.632881,2134,1878,6_S
1779267281.637573,2023,1697,6_S
1779267281.637967,1875,1426,6_S
1779267281.638342,1883,1700,6_S
1779267281.641328,1940,2186,6_S
1779267281.642414,1813,2259,6_S
1779267281.642504,1904,1843,6_S
1779267281.6426308,2188,1597,6_S
1779267281.643987,2111,1702,6_S
1779267281.646591,1997,1820,6_S
1779267281.6480372,2060,1515,6_S
1779267281.654567,1900,1612,6_S
1779267281.6553652,1895,2124,6_S
1779267281.657744,2020,2442,6_S
1779267281.65805,2520,1992,6_S
1779267281.660535,2105,1758,6_S
1779267281.6612968,2026,1741,6_S
1779267281.663188,1985,1922,6_S
1779267281.667734,2009,1675,6_S
1779267281.668299,1942,1588,6_S
1779267281.668624,1919,1986,6_S
1779267281.671783,1959,2421,6_S
1779267281.6718762,1772,2246,6_S
1779267281.6745632,1999,1923,6_S
1779267281.681278,2039,1810,6_S
1779267281.6831958,1917,2010,6_S
1779267281.683517,2162,1850,6_S
1779267281.6854131,2057,1563,6_S
1779267281.6856909,2043,1822,6_S
1779267281.688017,2072,2308,6_S
1779267281.6883311,2044,2373,6_S
1779267281.692943,1947,1841,6_S
1779267281.693254,2030,1669,6_S
1779267281.696656,2031,1824,6_S
1779267281.696765,1948,1994,6_S
1779267281.698127,1923,1655,6_S
1779267281.7008278,2142,1772,6_S
1779267281.702162,2122,2229,6_S
1779267281.708725,2084,2534,6_S
1779267281.7117388,2096,2131,6_S
1779267281.71207,2042,1820,6_S
1779267281.71254,1940,1732,6_S
1779267281.7147079,2013,1974,6_S
1779267281.721299,2019,1687,6_S
1779267281.721901,1965,1648,6_S
1779267281.722246,1962,2059,6_S
1779267281.72267,2022,2506,6_S
1779267281.723294,2139,2214,6_S
1779267281.726348,2143,1870,6_S
1779267281.726711,1853,1674,6_S
1779267281.728113,1907,1991,6_S
1779267281.73543,2152,1876,6_S
1779267281.735623,2063,1630,6_S
1779267281.738258,2061,1856,6_S
1779267281.738658,1914,2466,6_S
1779267281.7388532,2331,2403,6_S
1779267281.743058,2107,1959,6_S
1779267281.747434,1815,1790,6_S
1779267281.7477472,2041,2016,6_S
1779267281.748151,2151,1991,6_S
1779267281.748574,2097,1602,6_S
1779267281.752023,1922,1812,6_S
1779267281.752178,1878,2339,6_S
1779267281.754814,1994,2696,6_S
1779267281.7561631,2079,2132,6_S
1779267281.759308,2099,1722,6_S
1779267281.766496,2098,1849,6_S
1779267281.769328,1937,2141,6_S
1779267281.7738838,1832,1724,6_S
1779267281.778545,1964,1691,6_S
1779267281.7790751,2057,2055,6_S
1779267281.779433,2108,2526,6_S
1779267281.779824,2072,2278,6_S
1779267281.780208,1963,1886,6_S
1779267281.78339,2029,1749,6_S
1779267281.78356,2040,1972,6_S
1779267281.7836769,2098,1945,6_S
1779267281.7837381,1969,1692,6_S
1779267281.783828,1823,1962,6_S
1779267281.7865338,1985,2458,6_S
1779267281.793066,1948,2526,6_S
1779267281.795035,2114,2024,6_S
1779267281.79565,1983,1765,6_S
1779267281.7998521,1963,1947,6_S
1779267281.800297,2056,2012,6_S
1779267281.804822,1986,1632,6_S
1779267281.805216,1837,1841,6_S
1779267281.805569,2163,2279,6_S
1779267281.806154,2184,2589,6_S
1779267281.8065128,1876,2117,6_S
1779267281.809838,1822,1787,6_S
1779267281.8102038,1834,1775,6_S
1779267281.8129249,2053,2001,6_S
1779267281.814394,1843,1734,6_S
1779267281.815812,1811,1751,6_S
1779267281.822731,2007,2140,6_S
1779267281.826216,2230,2623,6_S
1779267281.828026,1928,2297,6_S
1779267281.829518,2046,1851,6_S
1779267281.8312478,1974,1795,6_S
1779267281.835876,2229,2080,6_S
1779267281.836166,2127,2006,6_S
1779267281.836524,2122,1669,6_S
1779267281.836879,2058,1950,6_S
1779267281.8373382,2057,2475,6_S
1779267281.840519,2073,2479,6_S
1779267281.840652,1906,2062,6_S
1779267281.842062,1862,1843,6_S
1779267281.8487759,1826,1941,6_S
1779267281.850027,2195,2025,6_S
1779267281.85208,2081,1679,6_S
1779267281.85412,1885,1820,6_S
1779267281.854319,2016,2370,6_S
1779267281.855165,2064,2641,6_S
1779267281.86115,1923,2255,6_S
1779267281.861502,2038,1877,6_S
1779267281.861946,2092,1840,6_S
1779267281.862589,2110,2077,6_S
1779267281.865837,1971,1841,6_S
1779267281.8660018,1924,1801,6_S
1779267281.868696,2096,2176,6_S
1779267281.8708649,2234,2594,6_S
1779267281.890964,1779,2264,6_S
1779267281.891862,1863,1921,6_S
1779267281.892475,2383,1876,6_S
1779267281.8951838,1933,2088,6_S
1779267281.896078,1934,1917,6_S
1779267281.8962471,1932,1705,6_S
1779267281.896339,2011,1965,6_S
1779267281.896446,2060,2530,6_S
1779267281.8965278,2076,2507,6_S
1779267281.8966641,2057,1929,6_S
1779267281.896724,2101,1718,6_S
1779267281.8967738,1892,2055,6_S
1779267281.8968801,1612,2056,6_S
1779267281.898447,1985,1626,6_S
1779267281.9035552,2426,1863,6_S
1779267281.9048991,1982,2446,6_S
1779267281.9078069,1750,2620,6_S
1779267281.908412,2180,2161,6_S
1779267281.912653,2259,1865,6_S
1779267281.917166,2027,1915,6_S
1779267281.917654,1930,2144,6_S
1779267281.9182742,1985,1835,6_S
1779267281.920701,2037,1778,6_S
1779267281.921566,2027,2322,6_S
1779267281.921741,1945,2699,6_S
1779267281.921834,1979,2447,6_S
1779267281.924534,1923,1998,6_S
1779267281.925941,2078,1891,6_S
1779267281.932916,2230,2205,6_S
1779267281.934419,2235,2014,6_S
1779267281.938009,2066,2082,6_S
1779267281.938613,1820,2357,6_S
1779267281.943626,2083,2791,6_S
1779267281.948811,2332,2537,6_S
1779267281.949368,2242,2277,6_S
1779267281.949923,1757,2334,6_S
1779267281.950508,1543,2684,6_S
1779267281.954169,2250,2624,6_S
1779267281.954279,2193,2323,6_S
1779267281.954428,1859,2538,6_S
1779267281.954559,1875,3097,6_S
1779267281.954632,2097,3304,6_S
1779267281.956016,2316,2723,6_S
1779267281.9630852,1961,2360,6_S
1779267281.9638789,2082,2319,6_S
1779267281.9641469,1945,2694,6_S
1779267281.9650948,2121,2509,6_S
1779267281.968277,2119,2431,6_S
1779267281.971348,1991,2810,6_S
1779267281.9734342,2051,3078,6_S
1779267281.973824,2289,2871,6_S
1779267281.974049,1833,2464,6_S
1779267281.979112,1986,2507,6_S
1779267281.9794712,2160,2731,6_S
1779267281.979854,1969,2612,6_S
1779267281.983385,1844,2521,6_S
1779267281.985164,2181,2955,6_S
1779267281.9865448,1702,3475,6_S
1779267281.987902,2118,3318,6_S
1779267281.9910872,2110,2649,6_S
1779267281.9965792,1957,2466,6_S
1779267281.9981701,1850,2717,6_S
1779267281.9990442,2198,2832,6_S
1779267281.999862,2329,2627,6_S
1779267282.0022578,1962,2821,6_S
1779267282.002614,2091,3203,6_S
1779267282.005697,2334,3218,6_S
1779267282.0076318,2437,2887,6_S
1779267282.012606,1554,2564,6_S
1779267282.013203,1652,2672,6_S
1779267282.013406,2190,2819,6_S
1779267282.01754,2286,2611,6_S
1779267282.0176609,1919,2676,6_S
1779267282.017816,2118,3249,6_S
1779267282.020488,1965,3429,6_S
1779267282.026269,2169,3093,6_S
1779267282.026963,2011,2634,6_S
1779267282.027196,2270,2556,6_S
1779267282.031399,2040,3032,6_S
1779267282.031712,1698,3035,6_S
1779267282.032001,1875,2954,6_S
1779267282.036771,2168,3182,6_S
1779267282.0418172,1918,3446,6_S
1779267282.0424519,2283,3323,6_S
1779267282.042897,2073,2867,6_S
1779267282.043311,1980,2612,6_S
1779267282.046999,2890,2787,6_S
1779267282.047251,2028,2986,6_S
1779267282.048636,2145,3106,6_S
1779267282.050088,1966,3014,6_S
1779267282.052799,2091,3262,6_S
1779267282.054213,2146,3332,6_S
1779267282.06016,2136,3056,6_S
1779267282.061627,1731,2842,6_S
1779267282.062418,2024,2842,6_S
1779267282.063402,2216,3079,6_S
1779267282.0659359,2020,2892,6_S
1779267282.0663009,2023,3005,6_S
1779267282.071708,2127,3193,6_S
1779267282.07676,3041,3447,6_S
1779267282.080817,2679,3282,6_S
1779267282.081009,1007,2907,6_S
1779267282.0810921,2372,2767,6_S
1779267282.081208,3543,3083,6_S
1779267282.08128,1199,3439,6_S
1779267282.082672,1411,3186,6_S
1779267282.089024,2169,3213,6_S
1779267282.08934,2350,3476,6_S
1779267282.0908248,2136,3578,6_S
1779267282.092288,1627,3095,6_S
1779267282.094531,2046,2905,6_S
1779267282.094937,2296,3234,6_S
1779267282.098094,2568,3353,6_S
1779267282.100271,2175,3384,6_S
1779267282.10481,2334,3539,6_S
1779267282.105063,1822,3728,6_S
1779267282.105241,1975,3604,6_S
1779267282.109231,2368,3215,6_S
1779267282.109319,2009,3148,6_S
1779267282.110663,1769,3163,6_S
1779267282.1120052,2177,3190,6_S
1779267282.114635,2109,3198,6_S
1779267282.116365,2256,3114,6_S
1779267282.122541,2309,3307,6_S
1779267282.123233,2101,3335,6_S
1779267282.124553,1500,3113,6_S
1779267282.12697,2221,2860,6_S
1779267282.12724,2128,2868,6_S
1779267282.129707,1741,2868,6_S
1779267282.132153,2552,2856,6_S
1779267282.132781,1921,2935,6_S
1779267282.137782,2244,2937,6_S
1779267282.13815,2645,3076,6_S
1779267282.138861,1847,2930,6_S
1779267282.1415522,1982,2693,6_S
1779267282.142752,2204,2618,6_S
1779267282.1441338,1870,2470,6_S
1779267282.150914,2018,2663,6_S
1779267282.151855,2156,2677,6_S
1779267282.152643,1764,2683,6_S
1779267282.1533382,1936,2824,6_S
1779267282.156276,2116,2762,6_S
1779267282.156598,2255,2483,6_S
1779267282.159796,1963,2489,6_S
1779267282.161778,2075,2420,6_S
1779267282.166788,1562,2461,6_S
1779267282.167093,2657,2636,6_S
1779267282.167835,2003,2572,6_S
1779267282.168355,1907,2493,6_S
1779267282.172197,2261,2600,6_S
1779267282.172276,1750,2443,6_S
1779267282.173825,2293,2203,6_S
1779267282.176501,1706,2182,6_S
1779267282.177862,2570,2348,6_S
1779267282.185004,2237,2309,6_S
1779267282.185291,2127,2323,6_S
1779267282.186523,1716,2456,6_S
1779267282.187532,1509,2506,6_S
1779267282.1904871,2057,2366,6_S
1779267282.1907651,2851,2307,6_S
1779267282.193283,2142,2144,6_S
1779267282.195958,1670,2132,6_S
1779267282.196162,1974,2020,6_S
1779267282.201442,2138,2009,6_S
1779267282.2017941,1827,2033,6_S
1779267282.2022028,1883,2063,6_S
1779267282.205678,2565,2236,6_S
1779267282.206188,2072,2110,6_S
1779267282.207674,1963,1759,6_S
1779267282.214106,2583,2158,6_S
1779267282.214849,2004,2004,6_S
1779267282.215709,1443,2100,6_S
1779267282.217111,2306,1961,6_S
1779267282.2199638,2603,2244,6_S
1779267282.220314,1650,2371,6_S
1779267282.222647,1979,2158,6_S
1779267282.225059,2003,1994,6_S
1779267282.230102,1906,2055,6_S
1779267282.230516,1807,2057,6_S
1779267282.231248,1899,2121,6_S
1779267282.2347908,2088,2033,6_S
1779267282.2348669,2489,2081,6_S
1779267282.236232,2808,2256,6_S
1779267282.238063,1753,2293,6_S
1779267282.240813,1574,1929,6_S
1779267282.24815,2251,2039,6_S
1779267282.249058,2085,1949,6_S
1779267282.2512152,1775,1956,6_S
1779267282.254242,2026,2037,6_S
1779267282.254653,1763,2025,6_S
1779267282.25488,1665,2040,6_S
1779267282.255125,2940,1964,6_S
1779267282.258067,2364,2225,6_S
1779267282.2590451,830,2011,6_S
1779267282.261167,2409,1916,6_S
1779267282.267214,2522,1983,6_S
1779267282.267852,2364,1867,6_S
1779267282.268084,2144,2043,6_S
1779267282.268575,1383,2112,6_S
1779267282.2728682,2260,2245,6_S
1779267282.273327,2253,2067,6_S
1779267282.274704,1966,1924,6_S
1779267282.276083,1381,2054,6_S
1779267282.28412,2346,2090,6_S
1779267282.285852,2643,1927,6_S
1779267282.2861178,1930,2004,6_S
1779267282.292105,1597,1979,6_S
1779267282.301074,1993,2172,6_S
1779267282.301435,1792,1983,6_S
1779267282.301829,2651,2087,6_S
1779267282.3021219,2069,1966,6_S
1779267282.302497,1661,1971,6_S
1779267282.306274,1798,1925,6_S
1779267282.307146,2925,1914,6_S
1779267282.3076859,1860,1933,6_S
1779267282.307765,1931,2208,6_S
1779267282.307837,1465,2314,6_S
1779267282.307934,2150,2143,6_S
1779267282.308064,2184,1904,6_S
1779267282.310805,2542,2047,6_S
1779267282.312161,1762,2062,6_S
1779267282.31482,1731,1872,6_S
1779267282.316333,3047,2086,6_S
1779267282.323853,2070,2064,6_S
1779267282.324815,1375,2132,6_S
1779267282.329036,1773,2262,6_S
1779267282.331787,2352,2007,6_S
1779267282.3327749,2220,1559,6_S
1779267282.3329978,2631,2234,6_S
1779267282.336284,1431,2060,6_S
1779267282.342877,1718,2016,6_S
1779267282.343412,2115,2087,6_S
1779267282.343712,1945,2153,6_S
1779267282.3439791,2647,2156,6_S
1779267282.344516,2409,2053,6_S
1779267282.34481,1869,2022,6_S
1779267282.3451142,2128,1907,6_S
1779267282.349387,2209,2005,6_S
1779267282.349587,2557,2273,6_S
1779267282.3497071,1366,2075,6_S
1779267282.352661,2142,2052,6_S
1779267282.3592908,2759,2508,6_S
1779267282.360448,1763,2196,6_S
1779267282.36225,2307,1800,6_S
1779267282.3657851,2463,2100,6_S
1779267282.3663082,1197,2024,6_S
1779267282.366834,2593,1916,6_S
1779267282.369456,3072,2136,6_S
1779267282.370775,1850,2137,6_S
1779267282.3734488,2074,2392,6_S
1779267282.373865,2053,2030,6_S
1779267282.374169,3505,1917,6_S
1779267282.380557,2197,2511,6_S
1779267282.380715,637,2418,6_S
1779267282.380825,2388,2181,6_S
1779267282.384746,2576,2306,6_S
1779267282.3851159,1582,2390,6_S
1779267282.386645,2115,2210,6_S
1779267282.38803,3761,2252,6_S
1779267282.3907561,2064,2104,6_S
1779267282.392344,2277,1981,6_S
1779267282.399672,2735,1957,6_S
1779267282.400651,2282,2128,6_S
1779267282.4025128,2304,2061,6_S
1779267282.402695,2168,2226,6_S
1779267282.405729,1253,2368,6_S
1779267282.406153,2442,2329,6_S
1779267282.408439,3032,2379,6_S
1779267282.409395,1735,2274,6_S
1779267282.418779,2127,2359,6_S
1779267282.419199,2680,2163,6_S
1779267282.419541,2730,2126,6_S
1779267282.419979,2113,2097,6_S
1779267282.420305,2475,1650,6_S
1779267282.420678,2528,2108,6_S
1779267282.4242718,1876,2001,6_S
1779267282.425549,1663,2217,6_S
1779267282.4259148,1661,2015,6_S
1779267282.428801,3066,2120,6_S
1779267282.436592,2464,2297,6_S
1779267282.4381309,1962,2502,6_S
1779267282.4392,1711,2411,6_S
1779267282.440226,1990,2194,6_S
1779267282.44045,2458,2061,6_S
1779267282.4464262,2747,2026,6_S
1779267282.44669,1859,2113,6_S
1779267282.4478688,1267,2210,6_S
1779267282.4504151,2312,1882,6_S
1779267282.450662,2576,1991,6_S
1779267282.451186,1813,2094,6_S
1779267282.4581199,1966,2304,6_S
1779267282.461848,3796,2270,6_S
1779267282.462068,1942,2242,6_S
1779267282.4631839,1520,2377,6_S
1779267282.463619,2220,2170,6_S
1779267282.463707,2871,2092,6_S
1779267282.463781,2032,2222,6_S
1779267282.466628,1721,2372,6_S
1779267282.467998,2107,2422,6_S
1779267282.470672,2138,2291,6_S
1779267282.478126,2191,2183,6_S
1779267282.479798,1746,2260,6_S
1779267282.48167,2071,1996,6_S
1779267282.485396,2793,1993,6_S
1779267282.4857779,2019,1948,6_S
1779267282.486024,1233,1982,6_S
1779267282.4864519,2458,2394,6_S
1779267282.489463,2311,2366,6_S
1779267282.4927092,2510,2323,6_S
1779267282.499208,1919,2283,6_S
1779267282.4998121,1750,2439,6_S
1779267282.500221,1968,2183,6_S
1779267282.500563,2201,2570,6_S
1779267282.501058,1419,1952,6_S
1779267282.5016372,2738,1680,6_S
1779267282.501816,2811,2349,6_S
1779267282.506597,1392,2428,6_S
1779267282.5067441,1781,2335,6_S
1779267282.508403,1901,2375,6_S
1779267282.5101209,3305,2301,6_S
1779267282.519986,1245,2601,6_S
1779267282.522901,889,2299,6_S
1779267282.523239,2329,2223,6_S
1779267282.523702,2164,2404,6_S
1779267282.524107,1439,2870,6_S
1779267282.524329,1970,2606,6_S
1779267282.527112,3011,2633,6_S
1779267282.530375,1672,2798,6_S
1779267282.530602,1523,2650,6_S
1779267282.5308821,2678,2291,6_S
1779267282.537516,3127,2501,6_S
1779267282.5380008,1388,2769,6_S
1779267282.5384939,2112,2646,6_S
1779267282.538903,2289,2555,6_S
1779267282.54355,1678,2704,6_S
1779267282.543653,1344,2290,6_S
1779267282.5437188,1351,2209,6_S
1779267282.546346,2167,2250,6_S
1779267282.5477571,3772,1900,6_S
1779267282.5506182,2880,1913,6_S
1779267282.5638568,738,3378,6_S
1779267282.563995,497,2411,6_S
1779267282.5641742,2656,2006,6_S
1779267282.564285,2745,2177,6_S
1779267282.564351,1470,2310,6_S
1779267282.564414,1916,1900,6_S
1779267282.5644748,2238,1119,6_S
1779267282.5658722,381,863,6_S
1779267282.569686,4082,999,6_S
1779267282.581696,3220,1417,6_S
1779267282.581814,1203,1449,6_S
1779267282.581887,1832,654,6_S
1779267282.581953,1725,577,6_S
1779267282.58201,2853,432,6_S
1779267282.582228,2314,622,6_S
1779267282.582307,1795,874,6_S
1779267282.58374,1701,664,6_S
1779267282.591136,2381,162,6_S
1779267282.5925708,2735,326,6_S
1779267282.595961,1900,554,6_S
1779267282.598198,1000,171,6_S
1779267282.599871,2051,0,6_S
1779267282.609803,2843,359,6_S
1779267282.610559,1431,703,6_S
1779267282.6111932,1829,653,6_S
1779267282.614314,2023,293,6_S
1779267282.615367,2482,0,6_S
1779267282.615484,2882,461,6_S
1779267282.615631,2028,354,6_S
1779267282.615687,1808,0,6_S
1779267282.6157382,2146,84,6_S
1779267282.615793,2390,493,6_S
1779267282.615846,1469,602,6_S
1779267282.61857,1958,401,6_S
1779267282.619919,2444,236,6_S
1779267282.623011,1760,780,6_S
1779267282.631783,2202,42,6_S
1779267282.635232,3203,504,6_S
1779267282.637195,1933,0,6_S
1779267282.6411588,2140,369,6_S
1779267282.647234,1415,561,6_S
1779267282.647695,2868,452,6_S
1779267282.648061,2837,139,6_S
1779267282.6486862,1524,1077,6_S
1779267282.649159,1242,1311,6_S
1779267282.6520388,1790,885,6_S
1779267282.653343,3163,182,6_S
1779267282.653409,2386,368,6_S
1779267282.653468,1804,736,6_S
1779267282.6535811,2101,691,6_S
1779267282.653705,1294,317,6_S
1779267282.653837,2437,623,6_S
1779267282.657009,2403,941,6_S
1779267282.663077,1517,605,6_S
1779267282.6641011,3825,291,6_S
1779267282.667897,1939,190,6_S
1779267282.6684349,2249,683,6_S
1779267282.671296,2130,770,6_S
1779267282.674389,1459,470,6_S
1779267282.6805701,2268,650,6_S
1779267282.680987,2053,1231,6_S
1779267282.681209,1665,1248,6_S
1779267282.681623,1878,648,6_S
1779267282.681846,2334,27,6_S
1779267282.682154,1501,701,6_S
1779267282.685421,2913,934,6_S
1779267282.685968,2031,678,6_S
1779267282.686097,1931,415,6_S
1779267282.68873,1927,1602,6_S
1779267282.6901078,2357,1351,6_S
1779267282.6927218,2307,1344,6_S
1779267282.700098,1175,605,6_S
1779267282.700913,2433,597,6_S
1779267282.7017112,2650,1116,6_S
1779267282.704184,858,1016,6_S
1779267282.704719,1992,436,6_S
1779267282.704929,2985,1488,6_S
1779267282.710051,2263,1919,6_S
1779267282.71591,1249,1572,6_S
1779267282.716438,2220,1038,6_S
1779267282.716863,2324,375,6_S
1779267282.717365,1695,1235,6_S
1779267282.717667,1646,1366,6_S
1779267282.718036,2097,814,6_S
1779267282.721287,2354,1637,6_S
1779267282.7225301,1973,1878,6_S
1779267282.7239811,1928,1809,6_S
1779267282.731457,2314,1349,6_S
1779267282.73513,2357,766,6_S
1779267282.737909,1761,1167,6_S
1779267282.746606,1177,1607,6_S
1779267282.7472441,2022,1199,6_S
1779267282.747895,1964,1546,6_S
1779267282.751006,2890,2224,6_S
1779267282.752148,1670,2019,6_S
1779267282.752234,2160,1689,6_S
1779267282.752299,2184,1534,6_S
1779267282.752359,1285,937,6_S
1779267282.7524228,1956,1769,6_S
1779267282.752519,3302,1618,6_S
1779267282.7525802,1873,1509,6_S
1779267282.753939,1318,2360,6_S
1779267282.7566621,1705,2143,6_S
1779267282.758006,1990,1837,6_S
1779267282.765416,2063,1733,6_S
1779267282.766248,2040,1090,6_S
1779267282.768194,2061,1739,6_S
1779267282.770588,1411,1930,6_S
1779267282.775341,2766,1154,6_S
1779267282.781502,2612,2304,6_S
1779267282.781826,1914,2214,6_S
1779267282.782049,1491,1950,6_S
1779267282.7824,2613,1708,6_S
1779267282.7825952,2111,1552,6_S
1779267282.782814,1818,1474,6_S
1779267282.7832031,2063,2118,6_S
1779267282.787022,1988,1637,6_S
1779267282.787094,1756,2419,6_S
1779267282.788438,1643,2518,6_S
1779267282.7945988,2305,1911,6_S
1779267282.794858,1893,1931,6_S
1779267282.796053,1770,1785,6_S
1779267282.799155,2008,1114,6_S
1779267282.80205,1889,2144,6_S
1779267282.8038259,2405,1977,6_S
1779267282.809079,2700,2171,6_S
1779267282.809418,1893,2607,6_S
1779267282.809818,1609,1996,6_S
1779267282.8100889,1754,1908,6_S
1779267282.810224,2063,1946,6_S
1779267282.813309,3042,1253,6_S
1779267282.8146381,1583,1970,6_S
1779267282.815958,1613,2193,6_S
1779267282.8185441,2641,1699,6_S
1779267282.824321,1408,2798,6_S
1779267282.8254561,1853,2204,6_S
1779267282.8265831,2181,1785,6_S
1779267282.828584,1651,2091,6_S
1779267282.828982,1867,1743,6_S
1779267282.831347,3016,1622,6_S
1779267282.833236,1771,2302,6_S
1779267282.8386948,1869,1762,6_S
1779267282.839703,2123,2762,6_S
1779267282.8423932,2202,2391,6_S
1779267282.843219,3236,1762,6_S
1779267282.843322,1375,2133,6_S
1779267282.844661,986,2137,6_S
1779267282.8503869,2290,1289,6_S
1779267282.854629,1582,2248,6_S
1779267282.854976,2446,2111,6_S
1779267282.8578649,2184,2388,6_S
1779267282.860062,2259,2625,6_S
1779267282.865707,1779,1936,6_S
1779267282.866498,2097,1834,6_S
1779267282.867369,2557,2062,6_S
1779267282.870566,2132,1627,6_S
1779267282.870671,1635,1963,6_S
1779267282.870778,2137,2269,6_S
1779267282.870848,1614,1999,6_S
1779267282.87091,2859,2774,6_S
1779267282.872264,2198,2266,6_S
1779267282.873678,1308,1764,6_S
1779267282.8764338,2308,2137,6_S
1779267282.886009,2383,1763,6_S
1779267282.886406,2040,1583,6_S
1779267282.886734,2626,2323,6_S
1779267282.88881,1734,1823,6_S
1779267282.888963,1140,3248,6_S
1779267282.889933,2280,2587,6_S
1779267282.897106,2153,1757,6_S
1779267282.897413,1652,2010,6_S
1779267282.8977978,1975,2013,6_S
1779267282.8982432,2375,1389,6_S
1779267282.8985019,2037,2257,6_S
1779267282.901741,1687,2088,6_S
1779267282.901912,1709,2627,6_S
1779267282.904415,2834,2934,6_S
1779267282.9113102,2312,1884,6_S
1779267282.9133341,2027,1911,6_S
1779267282.913881,2028,2470,6_S
1779267282.916493,2030,1804,6_S
1779267282.91819,2125,2010,6_S
1779267282.923834,2221,2293,6_S
1779267282.924602,1706,2081,6_S
1779267282.927543,2171,2919,6_S
1779267282.927886,1949,2211,6_S
1779267282.9280488,1979,1751,6_S
1779267282.9281669,2133,2172,6_S
1779267282.92828,2331,1939,6_S
1779267282.9296699,2105,1614,6_S
1779267282.932374,1651,2342,6_S
1779267282.9341052,2228,1874,6_S
1779267282.940833,1602,3016,6_S
1779267282.943147,1939,2580,6_S
1779267282.945995,2918,1746,6_S
1779267282.947624,2062,2064,6_S
1779267282.9480782,2339,1949,6_S
1779267282.953705,1945,1446,6_S
1779267282.954114,1864,2264,6_S
1779267282.954543,1853,2104,6_S
1779267282.954827,1959,2730,6_S
1779267282.955329,1870,2825,6_S
1779267282.958496,1542,1895,6_S
1779267282.958828,2485,1890,6_S
1779267282.960225,2502,2360,6_S
1779267282.96651,1630,1942,6_S
1779267282.968298,1928,1983,6_S
1779267282.97055,2117,2281,6_S
1779267282.97086,2077,2405,6_S
1779267282.971162,2514,3243,6_S
1779267282.975477,1905,2195,6_S
1779267282.9759119,1649,1790,6_S
1779267282.9816792,1882,2124,6_S
1779267282.9821389,2085,2193,6_S
1779267282.982972,1923,1618,6_S
1779267282.986013,2189,2311,6_S
1779267282.986114,2354,1788,6_S
1779267282.986219,2219,3195,6_S
1779267282.98772,1735,2572,6_S
1779267282.990399,1991,1758,6_S
1779267282.991785,1816,2139,6_S
1779267282.9992561,2278,2196,6_S
1779267283.001211,1681,1491,6_S
1779267283.0036402,2107,2265,6_S
1779267283.004011,2305,2098,6_S
1779267283.004637,2577,2865,6_S
1779267283.009794,1886,3028,6_S
1779267283.0159721,1556,1868,6_S
1779267283.016248,2950,1927,6_S
1779267283.0166101,1327,2351,6_S
1779267283.016945,1989,1812,6_S
1779267283.017354,2110,2032,6_S
1779267283.019716,2067,2275,6_S
1779267283.020708,2041,2389,6_S
1779267283.021064,1959,3048,6_S
1779267283.022432,2018,2164,6_S
1779267283.028735,1928,1785,6_S
1779267283.030109,1576,2119,6_S
1779267283.032683,3201,1896,6_S
1779267283.033262,2146,1679,6_S
1779267283.035886,1629,2316,6_S
1779267283.0379221,1491,2080,6_S
1779267283.04499,2107,3086,6_S
1779267283.045664,2289,2527,6_S
1779267283.046249,2088,1772,6_S
1779267283.0465379,1905,2191,6_S
1779267283.047016,1938,2276,6_S
1779267283.0494149,1897,1425,6_S
1779267283.050271,1725,2276,6_S
1779267283.050611,2720,2056,6_S
1779267283.051975,2183,2826,6_S
1779267283.0545962,2295,2828,6_S
1779267283.055934,1682,1865,6_S
1779267283.060931,2226,1933,6_S
1779267283.061719,2234,2316,6_S
1779267283.064,1637,1820,6_S
1779267283.0662248,2059,2042,6_S
1779267283.068455,2000,2252,6_S
1779267283.069209,1914,2392,6_S
1779267283.071127,2049,3093,6_S
1779267283.078474,1951,2141,6_S
1779267283.079024,1891,1801,6_S
1779267283.079657,2092,2261,6_S
1779267283.080141,2055,2088,6_S
1779267283.084494,2084,1684,6_S
1779267283.084607,1899,2321,6_S
1779267283.0847511,2123,2046,6_S
1779267283.086154,2054,3112,6_S
1779267283.094614,2008,2522,6_S
1779267283.095646,2050,1769,6_S
1779267283.098978,2041,2185,6_S
1779267283.099575,2086,2161,6_S
1779267283.1012201,2040,1325,6_S
1779267283.102435,1992,2294,6_S
1779267283.1041548,2017,2050,6_S
1779267283.1045241,2189,2838,6_S
1779267283.11041,2134,2847,6_S
1779267283.1109738,2034,1841,6_S
1779267283.1115599,1958,1946,6_S
1779267283.1118772,2013,2264,6_S
1779267283.115015,2053,1708,6_S
1779267283.115402,2032,2080,6_S
1779267283.116705,2004,2250,6_S
1779267283.118083,2011,2449,6_S
1779267283.120738,2035,2986,6_S
1779267283.1273248,2015,2115,6_S
1779267283.129471,2003,1804,6_S
1779267283.130332,2029,2111,6_S
1779267283.132661,2003,2042,6_S
1779267283.1353621,1987,1720,6_S
1779267283.137412,2009,2309,6_S
1779267283.1435049,2015,2071,6_S
1779267283.1441898,2013,3049,6_S
1779267283.1444852,1945,2487,6_S
1779267283.145039,1924,1773,6_S
1779267283.1453938,1973,2197,6_S
1779267283.14881,1972,2249,6_S
1779267283.149277,1982,1464,6_S
1779267283.1494122,1970,2282,6_S
1779267283.150848,1981,2027,6_S
1779267283.152228,1982,2970,6_S
1779267283.157999,2013,2881,6_S
1779267283.1596348,1961,1839,6_S
1779267283.161706,1962,1969,6_S
1779267283.1622431,1943,2328,6_S
1779267283.164321,1937,1788,6_S
1779267283.165092,1970,2080,6_S
1779267283.1668952,1940,2235,6_S
1779267283.1726131,1947,2535,6_S
1779267283.173266,1970,3075,6_S
1779267283.173665,1980,2095,6_S
1779267283.174158,2003,1823,6_S
1779267283.177496,1987,2183,6_S
1779267283.1776571,2018,1961,6_S
1779267283.1802728,2017,1750,6_S
1779267283.181687,1979,2304,6_S
1779267283.1913228,1982,2019,6_S
1779267283.194422,2026,3003,6_S
1779267283.197262,2011,2459,6_S
1779267283.204455,1957,1766,6_S
1779267283.2049909,1960,2207,6_S
1779267283.205369,1960,2228,6_S
1779267283.205699,1961,1388,6_S
1779267283.206164,1957,2299,6_S
1779267283.206524,1992,2015,6_S
1779267283.2104168,1995,2860,6_S
1779267283.2109509,1985,2813,6_S
1779267283.2110631,1963,1824,6_S
1779267283.2111459,1960,1954,6_S
1779267283.211209,2011,2221,6_S
1779267283.2125618,2012,1722,6_S
1779267283.214026,1914,2100,6_S
1779267283.2200909,1942,2227,6_S
1779267283.223719,2012,2315,6_S
1779267283.224085,1969,2870,6_S
1779267283.224561,2036,2098,6_S
1779267283.228638,2094,1807,6_S
1779267283.235192,2025,2283,6_S
1779267283.23559,1832,1919,6_S
1779267283.2358668,1743,1745,6_S
1779267283.236396,1833,2325,6_S
1779267283.236968,2305,2057,6_S
1779267283.2375,2255,3002,6_S
1779267283.237937,2004,2462,6_S
1779267283.241251,1901,1757,6_S
1779267283.242655,2232,2055,6_S
1779267283.244024,2328,1983,6_S
1779267283.2466948,2050,1343,6_S
1779267283.2532768,1947,2297,6_S
1779267283.254647,1977,1992,6_S
1779267283.257659,2055,2868,6_S
1779267283.258126,1926,2762,6_S
1779267283.261578,1911,1827,6_S
1779267283.2633731,1759,1951,6_S
1779267283.263805,1722,2211,6_S
1779267283.269825,2363,1695,6_S
1779267283.27042,2187,2107,6_S
1779267283.270645,1810,2212,6_S
1779267283.271074,2010,2446,6_S
1779267283.271533,2241,2943,6_S
1779267283.271911,2412,2080,6_S
1779267283.2750442,2222,1825,6_S
1779267283.276458,1896,2148,6_S
1779267283.278104,1894,1946,6_S
1779267283.2846878,1924,1774,6_S
1779267283.286955,2337,2300,6_S
1779267283.287485,2412,2044,6_S
1779267283.290248,1930,3046,6_S
1779267283.292429,1906,2430,6_S
1779267283.298021,1881,1770,6_S
1779267283.298642,1999,2163,6_S
1779267283.299372,2147,2120,6_S
1779267283.299744,2237,1374,6_S
1779267283.299978,2042,2304,6_S
1779267283.30279,1963,1975,6_S
1779267283.3032901,1984,2943,6_S
1779267283.304689,2003,2776,6_S
1779267283.306049,2148,1811,6_S
1779267283.308747,2142,1986,6_S
1779267283.3105521,1829,2304,6_S
1779267283.3208902,1992,1714,6_S
1779267283.321771,2238,2127,6_S
1779267283.3269498,2088,2212,6_S
1779267283.327212,2145,2556,6_S
1779267283.3341382,2183,3003,6_S
1779267283.3344269,1908,2051,6_S
1779267283.334898,1984,1831,6_S
1779267283.335207,2189,2139,6_S
1779267283.338281,2061,1909,6_S
1779267283.33952,1638,1808,6_S
1779267283.339637,1735,2297,6_S
1779267283.339712,2082,2125,6_S
1779267283.3398972,2024,2928,6_S
1779267283.3400772,1854,2403,6_S
1779267283.340149,1841,1776,6_S
1779267283.3496268,2497,2140,6_S
1779267283.353173,2198,2106,6_S
1779267283.353773,1588,1401,6_S
1779267283.3559701,1795,2300,6_S
1779267283.3568041,1897,1947,6_S
1779267283.357017,1913,3003,6_S
1779267283.3588521,2020,2803,6_S
1779267283.3594081,1863,1802,6_S
1779267283.3661408,2103,2004,6_S
1779267283.3663821,1943,2304,6_S
1779267283.36665,2200,1660,6_S
1779267283.3671691,1981,2151,6_S
1779267283.3676858,1944,2195,6_S
1779267283.3680298,2285,2670,6_S
1779267283.371372,2269,2993,6_S
1779267283.3727481,1825,2021,6_S
1779267283.3740978,2039,1855,6_S
1779267283.376723,2094,2330,6_S
1779267283.3780758,2347,2016,6_S
1779267283.3866189,2241,1831,6_S
1779267283.3874428,1431,2305,6_S
1779267283.392816,2071,2204,6_S
1779267283.394973,2019,3014,6_S
1779267283.3952909,1855,2375,6_S
1779267283.4020538,1880,1775,6_S
1779267283.402415,1780,2338,6_S
1779267283.40274,1578,2248,6_S
1779267283.4032729,1660,1414,6_S
1779267283.406268,2335,2322,6_S
1779267283.406482,2276,1998,6_S
1779267283.407624,2062,3129,6_S
1779267283.4079201,2073,2791,6_S
1779267283.407995,2097,1789,6_S
1779267283.408061,2327,1993,6_S
1779267283.41737,2019,2133,6_S
1779267283.418762,2022,1602,6_S
1779267283.421272,2123,2171,6_S
1779267283.4261901,1913,2179,6_S
1779267283.426743,1769,2651,6_S
1779267283.433307,2139,2890,6_S
1779267283.433737,2073,2003,6_S
1779267283.433967,1864,1850,6_S
1779267283.434408,1862,2239,6_S
1779267283.434589,2035,1932,6_S
1779267283.435043,2074,1857,6_S
1779267283.435412,2095,2291,6_S
1779267283.438536,1996,2280,6_S
1779267283.4395509,2049,3099,6_S
1779267283.43976,1899,2341,6_S
1779267283.440161,1845,1788,6_S
1779267283.442837,1976,2096,6_S
1779267283.444248,2216,2135,6_S
1779267283.445648,2091,1476,6_S
1779267283.453042,2022,2296,6_S
1779267283.4533,2056,1882,6_S
1779267283.457765,1958,2918,6_S
1779267283.4579399,2021,2692,6_S
1779267283.458472,2069,1795,6_S
1779267283.458772,2189,2041,6_S
1779267283.463396,1837,2221,6_S
1779267283.463774,1854,1553,6_S
1779267283.470701,2135,2184,6_S
1779267283.4713979,2022,2160,6_S
1779267283.471903,2043,2597,6_S
1779267283.472159,2083,2958,6_S
1779267283.475669,1895,1983,6_S
1779267283.476083,1963,1860,6_S
1779267283.476168,1951,2102,6_S
1779267283.478902,2059,1925,6_S
1779267283.485009,1971,1889,6_S
1779267283.485249,1895,2278,6_S
1779267283.485954,1862,2533,6_S
1779267283.486219,1930,3202,6_S
1779267283.489608,2152,2286,6_S
1779267283.490036,1919,1814,6_S
1779267283.492404,1889,2011,6_S
