timestamp,ch1,ch2,label
1779267415.4915478,2063,1753,8_S
1779267415.491849,1991,2399,8_S
1779267415.492071,2026,1906,8_S
1779267415.4961789,2066,3332,8_S
1779267415.499458,2057,2466,8_S
1779267415.502041,2078,1692,8_S
1779267415.502624,2114,2189,8_S
1779267415.507042,2085,2322,8_S
1779267415.5086532,2085,1300,8_S
1779267415.5092669,2030,2358,8_S
1779267415.5097952,2028,2112,8_S
1779267415.51022,2073,2968,8_S
1779267415.513741,2077,2937,8_S
1779267415.5139022,2040,1790,8_S
1779267415.517666,1967,1919,8_S
1779267415.5183418,2016,2466,8_S
1779267415.519752,2067,1477,8_S
1779267415.525814,2037,2144,8_S
1779267415.529939,2051,2302,8_S
1779267415.532228,2057,2372,8_S
1779267415.534747,2071,3306,8_S
1779267415.536142,2049,2038,8_S
1779267415.5364559,2051,1759,8_S
1779267415.5368,2035,2625,8_S
1779267415.537259,2042,2012,8_S
1779267415.5378509,2048,1781,8_S
1779267415.541408,2031,2400,8_S
1779267415.541534,2014,1855,8_S
1779267415.544173,2046,3247,8_S
1779267415.545557,2099,2449,8_S
1779267415.5540311,2064,1684,8_S
1779267415.5573812,1995,2191,8_S
1779267415.5597289,1999,2127,8_S
1779267415.560596,2069,1336,8_S
1779267415.560856,2055,2366,8_S
1779267415.562679,2071,2092,8_S
1779267415.564134,2051,2887,8_S
1779267415.5646322,2081,2912,8_S
1779267415.565363,2050,1779,8_S
1779267415.5657868,2031,1922,8_S
1779267415.568802,2026,2385,8_S
1779267415.570147,2020,1400,8_S
1779267415.576585,2087,2167,8_S
1779267415.5769348,2071,2292,8_S
1779267415.5782452,2029,2296,8_S
1779267415.578395,2038,3135,8_S
1779267415.5807989,2014,2029,8_S
1779267415.583605,2100,1756,8_S
1779267415.586719,2090,2353,8_S
1779267415.58745,2020,1815,8_S
1779267415.588075,2066,1810,8_S
1779267415.591211,2018,2377,8_S
1779267415.592631,2009,1736,8_S
1779267415.5941482,2073,3161,8_S
1779267415.5954938,2076,2420,8_S
1779267415.601986,2025,1685,8_S
1779267415.603364,2036,2207,8_S
1779267415.6041238,2038,2070,8_S
1779267415.6069498,1990,1369,8_S
1779267415.609985,1995,2369,8_S
1779267415.612166,2077,2069,8_S
1779267415.614387,2101,3133,8_S
1779267415.614759,2104,2853,8_S
1779267415.615048,2048,1770,8_S
1779267415.61813,2000,1958,8_S
1779267415.61822,2040,2221,8_S
1779267415.619571,2032,1201,8_S
1779267415.625758,1922,2212,8_S
1779267415.629233,2092,2251,8_S
1779267415.629762,2160,2141,8_S
1779267415.6325052,2126,3082,8_S
1779267415.634188,2002,1977,8_S
1779267415.6343622,2039,1765,8_S
1779267415.63669,2074,2351,8_S
1779267415.637194,1976,1726,8_S
1779267415.640234,2044,1875,8_S
1779267415.6405241,2098,2377,8_S
1779267415.6418822,2086,1658,8_S
1779267415.644634,2051,3142,8_S
1779267415.645986,2025,2356,8_S
1779267415.653429,2026,1673,8_S
1779267415.6558878,2050,2239,8_S
1779267415.658675,2085,2118,8_S
1779267415.660643,2018,1420,8_S
1779267415.6608388,2015,2389,8_S
1779267415.6627672,2054,2052,8_S
1779267415.663313,2012,2954,8_S
1779267415.663888,1999,2829,8_S
1779267415.6643572,2069,1752,8_S
1779267415.667673,2056,1955,8_S
1779267415.667767,2081,2326,8_S
1779267415.6792982,2092,1275,8_S
1779267415.681109,2047,2221,8_S
1779267415.6856,2036,2269,8_S
1779267415.68588,2042,2276,8_S
1779267415.686572,2037,3110,8_S
1779267415.687145,2023,1971,8_S
1779267415.690068,2037,1764,8_S
1779267415.690551,2084,2414,8_S
1779267415.690634,2050,1598,8_S
1779267415.690702,2043,1896,8_S
1779267415.6907651,2053,2384,8_S
1779267415.6921148,2020,1724,8_S
1779267415.6934621,1965,3151,8_S
1779267415.696152,2084,2340,8_S
1779267415.702663,2120,1670,8_S
1779267415.703522,1996,2258,8_S
1779267415.7076411,1858,2035,8_S
1779267415.709147,1858,1449,8_S
1779267415.71078,2062,2394,8_S
1779267415.711134,2433,2034,8_S
1779267415.713204,1916,2883,8_S
1779267415.7136798,1955,2808,8_S
1779267415.713931,2506,1742,8_S
1779267415.7174442,2176,1960,8_S
1779267415.7176142,1806,2198,8_S
1779267415.725698,2136,1004,8_S
1779267415.7265432,1839,2262,8_S
1779267415.729131,1589,2254,8_S
1779267415.731305,1980,2228,8_S
1779267415.732092,2588,3119,8_S
1779267415.733904,2420,1926,8_S
1779267415.7342348,1647,1764,8_S
1779267415.7345762,1897,2031,8_S
1779267415.736727,2338,1782,8_S
1779267415.7394,1484,1928,8_S
1779267415.740278,2218,2353,8_S
1779267415.741676,2326,1746,8_S
1779267415.7445939,1886,2945,8_S
1779267415.7460108,2350,2322,8_S
1779267415.751498,1573,1690,8_S
1779267415.751669,1515,2301,8_S
1779267415.7528782,2560,2020,8_S
1779267415.755268,2936,1478,8_S
1779267415.75855,2094,2387,8_S
1779267415.760515,1710,2000,8_S
1779267415.763433,1723,3009,8_S
1779267415.766481,2472,2766,8_S
1779267415.766598,2414,1739,8_S
1779267415.7666738,1438,1995,8_S
1779267415.768018,1169,2376,8_S
1779267415.774297,2901,1127,8_S
1779267415.7787058,3541,2260,8_S
1779267415.7793632,2041,2246,8_S
1779267415.7815459,1483,2444,8_S
1779267415.7857962,2136,3184,8_S
1779267415.786328,2222,1914,8_S
1779267415.786512,2597,1793,8_S
1779267415.7869172,2284,2616,8_S
1779267415.787342,1536,1526,8_S
1779267415.790524,3578,1968,8_S
1779267415.79102,1817,2391,8_S
1779267415.7923908,893,1943,8_S
1779267415.793782,1899,3332,8_S
1779267415.796494,4024,2245,8_S
1779267415.802787,2688,1678,8_S
1779267415.8036108,2138,2353,8_S
1779267415.804411,2215,2468,8_S
1779267415.807103,1812,1495,8_S
1779267415.8095539,2158,2407,8_S
1779267415.811944,2699,2013,8_S
1779267415.814671,3167,2921,8_S
1779267415.81536,2135,2772,8_S
1779267415.815795,213,1727,8_S
1779267415.816302,4032,1979,8_S
1779267415.819176,2982,3139,8_S
1779267415.820544,951,1533,8_S
1779267415.822015,2245,2216,8_S
1779267415.827106,2834,2331,8_S
1779267415.8283641,2391,3766,8_S
1779267415.830893,1774,3284,8_S
1779267415.8313951,3284,1965,8_S
1779267415.833493,2067,1859,8_S
1779267415.835781,2134,2850,8_S
1779267415.83604,1809,3038,8_S
1779267415.838896,2649,1882,8_S
1779267415.841701,3192,2612,8_S
1779267415.842525,3051,3750,8_S
1779267415.8438752,1825,3880,8_S
1779267415.846497,835,2385,8_S
1779267415.847683,2040,1930,8_S
1779267415.854378,3608,2592,8_S
1779267415.8552341,2552,3874,8_S
1779267415.8558211,1880,3686,8_S
1779267415.8576808,1703,3160,8_S
1779267415.857991,2642,4095,8_S
1779267415.860754,2984,4095,8_S
1779267415.8656662,2183,3146,8_S
1779267415.8660722,2117,2476,8_S
1779267415.866248,1693,2684,8_S
1779267415.8689878,2726,3542,8_S
1779267415.870692,3773,4095,8_S
1779267415.876832,2244,3577,8_S
1779267415.8785589,1499,4095,8_S
1779267415.880845,2461,4095,8_S
1779267415.881448,2055,3729,8_S
1779267415.884007,2705,3037,8_S
1779267415.8859441,3075,2953,8_S
1779267415.8889868,2249,3428,8_S
1779267415.8895922,1579,4095,8_S
1779267415.8898098,2031,4095,8_S
1779267415.89025,2859,4095,8_S
1779267415.893572,2887,4095,8_S
1779267415.893745,2293,4095,8_S
1779267415.89639,2485,3695,8_S
1779267415.897742,2245,3488,8_S
1779267415.9006348,2417,3601,8_S
1779267415.906492,2237,3926,8_S
1779267415.90781,2238,4095,8_S
1779267415.91012,2099,4095,8_S
1779267415.910461,2212,4095,8_S
1779267415.9151602,2618,4095,8_S
1779267415.9158452,3287,3992,8_S
1779267415.919551,2038,3810,8_S
1779267415.920285,2245,3790,8_S
1779267415.920574,2344,3908,8_S
1779267415.921021,2131,4094,8_S
1779267415.9238698,2007,4095,8_S
1779267415.924939,2937,4095,8_S
1779267415.926174,1951,4095,8_S
1779267415.927776,1782,4095,8_S
1779267415.9339368,1427,3984,8_S
1779267415.935423,1906,3928,8_S
1779267415.938495,2034,3953,8_S
1779267415.941257,3890,4037,8_S
1779267415.9439092,1971,4017,8_S
1779267415.9441202,1675,4095,8_S
1779267415.9444969,789,4095,8_S
1779267415.948468,2798,4095,8_S
1779267415.948929,2622,4040,8_S
1779267415.949297,2032,3993,8_S
1779267415.949595,2014,3997,8_S
1779267415.953492,2316,4037,8_S
1779267415.953729,2069,4001,8_S
1779267415.9562628,2205,3878,8_S
1779267415.957685,2644,4095,8_S
1779267415.965415,2062,4095,8_S
1779267415.968492,1388,4040,8_S
1779267415.978934,1987,3997,8_S
1779267415.982956,3938,3999,8_S
1779267415.98343,1680,4037,8_S
1779267415.983558,1147,3867,8_S
1779267415.9836318,2035,3598,8_S
1779267415.983701,1506,3637,8_S
1779267415.9837701,2438,3888,8_S
1779267415.9838378,2947,3688,8_S
1779267415.9838989,2469,3719,8_S
1779267415.9839628,2204,3490,8_S
1779267415.984024,1601,3523,8_S
1779267415.985357,1803,2905,8_S
1779267415.9924521,1477,2834,8_S
1779267415.993793,1539,2536,8_S
1779267415.996655,3741,2580,8_S
1779267415.996904,2448,2780,8_S
1779267415.997429,1181,2930,8_S
1779267415.999821,988,2664,8_S
1779267416.0031009,1358,2430,8_S
1779267416.007724,3865,2422,8_S
1779267416.00814,2469,2276,8_S
1779267416.0084019,1641,2239,8_S
1779267416.0119328,1971,2010,8_S
1779267416.012058,2048,2016,8_S
1779267416.012139,1905,2045,8_S
1779267416.013506,1600,1907,8_S
1779267416.016331,3039,2127,8_S
1779267416.017754,1692,1915,8_S
1779267416.0275671,1918,2052,8_S
1779267416.0290308,2414,1932,8_S
1779267416.031905,1975,1912,8_S
1779267416.032166,1890,1959,8_S
1779267416.035532,2037,2042,8_S
1779267416.037588,2240,2067,8_S
1779267416.042115,1942,1903,8_S
1779267416.042368,1855,1679,8_S
1779267416.042717,2273,1772,8_S
1779267416.042994,1786,1726,8_S
1779267416.0433521,1990,1725,8_S
1779267416.043642,2892,1760,8_S
1779267416.043863,1765,1687,8_S
1779267416.047513,2359,1673,8_S
1779267416.0478232,407,1736,8_S
1779267416.050474,2498,1659,8_S
1779267416.057475,3232,1865,8_S
1779267416.0588229,1644,1848,8_S
1779267416.061728,1588,1877,8_S
1779267416.06217,1787,1940,8_S
1779267416.065187,1980,1939,8_S
1779267416.0674272,2405,1710,8_S
1779267416.072553,2097,1667,8_S
1779267416.076478,1933,1521,8_S
1779267416.076839,2109,1526,8_S
1779267416.07693,1612,1568,8_S
1779267416.0770009,2494,1635,8_S
1779267416.077066,1860,1668,8_S
1779267416.077129,2020,1741,8_S
1779267416.078783,1918,1629,8_S
1779267416.079964,2238,1547,8_S
1779267416.081568,2219,1530,8_S
1779267416.0901802,1821,1428,8_S
1779267416.091768,2504,1319,8_S
1779267416.094809,1664,1409,8_S
1779267416.0954728,2392,1466,8_S
1779267416.100363,1960,1380,8_S
1779267416.105352,2182,1658,8_S
1779267416.105783,2165,1631,8_S
1779267416.10656,2261,1557,8_S
1779267416.110067,1517,1561,8_S
1779267416.1104581,1527,1482,8_S
1779267416.11066,3212,1336,8_S
1779267416.110789,2624,1423,8_S
1779267416.1108632,1421,1536,8_S
1779267416.1109529,1800,1590,8_S
1779267416.112297,1919,1633,8_S
1779267416.1194859,2765,1714,8_S
1779267416.1202629,1874,1531,8_S
1779267416.123887,1688,1658,8_S
1779267416.1243541,3241,1704,8_S
1779267416.129193,1149,1822,8_S
1779267416.1394901,1448,1613,8_S
1779267416.139596,1958,1750,8_S
1779267416.139673,1931,1782,8_S
1779267416.139746,2860,1536,8_S
1779267416.13981,2335,1467,8_S
1779267416.139924,2488,1694,8_S
1779267416.1400251,1578,1777,8_S
1779267416.140162,1711,1495,8_S
1779267416.1402822,2004,1676,8_S
1779267416.141697,1977,1811,8_S
1779267416.1443799,1925,2015,8_S
1779267416.145804,2155,1947,8_S
1779267416.153331,1841,1907,8_S
1779267416.156755,1970,1956,8_S
1779267416.158713,2058,1983,8_S
1779267416.1618571,1740,1813,8_S
1779267416.162234,1539,1660,8_S
1779267416.166807,2826,1747,8_S
1779267416.167135,2384,1997,8_S
1779267416.167491,1559,1885,8_S
1779267416.1679559,2154,1736,8_S
1779267416.168363,1895,1824,8_S
1779267416.172228,2113,1688,8_S
1779267416.1724212,2136,1562,8_S
1779267416.172588,1549,1774,8_S
1779267416.1740081,2124,1712,8_S
1779267416.181393,2330,1889,8_S
1779267416.1816478,1695,1936,8_S
1779267416.18306,1986,1608,8_S
1779267416.185291,2046,1789,8_S
1779267416.187297,1384,1713,8_S
1779267416.188802,1658,1695,8_S
1779267416.1907241,3279,1666,8_S
1779267416.195626,1693,1651,8_S
1779267416.196061,855,1706,8_S
1779267416.196434,3011,2014,8_S
1779267416.196676,2091,1549,8_S
1779267416.2002509,1857,1595,8_S
1779267416.2004638,1727,1711,8_S
1779267416.201875,2019,1675,8_S
1779267416.204627,2459,1842,8_S
1779267416.206094,1397,1853,8_S
1779267416.20748,1135,1704,8_S
1779267416.212982,2922,1922,8_S
1779267416.2141619,1581,2171,8_S
1779267416.215261,2295,1851,8_S
1779267416.217143,2147,1902,8_S
1779267416.2197409,1570,2006,8_S
1779267416.2214808,2221,1781,8_S
1779267416.221706,2489,1847,8_S
1779267416.225996,1664,1936,8_S
1779267416.2261682,1310,2024,8_S
1779267416.229423,2539,2066,8_S
1779267416.2297,2157,1817,8_S
1779267416.232594,2861,1984,8_S
1779267416.23729,931,2008,8_S
1779267416.238535,1724,1881,8_S
1779267416.2409332,2191,1795,8_S
1779267416.24119,2363,1904,8_S
1779267416.243189,2435,2158,8_S
1779267416.2453601,1958,2115,8_S
1779267416.249704,1705,1961,8_S
1779267416.2499871,1842,1743,8_S
1779267416.250386,2191,1863,8_S
1779267416.253474,1443,1800,8_S
1779267416.253537,2769,1711,8_S
1779267416.256362,2220,1720,8_S
1779267416.2577229,1835,1902,8_S
1779267416.2640269,1431,2034,8_S
1779267416.264726,2578,1896,8_S
1779267416.265337,2216,1921,8_S
1779267416.265929,2072,1887,8_S
1779267416.2684648,1764,1750,8_S
1779267416.270334,2149,1839,8_S
1779267416.2766469,2027,1869,8_S
1779267416.277059,1740,1726,8_S
1779267416.27734,1826,1861,8_S
1779267416.2776802,2257,1994,8_S
1779267416.2805781,1438,1827,8_S
1779267416.281922,2030,1812,8_S
1779267416.287858,1968,1987,8_S
1779267416.2919,3057,1768,8_S
1779267416.292105,1806,1781,8_S
1779267416.2924428,1399,1840,8_S
1779267416.294446,1855,1990,8_S
1779267416.2950752,1722,2192,8_S
1779267416.296779,2269,1956,8_S
1779267416.3013601,2696,1924,8_S
1779267416.3015308,1688,1680,8_S
1779267416.3016782,1706,1853,8_S
1779267416.304965,1888,1840,8_S
1779267416.3065972,2152,1713,8_S
1779267416.307968,1500,1995,8_S
1779267416.309361,2633,1964,8_S
1779267416.316064,3004,1994,8_S
1779267416.316808,1240,2088,8_S
1779267416.317937,1402,1821,8_S
1779267416.318571,3233,1795,8_S
1779267416.320404,946,1958,8_S
1779267416.3223839,2184,1840,8_S
1779267416.324665,2246,1974,8_S
1779267416.3293629,1792,2058,8_S
1779267416.329846,1679,1947,8_S
1779267416.330221,2274,1900,8_S
1779267416.333144,1869,1865,8_S
1779267416.334661,2198,1875,8_S
1779267416.3416908,1896,1849,8_S
1779267416.342357,1913,1845,8_S
1779267416.344189,1807,1819,8_S
1779267416.344426,3411,2025,8_S
1779267416.3445718,1798,2112,8_S
1779267416.346431,1525,2053,8_S
1779267416.348577,2084,1969,8_S
1779267416.353508,2138,1898,8_S
1779267416.353867,1868,2000,8_S
1779267416.354143,1560,2089,8_S
1779267416.3573608,2400,1959,8_S
1779267416.3575082,2243,2218,8_S
1779267416.360111,1668,2160,8_S
1779267416.361959,2034,1943,8_S
1779267416.36758,2186,1898,8_S
1779267416.3722749,1741,1948,8_S
1779267416.372873,1990,1989,8_S
1779267416.3759859,1988,1994,8_S
1779267416.3826182,2208,1984,8_S
1779267416.382951,2087,2080,8_S
1779267416.383368,1938,2157,8_S
1779267416.384002,1906,2116,8_S
1779267416.384237,2218,2023,8_S
1779267416.384492,1857,1866,8_S
1779267416.384694,1918,2004,8_S
1779267416.388078,2179,2019,8_S
1779267416.388216,2142,2015,8_S
1779267416.389565,1938,2022,8_S
1779267416.3958569,1791,2170,8_S
1779267416.397193,2167,2130,8_S
1779267416.39986,2056,2139,8_S
1779267416.402595,1825,2005,8_S
1779267416.402911,1910,1971,8_S
1779267416.409822,2076,2083,8_S
1779267416.410203,2096,2101,8_S
1779267416.4107351,1899,2018,8_S
1779267416.411102,1824,2132,8_S
1779267416.414523,2013,2359,8_S
1779267416.4146821,1955,2154,8_S
1779267416.414827,1936,2082,8_S
1779267416.416299,2064,2059,8_S
1779267416.4177501,2037,2186,8_S
1779267416.420514,1883,2099,8_S
1779267416.426177,2022,2048,8_S
1779267416.427022,2280,2176,8_S
1779267416.430076,1853,2275,8_S
1779267416.432555,1834,2251,8_S
1779267416.4334452,2224,2221,8_S
1779267416.435026,1372,2183,8_S
1779267416.435324,2215,2204,8_S
1779267416.435607,2747,2001,8_S
1779267416.4409668,1416,2066,8_S
1779267416.441508,1820,2070,8_S
1779267416.442257,2043,2288,8_S
1779267416.445566,1992,2279,8_S
1779267416.4457679,1944,2096,8_S
1779267416.452974,1645,2017,8_S
1779267416.4572742,2213,1992,8_S
1779267416.457928,2442,2138,8_S
1779267416.460002,1812,2094,8_S
1779267416.462214,1690,2118,8_S
1779267416.4625752,2031,2133,8_S
1779267416.4629009,1918,2170,8_S
1779267416.4681668,2299,2159,8_S
1779267416.468705,1893,2047,8_S
1779267416.469089,1644,2195,8_S
1779267416.4694989,1981,2245,8_S
1779267416.472779,2273,2121,8_S
1779267416.473344,1818,2102,8_S
1779267416.473768,1802,2298,8_S
1779267416.47629,2012,2475,8_S
1779267416.4777029,1862,2375,8_S
1779267416.484022,1671,2245,8_S
1779267416.4854422,3005,2144,8_S
1779267416.488395,2112,2302,8_S
1779267416.48878,1492,2184,8_S
1779267416.4919522,2108,2275,8_S
1779267416.493671,1790,2114,8_S
1779267416.499073,1984,2328,8_S
1779267416.499413,2097,2375,8_S
1779267416.499739,2174,2320,8_S
1779267416.500254,1736,2295,8_S
1779267416.500648,1716,2326,8_S
1779267416.5030909,1827,2481,8_S
1779267416.505188,1963,2377,8_S
1779267416.505327,2134,2343,8_S
1779267416.5125408,2102,2447,8_S
1779267416.512707,1864,2583,8_S
1779267416.515431,2202,2389,8_S
1779267416.5159419,2095,2366,8_S
1779267416.52016,1996,2179,8_S
1779267416.525902,1753,2255,8_S
1779267416.526494,2034,2138,8_S
1779267416.5269,2447,2101,8_S
1779267416.530165,2051,2311,8_S
1779267416.5304918,1765,2639,8_S
1779267416.53059,1805,2483,8_S
1779267416.530699,1974,2261,8_S
1779267416.532115,2055,2212,8_S
1779267416.533561,1834,2289,8_S
1779267416.536279,2020,2251,8_S
1779267416.543684,1887,1992,8_S
1779267416.54572,1928,1912,8_S
1779267416.549403,1952,2178,8_S
1779267416.551251,2401,2366,8_S
1779267416.551689,2324,2152,8_S
1779267416.5570471,2255,2031,8_S
1779267416.5574431,1837,1948,8_S
1779267416.5579672,1735,2221,8_S
1779267416.558382,1767,2043,8_S
1779267416.5587652,2039,1996,8_S
1779267416.5591948,2337,2236,8_S
1779267416.5595012,1961,2372,8_S
1779267416.5626502,2077,2237,8_S
1779267416.564001,2008,2089,8_S
1779267416.5657358,1922,2053,8_S
1779267416.571546,2064,2119,8_S
1779267416.574945,2108,2067,8_S
1779267416.577245,1980,1961,8_S
1779267416.5780969,2054,2037,8_S
1779267416.579898,1764,2262,8_S
1779267416.5855732,1887,2191,8_S
1779267416.58639,1954,2077,8_S
1779267416.586925,1914,2059,8_S
1779267416.587397,2244,2115,8_S
1779267416.590739,2265,2045,8_S
1779267416.590821,2001,1902,8_S
1779267416.5908961,1935,1945,8_S
1779267416.5922828,2003,2240,8_S
1779267416.593674,2025,2311,8_S
1779267416.596383,2043,2193,8_S
1779267416.602717,2140,2086,8_S
1779267416.6040509,1933,2195,8_S
1779267416.607051,1927,2354,8_S
1779267416.611475,1932,2215,8_S
1779267416.611805,1920,2104,8_S
1779267416.6171021,2277,2224,8_S
1779267416.617582,2357,2433,8_S
1779267416.618031,2007,2313,8_S
1779267416.61831,1953,2172,8_S
1779267416.6188412,1918,2053,8_S
1779267416.622147,2129,2069,8_S
1779267416.622251,2151,1929,8_S
1779267416.622376,1990,2017,8_S
1779267416.623725,1947,2233,8_S
1779267416.6300318,1943,2351,8_S
1779267416.630753,2025,2217,8_S
1779267416.631912,2062,2137,8_S
1779267416.633973,2165,2176,8_S
1779267416.634381,2091,2315,8_S
1779267416.638716,2011,2103,8_S
1779267416.6442418,2004,1841,8_S
1779267416.644643,1783,2093,8_S
1779267416.6449249,1861,2342,8_S
1779267416.645324,2032,2297,8_S
1779267416.6457658,2272,2040,8_S
1779267416.648352,2366,1950,8_S
1779267416.649823,2073,1932,8_S
1779267416.652508,2101,1771,8_S
1779267416.65393,1977,1860,8_S
1779267416.660706,1785,1984,8_S
1779267416.662001,2277,1912,8_S
1779267416.6644108,2232,2116,8_S
1779267416.664635,1349,2200,8_S
1779267416.667176,1902,2041,8_S
1779267416.669558,2528,1778,8_S
1779267416.674996,2231,1746,8_S
1779267416.675336,2096,1405,8_S
1779267416.675738,2014,1466,8_S
1779267416.676382,2214,1744,8_S
1779267416.676773,2313,1898,8_S
1779267416.680584,2145,1796,8_S
1779267416.680755,1630,1737,8_S
1779267416.682139,1942,1871,8_S
1779267416.6867661,2300,1706,8_S
1779267416.687624,2165,1501,8_S
1779267416.689491,2124,1199,8_S
1779267416.693624,2074,1339,8_S
1779267416.695874,1995,1948,8_S
1779267416.7012951,2095,2028,8_S
1779267416.701748,2173,1733,8_S
1779267416.702198,1773,1344,8_S
1779267416.702564,1648,1335,8_S
1779267416.7027168,2349,1293,8_S
1779267416.706218,2335,1155,8_S
1779267416.7063382,2015,1314,8_S
1779267416.707722,2321,1824,8_S
1779267416.710353,2096,1827,8_S
1779267416.711811,2044,1674,8_S
1779267416.7172108,1757,1686,8_S
1779267416.718444,1869,1453,8_S
1779267416.719579,2091,1783,8_S
1779267416.7217972,1831,1377,8_S
1779267416.722208,1830,1466,8_S
1779267416.724313,2045,1558,8_S
1779267416.726603,2281,1726,8_S
1779267416.731947,2315,1626,8_S
1779267416.732372,2264,1592,8_S
1779267416.7326741,2257,1456,8_S
1779267416.735819,2287,1440,8_S
1779267416.735921,1871,1616,8_S
1779267416.737356,1895,1232,8_S
1779267416.744593,1888,1650,8_S
1779267416.7477078,2083,1915,8_S
1779267416.748231,2109,1677,8_S
1779267416.75027,2157,1470,8_S
1779267416.7511418,2096,1524,8_S
1779267416.7529101,2118,1655,8_S
1779267416.758362,2110,1811,8_S
1779267416.7587872,2013,1367,8_S
1779267416.7592041,2079,1299,8_S
1779267416.759611,2153,1870,8_S
1779267416.760034,2020,2073,8_S
1779267416.763238,2004,1704,8_S
1779267416.76333,2091,1630,8_S
1779267416.766376,2134,1573,8_S
1779267416.767724,2065,1522,8_S
1779267416.774959,2056,1157,8_S
1779267416.776403,1806,1281,8_S
1779267416.779278,1752,1511,8_S
1779267416.78791,2224,1875,8_S
1779267416.788974,2474,1515,8_S
1779267416.789535,2267,1129,8_S
1779267416.7898822,1973,1029,8_S
1779267416.793036,2032,1105,8_S
1779267416.793217,2116,811,8_S
1779267416.7933109,2153,1205,8_S
1779267416.79338,2168,1124,8_S
1779267416.793445,2053,1410,8_S
1779267416.793508,1997,1430,8_S
1779267416.8018072,1992,1264,8_S
1779267416.8025331,1730,1148,8_S
1779267416.804576,1941,1239,8_S
1779267416.8049579,2148,1136,8_S
1779267416.806997,1859,1082,8_S
1779267416.8094652,1976,1263,8_S
1779267416.809963,1916,1332,8_S
1779267416.814807,1895,1710,8_S
1779267416.8151329,1943,1562,8_S
1779267416.815425,1922,1381,8_S
1779267416.8156888,2038,1155,8_S
1779267416.819176,2004,1199,8_S
1779267416.819275,2071,955,8_S
1779267416.8219619,2329,1362,8_S
1779267416.823467,2187,1098,8_S
1779267416.8309498,2067,1682,8_S
1779267416.8328571,1931,1570,8_S
1779267416.835339,2293,1311,8_S
1779267416.8377259,2319,1292,8_S
1779267416.840147,2160,1424,8_S
1779267416.8451881,2076,884,8_S
1779267416.845545,1978,1372,8_S
1779267416.846006,2144,1292,8_S
1779267416.848709,2131,1782,8_S
1779267416.849653,2038,2084,8_S
1779267416.849797,2146,1692,8_S
1779267416.849993,2040,1456,8_S
1779267416.8500779,2143,1521,8_S
1779267416.851425,1888,1428,8_S
1779267416.858428,2014,1322,8_S
1779267416.858647,2283,1500,8_S
1779267416.8594089,2245,1502,8_S
1779267416.86015,2107,2004,8_S
1779267416.863189,1929,1759,8_S
1779267416.863565,1995,1493,8_S
1779267416.866478,2007,1463,8_S
1779267416.868347,1960,1472,8_S
1779267416.874231,1823,1136,8_S
1779267416.8744378,1762,1612,8_S
1779267416.874908,2231,1233,8_S
1779267416.878614,2241,1797,8_S
1779267416.879134,1433,1600,8_S
1779267416.8792162,1689,1296,8_S
1779267416.8818948,2691,1242,8_S
1779267416.883256,2448,1271,8_S
1779267416.8859038,2003,810,8_S
1779267416.891893,2020,1559,8_S
1779267416.8929548,2040,1438,8_S
1779267416.8932228,2208,1579,8_S
1779267416.89396,2166,1869,8_S
1779267416.897721,2129,1679,8_S
1779267416.900853,2077,1367,8_S
1779267416.9027572,2056,1432,8_S
1779267416.90309,2076,1068,8_S
1779267416.908587,1916,1443,8_S
1779267416.9090261,2027,1617,8_S
1779267416.909311,2026,1340,8_S
1779267416.909838,2110,2018,8_S
1779267416.912731,2037,1739,8_S
1779267416.9141178,2079,1414,8_S
1779267416.915505,1853,1251,8_S
1779267416.92985,1803,1270,8_S
1779267416.931993,2205,1214,8_S
1779267416.940712,2215,1687,8_S
1779267416.943062,2043,1269,8_S
1779267416.943224,1997,1830,8_S
1779267416.943294,2044,1758,8_S
1779267416.9433558,2094,1469,8_S
1779267416.943417,2038,1219,8_S
1779267416.943478,2003,1211,8_S
1779267416.943535,1862,906,8_S
1779267416.9435961,1867,1656,8_S
1779267416.943655,2111,1490,8_S
1779267416.9437141,2028,1274,8_S
1779267416.943773,1939,1650,8_S
1779267416.945226,1950,1568,8_S
1779267416.947936,2256,1245,8_S
1779267416.9549298,2185,1064,8_S
1779267416.95649,1792,554,8_S
1779267416.956846,1862,1517,8_S
1779267416.9605062,2117,1628,8_S
1779267416.965676,2127,1107,8_S
1779267416.966151,2198,1824,8_S
1779267416.9716322,2063,1670,8_S
1779267416.975672,2040,1470,8_S
1779267416.975755,2079,1264,8_S
1779267416.9758132,2124,970,8_S
1779267416.975871,2031,1285,8_S
1779267416.975928,1969,1728,8_S
1779267416.976097,1972,1265,8_S
1779267416.9762812,2019,1833,8_S
1779267416.977761,2009,1905,8_S
1779267416.9855292,1967,1718,8_S
1779267416.989511,1950,1459,8_S
1779267416.998027,2025,1372,8_S
1779267416.998508,2077,984,8_S
1779267416.998791,2026,1771,8_S
1779267416.999281,2007,1579,8_S
1779267416.999539,1996,1688,8_S
1779267416.999867,1996,2036,8_S
1779267417.000115,2004,1853,8_S
1779267417.000441,1876,1612,8_S
1779267417.003746,1687,1543,8_S
1779267417.004128,2190,910,8_S
1779267417.0041978,2134,1688,8_S
1779267417.005522,2023,1811,8_S
1779267417.0082529,2225,1432,8_S
1779267417.009949,2074,2184,8_S
1779267417.01636,1957,1954,8_S
1779267417.0165818,2046,1653,8_S
1779267417.017474,2060,1616,8_S
1779267417.018968,2019,1471,8_S
1779267417.020294,1935,1426,8_S
1779267417.027905,1868,1944,8_S
1779267417.028223,1871,1439,8_S
1779267417.029166,2007,2273,8_S
1779267417.034061,2018,2161,8_S
1779267417.034296,2037,1877,8_S
1779267417.0349782,1970,1680,8_S
1779267417.0353322,1982,1685,8_S
1779267417.03878,2226,1095,8_S
1779267417.038938,2082,1988,8_S
1779267417.04048,1883,1782,8_S
1779267417.053447,1995,2127,8_S
1779267417.0537841,2077,2378,8_S
1779267417.056103,2038,1993,8_S
1779267417.061478,2024,1723,8_S
1779267417.062175,2005,1775,8_S
1779267417.0658329,2077,1343,8_S
1779267417.066134,1974,1854,8_S
1779267417.0662122,1958,2005,8_S
1779267417.066282,2025,1809,8_S
1779267417.0663512,1932,2528,8_S
1779267417.066449,1903,2138,8_S
1779267417.0665119,2325,1854,8_S
1779267417.066574,2075,1750,8_S
1779267417.0680609,2030,1582,8_S
1779267417.069411,1941,1589,8_S
1779267417.072039,2004,2131,8_S
1779267417.0739148,2006,1556,8_S
1779267417.0795882,1946,2620,8_S
1779267417.080974,1952,2363,8_S
1779267417.084602,1810,1876,8_S
1779267417.08523,1969,1731,8_S
1779267417.090133,2050,1757,8_S
1779267417.095736,1880,1238,8_S
1779267417.0962229,1840,2156,8_S
1779267417.096535,1924,1890,8_S
1779267417.096926,2019,2267,8_S
1779267417.097236,2051,2427,8_S
1779267417.097528,1943,1968,8_S
1779267417.097774,2000,1779,8_S
1779267417.101063,1943,1873,8_S
1779267417.1013272,2045,1454,8_S
1779267417.104054,2131,1980,8_S
1779267417.111157,1972,2115,8_S
1779267417.114683,2052,1970,8_S
1779267417.115338,1892,2601,8_S
1779267417.1156402,2100,2197,8_S
1779267417.120606,2038,1831,8_S
1779267417.1209118,2004,1728,8_S
1779267417.12649,1920,1604,8_S
1779267417.1294599,1918,1686,8_S
1779267417.130483,2127,2215,8_S
1779267417.130566,2155,1588,8_S
1779267417.1306372,2147,2562,8_S
1779267417.130704,2052,2294,8_S
1779267417.130769,2079,1820,8_S
1779267417.132114,1898,1776,8_S
1779267417.133533,1941,1881,8_S
1779267417.136225,1953,1263,8_S
1779267417.1376488,2026,2213,8_S
1779267417.1503649,2011,1945,8_S
1779267417.151175,2025,2427,8_S
1779267417.151412,2066,2517,8_S
1779267417.153419,2033,1924,8_S
1779267417.16204,2031,1877,8_S
1779267417.162605,2043,1928,8_S
1779267417.1627278,2053,1434,8_S
1779267417.162804,1995,2032,8_S
1779267417.162875,1899,2164,8_S
1779267417.162942,1910,2078,8_S
1779267417.1630158,2004,2647,8_S
1779267417.163141,2039,2170,8_S
1779267417.163209,2221,1829,8_S
1779267417.171923,2153,1882,8_S
1779267417.175806,1977,1891,8_S
1779267417.178317,2131,1689,8_S
1779267417.179341,2176,2259,8_S
1779267417.1859672,1874,1814,8_S
1779267417.186535,1087,2918,8_S
1779267417.186661,2414,2179,8_S
1779267417.187026,2906,1816,8_S
1779267417.1874208,1055,2117,8_S
1779267417.1878889,1961,1785,8_S
1779267417.191346,2340,1283,8_S
1779267417.191448,2361,2246,8_S
1779267417.191526,2676,1973,8_S
1779267417.191592,1441,2346,8_S
1779267417.194474,2416,2719,8_S
1779267417.195881,1676,1882,8_S
1779267417.1973429,993,1489,8_S
1779267417.207583,3024,2195,8_S
1779267417.2078469,2464,1619,8_S
1779267417.2120771,880,2010,8_S
1779267417.2126331,1856,2166,8_S
1779267417.212929,2587,2433,8_S
1779267417.215889,2467,2932,8_S
1779267417.216984,2259,2162,8_S
1779267417.2193,694,1866,8_S
1779267417.219744,2357,2334,8_S
1779267417.220174,3087,2079,8_S
1779267417.226596,2432,1689,8_S
1779267417.2272158,1674,2280,8_S
1779267417.2276218,1000,2283,8_S
1779267417.2281091,1485,3168,8_S
1779267417.231307,2220,2498,8_S
1779267417.2322571,2165,1813,8_S
1779267417.232513,2408,2324,8_S
1779267417.234122,3095,2356,8_S
1779267417.235865,2133,1811,8_S
1779267417.243409,1096,2225,8_S
1779267417.2469618,2118,2028,8_S
1779267417.2473211,2921,3094,8_S
1779267417.2476318,2211,2965,8_S
1779267417.2498162,1539,1888,8_S
1779267417.250635,1378,2018,8_S
1779267417.251738,1666,2434,8_S
1779267417.252036,2271,1867,8_S
1779267417.25442,2690,2045,8_S
1779267417.260701,1207,2218,8_S
1779267417.264738,1724,2982,8_S
1779267417.2648509,4095,3290,8_S
1779267417.264927,2073,2098,8_S
1779267417.265034,1715,1883,8_S
1779267417.266388,1616,2584,8_S
1779267417.267883,3126,2434,8_S
1779267417.269225,1574,2051,8_S
1779267417.271957,1502,2266,8_S
1779267417.284951,3271,2753,8_S
1779267417.296612,2112,3717,8_S
1779267417.300682,875,2464,8_S
1779267417.304527,3509,1871,8_S
1779267417.304632,3236,2437,8_S
1779267417.3047638,2099,3254,8_S
1779267417.304906,1996,2446,8_S
1779267417.305064,3064,2237,8_S
1779267417.305163,1786,3301,8_S
1779267417.305225,2192,4095,8_S
1779267417.305347,2538,2943,8_S
1779267417.305411,2396,2099,8_S
1779267417.305474,2085,2343,8_S
1779267417.305535,2251,3390,8_S
1779267417.305614,1977,3877,8_S
1779267417.305679,1586,3274,8_S
1779267417.305747,2556,3736,8_S
1779267417.307772,3053,4095,8_S
1779267417.313637,2762,3608,8_S
1779267417.313827,2764,2706,8_S
1779267417.316212,494,2601,8_S
1779267417.3186922,3352,3231,8_S
1779267417.320705,3454,4095,8_S
1779267417.321573,2055,3834,8_S
1779267417.321871,1763,3807,8_S
1779267417.330059,2041,4095,8_S
1779267417.3304949,2195,4095,8_S
1779267417.3307142,2327,3299,8_S
1779267417.330967,2094,2971,8_S
1779267417.335637,1426,3234,8_S
1779267417.3357298,2547,3863,8_S
1779267417.335804,3269,3216,8_S
1779267417.337526,2264,3201,8_S
1779267417.340235,1053,3828,8_S
1779267417.3421938,2810,4095,8_S
1779267417.343622,2817,3550,8_S
1779267417.351653,3002,3118,8_S
1779267417.353427,2315,3215,8_S
1779267417.354256,1118,3714,8_S
1779267417.357038,987,3594,8_S
1779267417.357256,2196,3090,8_S
1779267417.357579,3472,3408,8_S
1779267417.358012,2300,4053,8_S
1779267417.360677,1600,3802,8_S
1779267417.364118,1769,3250,8_S
1779267417.370576,2040,3157,8_S
1779267417.3715231,2807,3487,8_S
1779267417.3717482,1998,3727,8_S
1779267417.372164,2421,3146,8_S
1779267417.372586,2159,3317,8_S
1779267417.3770618,2238,3305,8_S
1779267417.377538,2435,4095,8_S
1779267417.3776178,1497,3358,8_S
1779267417.380247,2159,3140,8_S
1779267417.388326,313,3354,8_S
1779267417.390104,2789,3400,8_S
1779267417.390992,3754,3029,8_S
1779267417.3937669,1549,3136,8_S
1779267417.394103,1069,3139,8_S
1779267417.397931,2189,3766,8_S
1779267417.400457,1907,3561,8_S
1779267417.407826,2195,3113,8_S
1779267417.408266,1714,3069,8_S
1779267417.412555,2414,3362,8_S
1779267417.412828,2402,3209,8_S
1779267417.41302,1641,3074,8_S
1779267417.4131331,2157,3660,8_S
1779267417.413205,2119,3617,8_S
1779267417.413269,2744,2860,8_S
1779267417.413335,1745,3308,8_S
1779267417.41342,2004,3032,8_S
1779267417.4161081,2900,3506,8_S
1779267417.417554,2918,3458,8_S
1779267417.427487,2345,3654,8_S
1779267417.428958,818,4090,8_S
1779267417.4313128,1720,4095,8_S
1779267417.431697,4095,4074,8_S
1779267417.4319649,2140,3620,8_S
1779267417.443051,1419,3457,8_S
1779267417.443813,1756,3619,8_S
1779267417.444105,2916,3981,8_S
1779267417.444679,1842,4095,8_S
1779267417.4449122,1110,4095,8_S
1779267417.448503,2069,4095,8_S
1779267417.448958,1771,4095,8_S
1779267417.449058,3571,3950,8_S
1779267417.4492521,2191,3780,8_S
1779267417.449392,943,3785,8_S
1779267417.4495082,1419,3925,8_S
1779267417.4573178,1329,4093,8_S
1779267417.458878,3972,4042,8_S
1779267417.459522,2424,3887,8_S
1779267417.465364,1341,3598,8_S
1779267417.466233,1799,3790,8_S
1779267417.474019,2754,3559,8_S
1779267417.474992,1726,3406,8_S
1779267417.478985,1922,2857,8_S
1779267417.479269,1922,2746,8_S
1779267417.47935,2726,2754,8_S
1779267417.479488,1764,2812,8_S
1779267417.479569,1572,2337,8_S
1779267417.479724,1717,2599,8_S
1779267417.4799309,2653,2439,8_S
1779267417.480028,2793,2494,8_S
1779267417.4814332,1137,2603,8_S
1779267417.484171,2712,2336,8_S
1779267417.485593,2612,2177,8_S
1779267417.494308,2131,2389,8_S
1779267417.497931,1404,2036,8_S
1779267417.498344,1629,2215,8_S
1779267417.503365,1817,2370,8_S
1779267417.509566,3122,2389,8_S
1779267417.509847,2530,1726,8_S
1779267417.510256,1900,1947,8_S
1779267417.5107,2004,1908,8_S
1779267417.511092,1568,2139,8_S
1779267417.511269,2025,1876,8_S
1779267417.514102,3113,1960,8_S
1779267417.515108,1834,2101,8_S
1779267417.515241,2182,2112,8_S
1779267417.515307,1840,1889,8_S
1779267417.51537,2016,1836,8_S
1779267417.523564,2308,2131,8_S
1779267417.524884,2073,1979,8_S
1779267417.52821,2322,1889,8_S
1779267417.528439,1364,2073,8_S
1779267417.528848,780,2237,8_S
1779267417.5308769,3963,2024,8_S
1779267417.532361,2084,1826,8_S
1779267417.532635,1879,1696,8_S
1779267417.534453,1248,1997,8_S
1779267417.5405571,1850,1801,8_S
1779267417.5409129,2247,1929,8_S
1779267417.5411808,2599,2049,8_S
1779267417.5414631,1317,1922,8_S
1779267417.545241,1933,1789,8_S
1779267417.5455492,1925,1904,8_S
1779267417.5481741,1694,2014,8_S
1779267417.549506,2933,1954,8_S
1779267417.552449,2117,1983,8_S
1779267417.559905,1713,1923,8_S
1779267417.560616,2043,1638,8_S
1779267417.5607932,2911,1969,8_S
1779267417.563062,1900,1895,8_S
1779267417.563484,1303,1721,8_S
1779267417.566562,2372,1863,8_S
1779267417.568754,1828,1901,8_S
1779267417.57449,1845,1703,8_S
1779267417.5746849,2109,1858,8_S
1779267417.5748842,2320,1677,8_S
1779267417.575274,1434,1887,8_S
1779267417.5754418,1265,1939,8_S
1779267417.578996,2981,1675,8_S
1779267417.5793269,3001,1794,8_S
1779267417.582151,1304,1741,8_S
1779267417.5896719,1888,1898,8_S
1779267417.5925708,2265,1931,8_S
1779267417.592886,2136,1712,8_S
1779267417.5931258,2404,1759,8_S
1779267417.593385,1397,2072,8_S
1779267417.596546,1710,2103,8_S
1779267417.5986822,1375,1918,8_S
1779267417.604993,3123,1747,8_S
1779267417.605323,2492,1668,8_S
1779267417.605967,948,1995,8_S
1779267417.608833,1469,1568,8_S
1779267417.609903,3389,1756,8_S
1779267417.6099992,2320,2136,8_S
1779267417.610136,1580,1945,8_S
1779267417.611476,1866,1769,8_S
1779267417.614072,1591,1824,8_S
1779267417.6154299,1915,1894,8_S
1779267417.6222122,1583,1873,8_S
1779267417.624463,2241,1689,8_S
1779267417.6251929,2166,1699,8_S
1779267417.6254249,1935,1770,8_S
1779267417.627916,1778,1806,8_S
1779267417.630934,2202,1861,8_S
1779267417.632853,2296,1947,8_S
1779267417.633159,1497,1731,8_S
1779267417.6393862,2371,1828,8_S
1779267417.640007,1734,1749,8_S
1779267417.6430001,1735,1730,8_S
1779267417.643143,2734,1734,8_S
1779267417.6441011,1125,2147,8_S
1779267417.644205,1960,1702,8_S
1779267417.64554,2959,1853,8_S
1779267417.652821,1979,1733,8_S
1779267417.654769,1874,1758,8_S
1779267417.6573281,1860,1740,8_S
1779267417.657759,2362,1612,8_S
1779267417.6602921,2275,1931,8_S
1779267417.661859,1281,1952,8_S
1779267417.661983,1856,1892,8_S
1779267417.662242,1887,1783,8_S
1779267417.667253,1648,1555,8_S
1779267417.667517,1820,1472,8_S
1779267417.667786,2745,1425,8_S
1779267417.670898,1893,1290,8_S
1779267417.6721501,1911,1214,8_S
1779267417.673515,2375,1464,8_S
1779267417.6761081,1940,1531,8_S
1779267417.67747,1980,1322,8_S
1779267417.68258,2129,1389,8_S
1779267417.6832561,2024,1246,8_S
1779267417.683383,1974,1546,8_S
1779267417.6866639,1701,1542,8_S
1779267417.690702,2094,1308,8_S
1779267417.6908789,2237,1223,8_S
1779267417.69606,2026,1485,8_S
1779267417.6964722,1980,1542,8_S
1779267417.6968682,2063,1529,8_S
1779267417.699859,1745,1574,8_S
1779267417.699994,2102,1585,8_S
1779267417.701666,1792,1692,8_S
1779267417.7113879,2132,1572,8_S
1779267417.7156212,2028,1642,8_S
1779267417.7220328,1912,1740,8_S
1779267417.7225652,2076,1879,8_S
1779267417.722934,2045,1791,8_S
1779267417.723338,1924,1714,8_S
1779267417.726699,2245,1878,8_S
1779267417.726785,2215,1764,8_S
1779267417.72692,1864,1519,8_S
1779267417.727024,1610,1816,8_S
1779267417.7270908,1822,1809,8_S
1779267417.727154,2826,1974,8_S
1779267417.727285,1335,1831,8_S
1779267417.72977,1089,1802,8_S
1779267417.731186,3503,1928,8_S
1779267417.7385101,1717,2010,8_S
1779267417.740362,1586,1883,8_S
1779267417.744815,1907,1986,8_S
1779267417.7471511,1918,2152,8_S
1779267417.7473888,1940,2148,8_S
1779267417.747757,2515,2105,8_S
1779267417.7529101,1963,1982,8_S
1779267417.75334,1841,1928,8_S
1779267417.754085,1817,1965,8_S
1779267417.754685,1998,2060,8_S
1779267417.758025,1992,1840,8_S
1779267417.7581198,1747,2010,8_S
1779267417.7581928,2337,2101,8_S
1779267417.759385,2464,2087,8_S
1779267417.766389,1824,1994,8_S
1779267417.76928,1769,1688,8_S
1779267417.7698371,1804,1846,8_S
1779267417.774278,1907,1943,8_S
1779267417.779715,1956,1841,8_S
1779267417.7802858,2039,1795,8_S
1779267417.7806349,2292,1854,8_S
1779267417.781076,1682,1992,8_S
1779267417.781502,1790,1792,8_S
1779267417.7844968,1779,1814,8_S
1779267417.784802,2573,1787,8_S
1779267417.784914,2195,1827,8_S
1779267417.7850711,1830,1790,8_S
1779267417.7876952,1932,1703,8_S
1779267417.789097,1659,1865,8_S
1779267417.7957928,2772,2122,8_S
1779267417.800159,1980,2093,8_S
1779267417.8006668,1717,1975,8_S
1779267417.801097,1786,1910,8_S
1779267417.803741,1689,1981,8_S
1779267417.8109949,2508,1772,8_S
1779267417.811747,2451,1934,8_S
1779267417.811958,1407,1902,8_S
1779267417.812289,1250,2079,8_S
1779267417.812633,2436,2036,8_S
1779267417.8129752,2527,1951,8_S
1779267417.813299,1585,1927,8_S
1779267417.8156369,1760,1850,8_S
1779267417.81825,2051,1991,8_S
1779267417.8256361,1982,1840,8_S
1779267417.8263428,1937,1809,8_S
1779267417.828692,1926,2017,8_S
1779267417.830795,1831,2092,8_S
1779267417.831622,1838,1901,8_S
1779267417.8389518,1983,1630,8_S
1779267417.842653,2740,1919,8_S
1779267417.842783,2018,1976,8_S
1779267417.842846,1730,1890,8_S
1779267417.842989,1638,1738,8_S
1779267417.843053,2302,1873,8_S
1779267417.843162,2117,2079,8_S
1779267417.8432798,1587,2011,8_S
1779267417.845836,2404,1906,8_S
1779267417.847201,2183,1883,8_S
1779267417.854408,1820,1838,8_S
1779267417.856189,1901,1844,8_S
1779267417.85825,2063,1829,8_S
1779267417.858689,2111,1985,8_S
1779267417.859093,2054,2147,8_S
1779267417.8617148,1964,2070,8_S
1779267417.863395,1885,1879,8_S
1779267417.868896,1868,1886,8_S
1779267417.869379,1961,1986,8_S
1779267417.869985,1905,2037,8_S
1779267417.870332,1956,1820,8_S
1779267417.873583,2339,1957,8_S
1779267417.8736792,2026,2077,8_S
1779267417.875092,2008,2085,8_S
1779267417.882735,1842,2048,8_S
1779267417.884851,1978,2007,8_S
1779267417.885231,2149,1881,8_S
1779267417.8873038,2103,1953,8_S
1779267417.8882308,1997,1925,8_S
1779267417.8900921,1787,1895,8_S
1779267417.8904881,2269,1853,8_S
1779267417.895987,2072,2153,8_S
1779267417.896276,1948,2088,8_S
1779267417.896554,1902,1997,8_S
1779267417.89968,1953,2058,8_S
1779267417.900102,1921,2123,8_S
1779267417.901512,1983,2010,8_S
1779267417.904115,1992,1898,8_S
1779267417.905456,2080,1981,8_S
1779267417.9122,2082,2118,8_S
1779267417.91298,2042,2188,8_S
1779267417.915473,2048,2089,8_S
1779267417.9176059,1887,1981,8_S
1779267417.917908,1943,2046,8_S
1779267417.918647,2058,2113,8_S
1779267417.925757,1993,2091,8_S
1779267417.926186,1868,2031,8_S
1779267417.926835,2017,2196,8_S
1779267417.929821,2009,2346,8_S
1779267417.9301472,1989,2113,8_S
1779267417.930228,1751,1995,8_S
1779267417.931642,2335,1933,8_S
1779267417.9434712,2142,2034,8_S
1779267417.94668,1871,2059,8_S
1779267417.954892,1771,2011,8_S
1779267417.9557471,2025,2172,8_S
1779267417.956258,2130,2250,8_S
1779267417.9566982,2112,2205,8_S
1779267417.957108,2041,2117,8_S
1779267417.9603488,1988,2098,8_S
1779267417.960536,2018,2105,8_S
1779267417.9606159,2074,2077,8_S
1779267417.960725,2016,2072,8_S
1779267417.960833,2006,2119,8_S
1779267417.961003,2050,2321,8_S
1779267417.961092,2020,2231,8_S
1779267417.9612029,1987,2078,8_S
1779267417.963831,2072,2041,8_S
1779267417.965198,2094,2089,8_S
1779267417.974755,1989,2114,8_S
1779267417.9771688,2065,2070,8_S
1779267417.977491,2018,2158,8_S
1779267417.978032,2229,2290,8_S
1779267417.981215,2202,2179,8_S
1779267417.983382,2014,2079,8_S
1779267417.9897861,2016,2046,8_S
1779267417.9902341,2034,2095,8_S
1779267417.990541,2005,2196,8_S
1779267417.99101,1966,2013,8_S
1779267417.991467,2076,2074,8_S
1779267417.994549,2042,2226,8_S
1779267417.995628,2018,2306,8_S
1779267417.9957561,2071,2172,8_S
1779267417.995845,2056,2098,8_S
1779267417.997206,2050,2031,8_S
1779267418.004618,1994,2142,8_S
1779267418.0076742,1972,2113,8_S
1779267418.008201,1980,2005,8_S
1779267418.0108101,2041,2112,8_S
1779267418.011884,2094,2243,8_S
1779267418.013948,1847,2300,8_S
1779267418.0142531,1649,2117,8_S
1779267418.020094,2142,2072,8_S
1779267418.020541,2174,2216,8_S
1779267418.0214112,1881,2097,8_S
1779267418.0218408,2408,1909,8_S
1779267418.022206,2392,1942,8_S
1779267418.024514,2320,2164,8_S
1779267418.025982,2257,2203,8_S
1779267418.027381,2019,2155,8_S
1779267418.029991,2222,2132,8_S
1779267418.0329962,2208,2124,8_S
1779267418.03772,1635,2225,8_S
1779267418.040977,1542,2013,8_S
1779267418.041394,2207,2029,8_S
1779267418.0417762,2281,2154,8_S
1779267418.044184,2105,2235,8_S
1779267418.045042,1818,2068,8_S
1779267418.047012,2212,2068,8_S
1779267418.053264,2209,2205,8_S
1779267418.0536802,2237,2277,8_S
1779267418.054496,2182,2170,8_S
1779267418.054973,2025,2013,8_S
1779267418.0551639,1885,2205,8_S
1779267418.058375,1960,2382,8_S
1779267418.059781,1986,2252,8_S
1779267418.0613089,1857,2103,8_S
1779267418.067111,2013,2169,8_S
1779267418.068382,2358,2162,8_S
1779267418.0706098,2361,2142,8_S
1779267418.0763898,2056,2135,8_S
1779267418.082447,1816,2263,8_S
1779267418.082947,1843,2406,8_S
1779267418.083374,2265,2486,8_S
1779267418.0838668,2328,2307,8_S
1779267418.0843468,2019,2224,8_S
1779267418.0868511,2048,2267,8_S
1779267418.087886,1896,2404,8_S
1779267418.087977,2080,2158,8_S
1779267418.088085,2179,2234,8_S
1779267418.089429,2061,2380,8_S
1779267418.092118,2015,2551,8_S
1779267418.093531,1992,2371,8_S
1779267418.1019,1908,2325,8_S
1779267418.105001,1969,2277,8_S
1779267418.107471,1974,2256,8_S
1779267418.109657,1943,2169,8_S
1779267418.1099038,1822,2240,8_S
1779267418.110193,1788,2321,8_S
1779267418.115647,1825,2415,8_S
1779267418.116082,1997,2483,8_S
1779267418.116628,1701,2383,8_S
1779267418.116849,1868,2353,8_S
1779267418.117307,2281,2223,8_S
1779267418.120351,2282,2033,8_S
1779267418.1204338,1901,2106,8_S
1779267418.1216471,1887,2063,8_S
1779267418.1286778,2068,2281,8_S
1779267418.130134,2365,2272,8_S
1779267418.132591,2225,2151,8_S
1779267418.1329558,2153,2081,8_S
1779267418.133526,1986,2056,8_S
1779267418.135854,1806,2101,8_S
1779267418.136737,1874,2028,8_S
1779267418.144595,1924,1976,8_S
1779267418.145183,1984,2197,8_S
1779267418.145499,2112,2291,8_S
1779267418.145975,1823,2181,8_S
1779267418.1464179,1691,1980,8_S
1779267418.149354,1431,1936,8_S
1779267418.1504629,1989,1962,8_S
1779267418.151881,2507,1864,8_S
1779267418.153138,2378,1802,8_S
1779267418.155781,2111,2064,8_S
1779267418.162354,2176,2415,8_S
1779267418.1636732,2353,2366,8_S
1779267418.164363,2136,2168,8_S
1779267418.166786,2066,2180,8_S
1779267418.167153,2220,2216,8_S
1779267418.167574,2148,2249,8_S
1779267418.1700852,1578,2010,8_S
1779267418.1786041,1480,2001,8_S
1779267418.1793332,1287,2202,8_S
1779267418.17967,2616,2148,8_S
1779267418.1800551,2435,2105,8_S
1779267418.180552,1650,2253,8_S
1779267418.1840808,1756,2293,8_S
1779267418.18451,2115,2085,8_S
1779267418.185937,2202,1884,8_S
1779267418.187559,2125,1916,8_S
1779267418.193773,2094,2200,8_S
1779267418.193991,2061,2336,8_S
1779267418.1948328,2037,2125,8_S
1779267418.198208,1940,2031,8_S
1779267418.1985972,1938,2122,8_S
1779267418.20112,2047,2226,8_S
1779267418.201963,1620,2008,8_S
1779267418.2096262,1966,1929,8_S
1779267418.2100601,1953,2150,8_S
1779267418.210662,2152,2512,8_S
1779267418.210814,1992,2558,8_S
1779267418.213978,2154,2395,8_S
1779267418.2148118,1951,2091,8_S
1779267418.216213,2210,2054,8_S
1779267418.2175622,2136,1943,8_S
1779267418.218957,1872,1769,8_S
1779267418.221945,2070,1747,8_S
1779267418.228538,2276,1978,8_S
1779267418.2326348,2104,2140,8_S
1779267418.233116,1891,1965,8_S
1779267418.233415,1919,2010,8_S
1779267418.2337742,1914,2026,8_S
1779267418.236161,2076,2033,8_S
1779267418.244849,2279,1813,8_S
1779267418.245207,2276,1822,8_S
1779267418.245696,1962,2145,8_S
1779267418.2459588,1948,2256,8_S
1779267418.246377,2191,1987,8_S
1779267418.249812,2225,1939,8_S
1779267418.2502022,2084,1893,8_S
1779267418.2502809,2175,1766,8_S
1779267418.2516549,2157,1444,8_S
1779267418.253084,2173,1396,8_S
1779267418.25954,1998,1634,8_S
1779267418.260371,2097,2042,8_S
1779267418.263912,1684,2142,8_S
1779267418.264192,1949,1933,8_S
1779267418.264595,2018,1814,8_S
1779267418.2676039,2395,1756,8_S
1779267418.269422,2194,1596,8_S
1779267418.269727,1698,1456,8_S
1779267418.275595,1847,1596,8_S
1779267418.2765791,1969,2023,8_S
1779267418.27708,2018,2078,8_S
1779267418.277486,1985,1964,8_S
1779267418.281365,1898,1682,8_S
1779267418.2816179,1780,1749,8_S
1779267418.282978,2073,1765,8_S
1779267418.2856672,2148,1455,8_S
1779267418.287051,2273,1341,8_S
1779267418.294739,2186,1671,8_S
1779267418.295073,2443,2055,8_S
1779267418.295833,2019,1836,8_S
1779267418.2964852,1217,1505,8_S
1779267418.299362,2400,1480,8_S
1779267418.2997792,2379,1716,8_S
1779267418.302201,2003,1346,8_S
1779267418.310383,1543,1388,8_S
1779267418.310812,2219,1711,8_S
1779267418.311119,2365,2046,8_S
1779267418.3113558,2228,2068,8_S
1779267418.3117561,2285,1747,8_S
1779267418.315595,1622,1584,8_S
1779267418.3156831,2351,1527,8_S
1779267418.317066,2481,1294,8_S
1779267418.323804,1846,1273,8_S
1779267418.32402,1586,1336,8_S
1779267418.325988,1932,1703,8_S
1779267418.329431,2369,1812,8_S
1779267418.331285,2083,1497,8_S
1779267418.334618,2085,1274,8_S
1779267418.3405068,2253,1190,8_S
1779267418.341428,2247,1084,8_S
1779267418.341845,1978,1147,8_S
1779267418.344639,1982,1414,8_S
1779267418.3456588,2140,954,8_S
1779267418.345773,1992,1311,8_S
1779267418.345849,1976,1144,8_S
1779267418.34592,2095,1005,8_S
1779267418.347299,2073,897,8_S
1779267418.350059,1951,893,8_S
1779267418.3514082,2028,818,8_S
1779267418.3590279,2038,1353,8_S
1779267418.359234,2072,1150,8_S
1779267418.359499,2067,1254,8_S
1779267418.360884,2111,1379,8_S
1779267418.3618429,2007,1261,8_S
1779267418.3670552,2035,1122,8_S
1779267418.3679712,2015,1044,8_S
1779267418.368265,2081,581,8_S
1779267418.370253,2041,1280,8_S
1779267418.375948,1931,1310,8_S
1779267418.376226,2054,1191,8_S
1779267418.376767,2116,1630,8_S
1779267418.377152,2026,1372,8_S
1779267418.380695,1880,1151,8_S
1779267418.382144,1946,1065,8_S
1779267418.38352,2204,730,8_S
1779267418.391537,2062,1138,8_S
1779267418.3923478,1968,1395,8_S
1779267418.3925152,2057,935,8_S
1779267418.394776,2398,1546,8_S
1779267418.3952231,2083,1466,8_S
1779267418.3977358,1770,1199,8_S
1779267418.3980129,1988,1047,8_S
1779267418.400505,1817,890,8_S
1779267418.405671,1846,910,8_S
1779267418.4063911,2017,1423,8_S
1779267418.4072058,2523,1168,8_S
1779267418.410016,2236,1460,8_S
1779267418.41077,2120,1764,8_S
1779267418.4111822,1903,1563,8_S
1779267418.413949,2044,1300,8_S
1779267418.415448,2110,1218,8_S
1779267418.4181492,2084,675,8_S
1779267418.42474,1843,1453,8_S
1779267418.4249668,1746,1408,8_S
1779267418.429431,2080,1217,8_S
1779267418.431833,1889,1804,8_S
1779267418.434478,1984,1592,8_S
1779267418.439803,2188,1300,8_S
1779267418.440728,2203,1233,8_S
1779267418.441082,2139,889,8_S
1779267418.441519,2051,1323,8_S
1779267418.442019,1945,1558,8_S
1779267418.444683,1790,1043,8_S
1779267418.445664,1846,1922,8_S
1779267418.445753,2153,1728,8_S
1779267418.445823,2098,1555,8_S
1779267418.4471722,1970,1441,8_S
1779267418.454006,2079,1242,8_S
1779267418.455869,2225,1102,8_S
1779267418.4569411,1827,1675,8_S
1779267418.4580648,1916,1348,8_S
1779267418.463816,2387,1897,8_S
1779267418.4641762,1941,2027,8_S
1779267418.4652271,1555,1731,8_S
1779267418.473886,2025,1474,8_S
1779267418.474159,2443,1498,8_S
1779267418.474643,2056,956,8_S
1779267418.4751391,1907,1686,8_S
1779267418.475436,2027,1617,8_S
1779267418.4757938,2005,1633,8_S
1779267418.4761531,2067,2118,8_S
1779267418.4805179,2153,1899,8_S
1779267418.480706,1819,1658,8_S
1779267418.482322,1910,1689,8_S
1779267418.483705,2100,1360,8_S
1779267418.485058,2118,1539,8_S
1779267418.487689,2021,1833,8_S
1779267418.489032,1946,1438,8_S
1779267418.4979079,1944,2269,8_S
1779267418.4996018,2212,2014,8_S
1779267418.505204,2183,1672,8_S
1779267418.508606,1950,1533,8_S
1779267418.5092638,1982,1621,8_S
1779267418.515797,2044,1253,8_S
1779267418.51942,1886,1912,8_S
1779267418.520481,2100,1543,8_S
1779267418.520969,1962,2269,8_S
1779267418.521106,2114,2236,8_S
1779267418.521353,2432,1870,8_S
1779267418.5214999,2081,1665,8_S
1779267418.521711,1884,1679,8_S
1779267418.5223181,2050,1140,8_S
1779267418.52244,1867,1894,8_S
1779267418.522523,1922,1821,8_S
1779267418.5239758,2210,1960,8_S
1779267418.531134,2430,2298,8_S
1779267418.53136,1614,1942,8_S
1779267418.53234,1901,1645,8_S
1779267418.534036,2219,1713,8_S
1779267418.537507,2090,1426,8_S
1779267418.538187,1939,1687,8_S
1779267418.538851,1946,1983,8_S
1779267418.54984,2155,1620,8_S
1779267418.5505111,1933,2357,8_S
1779267418.5507798,2036,2084,8_S
1779267418.5511181,2129,1780,8_S
1779267418.551692,2026,1691,8_S
1779267418.556863,2066,1691,8_S
1779267418.557033,2105,1361,8_S
1779267418.557173,2051,2057,8_S
1779267418.5572438,2037,1649,8_S
1779267418.557308,1921,2252,8_S
1779267418.5600362,1444,2219,8_S
1779267418.56158,2038,1884,8_S
1779267418.562986,2292,1662,8_S
1779267418.584267,2426,1721,8_S
1779267418.585024,2088,1172,8_S
1779267418.586103,2057,1990,8_S
1779267418.5895638,2222,1924,8_S
1779267418.589916,2167,2126,8_S
1779267418.589998,2225,2427,8_S
1779267418.59007,2045,2076,8_S
1779267418.5901399,1919,1813,8_S
1779267418.590208,1913,1820,8_S
1779267418.59027,1825,1552,8_S
1779267418.5903318,1832,1778,8_S
1779267418.590397,2115,2102,8_S
1779267418.5904582,2172,1712,8_S
1779267418.5918221,2033,2534,8_S
1779267418.598027,2151,2189,8_S
1779267418.599678,1926,1889,8_S
1779267418.600408,1916,1785,8_S
1779267418.60054,2070,1795,8_S
1779267418.603446,1890,1432,8_S
1779267418.6070669,1948,2175,8_S
1779267418.614134,1884,1750,8_S
1779267418.614517,1953,2607,8_S
1779267418.615238,2299,2384,8_S
1779267418.615645,1926,1901,8_S
1779267418.615969,1991,1794,8_S
1779267418.616357,2204,1839,8_S
1779267418.619798,2122,1185,8_S
1779267418.620008,1953,2110,8_S
1779267418.621375,2114,2018,8_S
1779267418.623915,2072,2275,8_S
1779267418.625341,1874,2561,8_S
1779267418.6279721,2201,2050,8_S
1779267418.62922,1824,1884,8_S
1779267418.637001,1724,1957,8_S
1779267418.637362,2333,1588,8_S
1779267418.6389592,2191,1877,8_S
1779267418.6415648,2133,2197,8_S
1779267418.64181,2017,1836,8_S
1779267418.643732,2112,2660,8_S
1779267418.64405,2029,2279,8_S
1779267418.6497889,2045,1809,8_S
1779267418.650156,2143,1798,8_S
1779267418.656066,2054,1794,8_S
1779267418.6569731,1884,1514,8_S
1779267418.657438,1977,2247,8_S
1779267418.6576571,1957,1778,8_S
1779267418.657967,1945,2706,8_S
1779267418.661501,2322,2567,8_S
1779267418.662661,2139,1823,8_S
1779267418.6628191,1935,1813,8_S
1779267418.665473,2033,1817,8_S
1779267418.6733508,1686,1159,8_S
1779267418.674475,1869,2195,8_S
1779267418.674847,2460,2044,8_S
1779267418.675699,2045,2204,8_S
1779267418.6765819,1976,2555,8_S
1779267418.679275,2061,1973,8_S
1779267418.67968,2118,1829,8_S
1779267418.6836748,2089,1934,8_S
1779267418.686124,2136,1562,8_S
1779267418.686517,2059,1940,8_S
1779267418.692566,1849,2223,8_S
1779267418.693315,2023,1918,8_S
1779267418.693795,2148,2666,8_S
1779267418.698139,2030,2264,8_S
1779267418.698315,1956,1790,8_S
1779267418.698436,1955,1903,8_S
1779267418.699809,2133,1858,8_S
1779267418.701173,2134,1562,8_S
1779267418.7038898,2007,2278,8_S
1779267418.705687,1968,1780,8_S
1779267418.713084,2049,2669,8_S
1779267418.7141461,1983,2448,8_S
1779267418.715353,1969,1806,8_S
1779267418.716501,2084,1862,8_S
1779267418.720868,2093,1883,8_S
1779267418.7214851,2123,1152,8_S
1779267418.721976,2127,2214,8_S
1779267418.72233,1940,2065,8_S
1779267418.72636,1827,2334,8_S
1779267418.729158,2142,2570,8_S
1779267418.735255,2182,1961,8_S
1779267418.7355928,1890,1876,8_S
1779267418.7359848,1845,1868,8_S
1779267418.736288,2490,1499,8_S
1779267418.737034,2439,1966,8_S
1779267418.7373052,1586,2229,8_S
1779267418.742542,1937,1892,8_S
1779267418.742631,1948,2694,8_S
1779267418.744065,1895,2247,8_S
1779267418.745745,2312,1781,8_S
1779267418.751549,1307,1933,8_S
1779267418.752438,2562,1915,8_S
1779267418.756469,3170,1580,8_S
1779267418.757177,1629,2292,8_S
1779267418.7595332,755,1783,8_S
1779267418.762057,3522,2467,8_S
1779267418.767191,4064,2622,8_S
1779267418.7682729,1054,1780,8_S
1779267418.769182,1052,2039,8_S
1779267418.773001,1086,2060,8_S
1779267418.7734988,2026,1117,8_S
1779267418.775101,2272,2255,8_S
1779267418.775269,1721,2127,8_S
1779267418.7756312,1856,2368,8_S
1779267418.775786,2596,2768,8_S
1779267418.777142,1646,1920,8_S
1779267418.779762,1764,1829,8_S
1779267418.787128,3684,1810,8_S
1779267418.7909188,2520,1534,8_S
1779267418.791253,1077,1989,8_S
1779267418.793601,1844,2259,8_S
1779267418.796422,2106,2163,8_S
1779267418.7966871,2035,2816,8_S
1779267418.801604,1832,2229,8_S
1779267418.8021388,1375,1781,8_S
1779267418.8027442,2226,2107,8_S
1779267418.802955,2401,2006,8_S
1779267418.803533,1082,1600,8_S
1779267418.807008,2521,2310,8_S
1779267418.807082,3924,1792,8_S
1779267418.807292,1910,2804,8_S
1779267418.8099258,2056,2639,8_S
1779267418.814976,1220,1760,8_S
1779267418.816545,1659,2112,8_S
1779267418.817295,2279,2154,8_S
1779267418.819972,1610,1431,8_S
1779267418.8203678,1930,2254,8_S
1779267418.8234398,2856,2130,8_S
1779267418.830073,2105,2704,8_S
1779267418.83057,2163,2507,8_S
1779267418.830909,2234,1947,8_S
1779267418.831303,1635,1893,8_S
1779267418.831685,2966,2387,8_S
1779267418.8351061,2746,1665,8_S
1779267418.835414,2754,1955,8_S
1779267418.836938,1470,2293,8_S
1779267418.839849,1368,2540,8_S
1779267418.8414102,3131,3038,8_S
1779267418.848608,3357,2248,8_S
1779267418.852853,1447,1799,8_S
1779267418.853377,2332,2179,8_S
1779267418.855047,3208,2101,8_S
1779267418.856461,3215,1577,8_S
1779267418.856757,1503,2306,8_S
1779267418.858571,1869,2542,8_S
1779267418.858876,3112,3648,8_S
1779267418.863772,2135,2567,8_S
1779267418.864095,2605,1830,8_S
1779267418.864457,3834,2299,8_S
1779267418.867931,1052,3194,8_S
1779267418.868236,2194,1968,8_S
1779267418.869334,3367,2169,8_S
1779267418.875448,1663,2750,8_S
1779267418.876093,2006,3944,8_S
1779267418.877804,3362,3052,8_S
1779267418.87972,2124,2011,8_S
1779267418.879947,2851,2125,8_S
1779267418.8824902,1772,3171,8_S
1779267418.884033,3095,3708,8_S
1779267418.888414,3671,2980,8_S
1779267418.888782,2184,3522,8_S
1779267418.889067,1685,4095,8_S
1779267418.892287,1717,3716,8_S
1779267418.8936331,2837,2628,8_S
1779267418.895009,2808,2402,8_S
1779267418.8976169,2408,3029,8_S
1779267418.8989718,1446,4069,8_S
1779267418.9033642,2996,4095,8_S
1779267418.904463,2356,4095,8_S
1779267418.907531,2042,4095,8_S
1779267418.9100318,2679,4095,8_S
1779267418.9102259,2279,3493,8_S
1779267418.911767,2524,3137,8_S
1779267418.916291,1994,3289,8_S
1779267418.916712,2040,3801,8_S
1779267418.91688,1316,4095,8_S
1779267418.919821,3110,4095,8_S
1779267418.921173,3509,4095,8_S
1779267418.9272,1905,4095,8_S
1779267418.9282858,1262,3946,8_S
1779267418.930586,2263,3639,8_S
1779267418.9308171,2637,3590,8_S
1779267418.930965,3849,3787,8_S
1779267418.9346461,998,4092,8_S
1779267418.9350169,2215,4095,8_S
1779267418.9398599,2925,4095,8_S
1779267418.940022,988,4095,8_S
1779267418.9428558,3180,4095,8_S
1779267418.943019,3280,3922,8_S
1779267418.9456158,1959,3826,8_S
1779267418.946935,1884,3866,8_S
1779267418.953828,2347,4006,8_S
1779267418.955053,2314,4095,8_S
1779267418.955271,2296,4095,8_S
1779267418.9558542,1055,4095,8_S
1779267418.95761,2904,4095,8_S
1779267418.9602408,3118,4048,8_S
1779267418.961727,1110,3965,8_S
1779267418.9663239,2108,3950,8_S
1779267418.966655,2187,4001,8_S
1779267418.966903,2524,4080,8_S
1779267418.969994,2806,4095,8_S
1779267418.971435,2402,4095,8_S
1779267418.977095,2372,4095,8_S
1779267418.978241,1669,4090,8_S
1779267418.978946,2297,4037,8_S
1779267418.980725,657,4009,8_S
1779267418.980959,2409,4022,8_S
1779267418.983833,3956,4057,8_S
1779267418.990256,1557,4091,8_S
1779267418.9906828,947,4017,8_S
1779267418.991183,2166,4095,8_S
1779267418.994132,1719,4095,8_S
1779267418.994194,3025,4054,8_S
1779267418.9953501,1226,4020,8_S
1779267418.99784,1539,3767,8_S
1779267418.9991932,3887,4025,8_S
1779267419.0111291,365,3858,8_S
1779267419.0116632,1181,3482,8_S
1779267419.014192,1974,3632,8_S
1779267419.015934,1741,3577,8_S
1779267419.016416,2810,3552,8_S
1779267419.0216079,2627,3236,8_S
1779267419.022016,2068,3084,8_S
1779267419.022421,1287,3455,8_S
1779267419.022933,1050,2917,8_S
1779267419.025501,3017,2653,8_S
1779267419.026413,2800,3097,8_S
1779267419.0265,1848,2739,8_S
1779267419.026656,1755,2767,8_S
1779267419.026762,727,2895,8_S
1779267419.035655,1887,2546,8_S
1779267419.04046,3976,2549,8_S
1779267419.0473118,2074,2564,8_S
1779267419.047742,1533,2254,8_S
1779267419.048043,3151,2771,8_S
1779267419.048696,959,2262,8_S
1779267419.051934,1816,2377,8_S
1779267419.052088,2633,2512,8_S
1779267419.052175,1829,2392,8_S
1779267419.0522492,1646,2282,8_S
1779267419.0523891,2412,2207,8_S
1779267419.0525131,2006,2176,8_S
1779267419.054122,1473,2158,8_S
1779267419.056511,2306,2348,8_S
1779267419.057954,2749,2148,8_S
1779267419.059328,2574,2203,8_S
1779267419.081964,1841,1829,8_S
1779267419.082088,1987,2226,8_S
1779267419.082145,2448,2100,8_S
1779267419.103345,1937,2266,8_S
1779267419.1034582,2525,2134,8_S
1779267419.103532,1874,1995,8_S
1779267419.103673,2271,2132,8_S
1779267419.103798,2625,1676,8_S
1779267419.103945,2437,2067,8_S
1779267419.1040251,606,2183,8_S
1779267419.104094,1815,2112,8_S
1779267419.1042979,3093,2133,8_S
1779267419.104364,1786,1842,8_S
1779267419.104494,1684,1956,8_S
1779267419.1045702,2987,1723,8_S
1779267419.104772,2558,1978,8_S
1779267419.104842,1631,1829,8_S
1779267419.104905,2341,1675,8_S
1779267419.104966,2214,1993,8_S
1779267419.105033,1879,1784,8_S
1779267419.105101,1477,1788,8_S
1779267419.105178,1916,1872,8_S
1779267419.1054459,3385,1773,8_S
1779267419.106848,1676,1654,8_S
1779267419.121883,1765,1871,8_S
1779267419.127288,3112,1951,8_S
1779267419.127947,1340,1993,8_S
1779267419.1282501,1649,1681,8_S
1779267419.128742,2465,1960,8_S
1779267419.129101,1373,1910,8_S
1779267419.129408,1668,1744,8_S
1779267419.1297762,2325,1912,8_S
1779267419.130008,2801,2062,8_S
1779267419.132986,2288,1924,8_S
1779267419.1330838,1868,2066,8_S
1779267419.13317,1202,1793,8_S
1779267419.1332538,4095,1669,8_S
1779267419.135906,1956,1662,8_S
1779267419.142923,2243,1836,8_S
1779267419.144177,1732,1744,8_S
1779267419.146362,1660,1805,8_S
1779267419.146824,1079,2076,8_S
1779267419.149441,2228,1737,8_S
1779267419.151196,3869,1747,8_S
1779267419.156692,2163,1913,8_S
1779267419.157154,1571,1920,8_S
1779267419.1576982,1729,1810,8_S
1779267419.16051,1867,1807,8_S
1779267419.161451,2612,1812,8_S
1779267419.1615438,2174,1740,8_S
1779267419.1616662,2236,1579,8_S
1779267419.1630678,1488,1797,8_S
1779267419.1657422,1535,1675,8_S
1779267419.1677198,1385,1777,8_S
1779267419.1742458,3487,1834,8_S
1779267419.1768472,3316,1656,8_S
1779267419.177423,1212,1819,8_S
1779267419.177671,1256,1831,8_S
1779267419.1873322,2257,1747,8_S
1779267419.1875699,1708,1686,8_S
1779267419.190645,2370,1676,8_S
1779267419.1916459,2731,1743,8_S
1779267419.1918342,1959,1638,8_S
1779267419.191943,1559,1910,8_S
1779267419.1920462,1493,1952,8_S
1779267419.19211,2748,1911,8_S
1779267419.193495,2183,1829,8_S
1779267419.199919,2150,1997,8_S
1779267419.2011871,1908,1773,8_S
1779267419.2033322,2088,1745,8_S
1779267419.203598,1912,1749,8_S
1779267419.20645,1999,1741,8_S
1779267419.213342,1941,1866,8_S
1779267419.213998,2040,1911,8_S
1779267419.2145889,1628,1897,8_S
1779267419.218122,2516,1866,8_S
1779267419.218409,2914,1701,8_S
1779267419.21866,1915,1870,8_S
1779267419.218747,1362,1857,8_S
1779267419.21882,1767,1876,8_S
1779267419.221645,1992,1874,8_S
1779267419.222995,2550,1995,8_S
1779267419.2341812,1944,1977,8_S
1779267419.234453,1772,2023,8_S
1779267419.234719,2019,1858,8_S
1779267419.235084,2042,1843,8_S
1779267419.236778,1968,1841,8_S
1779267419.238234,1617,1848,8_S
1779267419.245604,2666,1819,8_S
1779267419.246109,1821,1856,8_S
1779267419.246858,1343,1754,8_S
1779267419.2499719,2535,1819,8_S
1779267419.2500749,2032,1863,8_S
1779267419.250199,2042,1918,8_S
1779267419.250278,1792,1918,8_S
1779267419.251722,2155,1836,8_S
1779267419.2628322,1815,1708,8_S
1779267419.263696,1926,1521,8_S
1779267419.2655659,2004,1623,8_S
1779267419.270946,1540,1588,8_S
1779267419.2716858,1597,1456,8_S
1779267419.272116,2284,1465,8_S
1779267419.272535,1673,1512,8_S
1779267419.2750149,2586,1510,8_S
1779267419.275987,1778,1507,8_S
1779267419.276076,1720,1542,8_S
1779267419.276163,1904,1694,8_S
1779267419.276274,1922,1814,8_S
1779267419.2777011,1846,1734,8_S
1779267419.279101,1853,1665,8_S
1779267419.281893,1769,1620,8_S
1779267419.288621,1678,1597,8_S
1779267419.2918122,1849,1620,8_S
1779267419.2923148,1873,1781,8_S
1779267419.294328,1887,1781,8_S
1779267419.294625,2183,1808,8_S
1779267419.2969742,1821,1652,8_S
1779267419.297413,2391,1515,8_S
1779267419.302989,1658,2137,8_S
1779267419.3033721,1189,1917,8_S
1779267419.3038359,2100,1742,8_S
1779267419.304364,2095,1692,8_S
1779267419.307932,1880,1825,8_S
1779267419.3081112,2088,2000,8_S
1779267419.309508,1835,2135,8_S
1779267419.3157709,1826,2027,8_S
1779267419.31708,1919,1891,8_S
1779267419.319922,2046,2005,8_S
1779267419.320127,2071,2006,8_S
1779267419.322809,1976,1905,8_S
1779267419.330115,1900,1887,8_S
1779267419.330658,1822,1823,8_S
1779267419.331127,1732,1962,8_S
1779267419.33213,1936,1763,8_S
1779267419.335348,1899,1897,8_S
1779267419.335628,1635,1813,8_S
1779267419.335792,2227,1924,8_S
1779267419.335897,1563,1666,8_S
1779267419.337248,1947,1651,8_S
1779267419.338718,2009,1804,8_S
1779267419.341663,1712,1940,8_S
1779267419.3503108,1815,1903,8_S
1779267419.35318,1995,1848,8_S
1779267419.355167,1824,1794,8_S
1779267419.356658,1864,1910,8_S
1779267419.358735,1818,1913,8_S
1779267419.3644469,1900,1905,8_S
1779267419.36529,1940,1914,8_S
1779267419.365878,1901,2070,8_S
1779267419.369092,2034,1993,8_S
1779267419.3696792,1958,1808,8_S
1779267419.3697972,1812,1773,8_S
1779267419.369956,1962,1904,8_S
1779267419.370105,1804,1955,8_S
1779267419.370234,1400,1860,8_S
1779267419.371625,1735,1873,8_S
1779267419.379346,2674,1977,8_S
1779267419.380855,1511,1976,8_S
1779267419.383449,1865,1890,8_S
1779267419.383795,2043,1895,8_S
1779267419.388801,1582,1996,8_S
1779267419.399041,1902,1949,8_S
1779267419.399637,1889,1862,8_S
1779267419.3997362,1849,2011,8_S
1779267419.39982,1837,1985,8_S
1779267419.399884,1790,1986,8_S
1779267419.3999438,1675,1997,8_S
1779267419.400026,1748,1929,8_S
1779267419.4000928,1818,1839,8_S
1779267419.4001532,2614,1930,8_S
1779267419.401535,2086,1952,8_S
1779267419.4029388,1706,1828,8_S
1779267419.405629,2067,1856,8_S
1779267419.407351,1971,2221,8_S
1779267419.417367,1294,2076,8_S
1779267419.419601,2381,1936,8_S
1779267419.4212449,1993,2022,8_S
1779267419.423722,1804,2001,8_S
1779267419.4305978,1796,1966,8_S
1779267419.431367,1919,1957,8_S
1779267419.4343932,2033,2032,8_S
1779267419.434637,2030,2043,8_S
1779267419.435529,1991,2034,8_S
1779267419.435619,1974,2065,8_S
1779267419.43569,1975,2009,8_S
1779267419.435761,1891,1987,8_S
1779267419.43583,1880,2124,8_S
1779267419.435893,2485,2051,8_S
1779267419.437247,2034,2006,8_S
1779267419.4442859,2206,2050,8_S
1779267419.445823,2072,2017,8_S
1779267419.449378,2011,2080,8_S
1779267419.449781,1944,1966,8_S
1779267419.4500108,2060,2101,8_S
1779267419.452673,1918,2096,8_S
1779267419.4554539,1892,2123,8_S
1779267419.455897,1941,2084,8_S
1779267419.456044,1910,2139,8_S
1779267419.462314,1948,2264,8_S
1779267419.462804,1977,2183,8_S
1779267419.4632509,2147,2048,8_S
1779267419.463606,2174,2106,8_S
1779267419.467489,2124,2183,8_S
1779267419.467579,2055,2268,8_S
1779267419.4689531,2065,2217,8_S
1779267419.4717371,2041,2146,8_S
1779267419.4731169,2016,2155,8_S
1779267419.4822268,1963,2255,8_S
1779267419.482502,1963,2198,8_S
1779267419.4855502,2066,2193,8_S
1779267419.4881,2036,2216,8_S
1779267419.48843,1980,2182,8_S
1779267419.4892328,1891,2129,8_S
1779267419.491311,1787,2223,8_S
1779267419.491641,2080,2229,8_S
1779267419.497758,2102,2283,8_S
1779267419.498253,1916,2263,8_S
1779267419.49901,1864,2274,8_S
1779267419.499388,1912,2203,8_S
1779267419.499624,1917,2269,8_S
1779267419.503492,1945,2249,8_S
1779267419.5036852,1919,2245,8_S
1779267419.5050418,1908,2279,8_S
1779267419.506714,1892,2262,8_S
1779267419.511467,2112,2250,8_S
1779267419.512256,2016,2256,8_S
1779267419.5166788,2015,2151,8_S
1779267419.517298,1964,2254,8_S
1779267419.519766,2005,2180,8_S
1779267419.5224261,2145,2209,8_S
1779267419.522838,1971,2138,8_S
1779267419.5290382,1932,2140,8_S
1779267419.5295,2111,2235,8_S
1779267419.529832,2155,2227,8_S
1779267419.530089,1922,2168,8_S
1779267419.533744,1943,2099,8_S
1779267419.533914,1975,2186,8_S
1779267419.535415,1826,2133,8_S
1779267419.53711,2119,2210,8_S
1779267419.5387259,2035,2293,8_S
1779267419.541607,1867,2395,8_S
1779267419.5524302,2057,2371,8_S
1779267419.5528388,1915,2399,8_S
1779267419.553119,1957,2504,8_S
1779267419.564078,2071,2395,8_S
1779267419.5647519,2094,2348,8_S
1779267419.565538,2048,2266,8_S
1779267419.565956,2104,2459,8_S
1779267419.5663092,2096,2489,8_S
1779267419.569083,2103,2474,8_S
1779267419.5701919,2049,2304,8_S
1779267419.57056,2039,2246,8_S
1779267419.570645,2181,2383,8_S
1779267419.57075,2274,2410,8_S
1779267419.570894,1973,2258,8_S
1779267419.570973,2304,2356,8_S
1779267419.578909,2149,2383,8_S
1779267419.583138,2020,2514,8_S
1779267419.585217,1910,2612,8_S
1779267419.589016,2044,2534,8_S
1779267419.589322,2130,2503,8_S
1779267419.5955682,2103,2463,8_S
1779267419.5962088,1951,2441,8_S
1779267419.59671,2017,2539,8_S
1779267419.599862,2050,2520,8_S
1779267419.6009312,1970,2395,8_S
1779267419.6010098,2007,2333,8_S
1779267419.601079,2134,2324,8_S
1779267419.601148,2083,2228,8_S
1779267419.6012118,1941,2285,8_S
1779267419.601323,2171,2253,8_S
1779267419.602705,2090,2245,8_S
1779267419.605341,1852,2274,8_S
1779267419.606709,2116,2398,8_S
1779267419.618078,2092,2348,8_S
1779267419.621204,1990,2159,8_S
1779267419.623446,2055,2140,8_S
1779267419.6297522,2021,2200,8_S
1779267419.630431,1906,2177,8_S
1779267419.630899,1827,2142,8_S
1779267419.631267,2069,2149,8_S
1779267419.6348128,2155,2189,8_S
1779267419.63538,2041,2291,8_S
1779267419.635629,2056,2193,8_S
1779267419.635755,2217,2040,8_S
1779267419.635829,2125,1997,8_S
1779267419.635891,2065,1977,8_S
1779267419.63595,2000,1873,8_S
1779267419.6372979,2117,1892,8_S
1779267419.6436741,2122,2104,8_S
1779267419.6446679,2029,2059,8_S
1779267419.646656,2109,2034,8_S
1779267419.649292,2101,2039,8_S
1779267419.649704,2182,2108,8_S
1779267419.649994,2130,2001,8_S
1779267419.654709,2097,1944,8_S
1779267419.6608691,2033,1817,8_S
1779267419.6611662,2022,1898,8_S
1779267419.661317,2046,2072,8_S
1779267419.6617239,2087,2065,8_S
1779267419.665411,2024,2079,8_S
1779267419.665946,2015,2018,8_S
1779267419.666042,2036,2007,8_S
1779267419.667416,2057,1921,8_S
1779267419.668833,2044,1913,8_S
1779267419.671576,2054,2114,8_S
1779267419.673296,2024,2307,8_S
1779267419.679868,1946,2295,8_S
1779267419.6800792,1982,2185,8_S
1779267419.681639,1967,2167,8_S
1779267419.6853938,1991,2267,8_S
1779267419.6890612,2137,2244,8_S
1779267419.696747,2001,2090,8_S
1779267419.697516,2014,2070,8_S
1779267419.701505,2078,2262,8_S
1779267419.702302,2108,2429,8_S
1779267419.7026188,2134,2369,8_S
1779267419.7026932,2082,2275,8_S
1779267419.7027571,2065,2145,8_S
1779267419.7028182,2004,2108,8_S
1779267419.702879,2134,1891,8_S
1779267419.7029362,2151,1971,8_S
1779267419.714206,1918,2067,8_S
1779267419.7172852,2000,2202,8_S
1779267419.717765,2286,2359,8_S
1779267419.7180412,1919,2168,8_S
1779267419.718278,2043,2160,8_S
1779267419.720234,1964,2290,8_S
1779267419.7210681,1900,2055,8_S
1779267419.72945,2037,1880,8_S
1779267419.7297668,2071,2029,8_S
1779267419.7301672,1954,2196,8_S
1779267419.730595,1989,2163,8_S
1779267419.7310898,2056,2084,8_S
1779267419.735213,1944,1947,8_S
1779267419.735323,1957,1908,8_S
1779267419.735404,1991,1600,8_S
1779267419.735543,2011,1427,8_S
1779267419.736959,1958,1560,8_S
1779267419.739608,2032,1795,8_S
1779267419.74134,2052,2161,8_S
1779267419.748232,1998,2079,8_S
1779267419.749084,2013,2012,8_S
1779267419.750543,2002,2025,8_S
1779267419.751313,2047,1993,8_S
1779267419.753819,2052,1751,8_S
1779267419.7544441,1955,1866,8_S
1779267419.757555,1979,2087,8_S
1779267419.757813,2064,2263,8_S
1779267419.759758,2016,1963,8_S
1779267419.765939,1907,1778,8_S
1779267419.766216,1822,1771,8_S
1779267419.76673,1958,1833,8_S
1779267419.766985,1954,1389,8_S
1779267419.7715788,1923,1313,8_S
1779267419.771852,2384,1611,8_S
1779267419.7732968,2177,2074,8_S
1779267419.774648,1983,1882,8_S
1779267419.782263,2159,1691,8_S
1779267419.783371,2259,1555,8_S
1779267419.784231,2244,1630,8_S
1779267419.785168,2179,1401,8_S
1779267419.786144,2063,1202,8_S
1779267419.789144,2020,1369,8_S
1779267419.789574,1960,1786,8_S
1779267419.793491,1993,1904,8_S
1779267419.7937732,1900,1608,8_S
1779267419.796171,1932,1426,8_S
1779267419.803599,2215,1641,8_S
1779267419.808078,2094,1623,8_S
1779267419.809221,1912,1183,8_S
1779267419.809891,1976,1241,8_S
1779267419.810055,1953,1672,8_S
1779267419.81013,1791,1956,8_S
1779267419.8102012,2215,1655,8_S
1779267419.811548,2076,1452,8_S
1779267419.812711,2338,1532,8_S
1779267419.815583,2362,1613,8_S
1779267419.817033,2007,1173,8_S
1779267419.818968,2196,1207,8_S
1779267419.8274848,2426,1627,8_S
1779267419.828562,2146,1915,8_S
1779267419.8323789,1940,1706,8_S
1779267419.832862,1888,1393,8_S
1779267419.844165,1903,1269,8_S
1779267419.848945,1953,1384,8_S
1779267419.849071,1944,1184,8_S
1779267419.849138,1961,1178,8_S
1779267419.849256,2032,1241,8_S
1779267419.849348,2094,1595,8_S
1779267419.849417,2009,1509,8_S
1779267419.849482,1991,1250,8_S
1779267419.849546,2137,1055,8_S
1779267419.849608,2032,1165,8_S
1779267419.849667,1993,911,8_S
1779267419.8513799,1989,1064,8_S
1779267419.8597848,2136,1222,8_S
1779267419.8628852,2052,1143,8_S
1779267419.8632,2088,1571,8_S
1779267419.874767,1916,1409,8_S
1779267419.879384,1700,1179,8_S
1779267419.879485,2210,1114,8_S
1779267419.8795588,2032,1092,8_S
1779267419.8796642,1814,905,8_S
1779267419.879735,1714,1298,8_S
1779267419.8798048,1973,1027,8_S
1779267419.879872,1923,1687,8_S
1779267419.879936,1984,1617,8_S
1779267419.880001,2601,1415,8_S
1779267419.880061,1830,1355,8_S
1779267419.881453,2146,1358,8_S
1779267419.882873,2270,939,8_S
1779267419.885601,2085,1350,8_S
1779267419.8870962,2218,1269,8_S
1779267419.888803,1973,1452,8_S
1779267419.903511,2395,1625,8_S
1779267419.904754,2075,1414,8_S
1779267419.9133508,1554,1115,8_S
1779267419.9169621,1676,965,8_S
1779267419.917931,2658,707,8_S
1779267419.918391,2017,1256,8_S
1779267419.918536,1993,1367,8_S
1779267419.918612,2242,1148,8_S
1779267419.918684,1891,1454,8_S
1779267419.918793,2070,1312,8_S
1779267419.91887,2146,1136,8_S
1779267419.918936,1899,1239,8_S
1779267419.918999,1841,1254,8_S
1779267419.9190578,1957,985,8_S
1779267419.919123,2697,1421,8_S
1779267419.9204962,1771,1101,8_S
1779267419.927416,1544,1662,8_S
1779267419.927698,1955,1654,8_S
1779267419.928381,2823,1359,8_S
1779267419.931942,2410,1253,8_S
1779267419.9325728,2002,1173,8_S
1779267419.932817,1873,802,8_S
1779267419.935318,1921,1435,8_S
1779267419.9379041,2265,1325,8_S
1779267419.944126,2389,1254,8_S
1779267419.944602,1774,1803,8_S
1779267419.9449081,1909,1403,8_S
1779267419.9452548,1768,1191,8_S
1779267419.950062,2257,1348,8_S
1779267419.950163,1976,811,8_S
1779267419.951533,1285,1322,8_S
1779267419.9528818,2348,1484,8_S
1779267419.955519,2369,900,8_S
1779267419.9568808,2071,1739,8_S
1779267419.967287,2469,1562,8_S
1779267419.968988,2025,1241,8_S
1779267419.975167,1928,1016,8_S
1779267419.97842,2234,725,8_S
1779267419.978785,2238,1125,8_S
1779267419.9792361,2008,1545,8_S
1779267419.985764,2036,1151,8_S
1779267419.9861171,2166,1451,8_S
1779267419.986638,1723,1555,8_S
1779267419.987034,2101,1279,8_S
1779267419.987233,2156,969,8_S
1779267419.987458,2016,821,8_S
1779267419.987888,2140,834,8_S
1779267419.988169,1860,1488,8_S
1779267419.988543,1777,1321,8_S
1779267419.992629,2144,829,8_S
1779267419.993044,1682,1381,8_S
1779267419.993223,2292,1263,8_S
1779267419.994378,2254,983,8_S
1779267420.004195,2088,831,8_S
1779267420.012297,2200,443,8_S
1779267420.012573,1960,1323,8_S
1779267420.015896,2154,1428,8_S
1779267420.016327,2365,824,8_S
1779267420.022764,2265,1525,8_S
1779267420.023055,1585,1585,8_S
1779267420.023443,1996,1358,8_S
1779267420.024478,2526,1077,8_S
1779267420.024755,1812,683,8_S
1779267420.0279958,1897,1145,8_S
1779267420.029232,1706,1542,8_S
1779267420.029432,1783,1130,8_S
1779267420.029589,2103,1573,8_S
1779267420.029691,2170,1888,8_S
1779267420.029758,1960,1760,8_S
1779267420.0298188,2068,1383,8_S
1779267420.031223,2207,1213,8_S
1779267420.032573,2130,917,8_S
1779267420.035181,2132,1637,8_S
1779267420.0365171,2168,1454,8_S
1779267420.0459478,2132,1341,8_S
1779267420.0475252,2098,1961,8_S
1779267420.0514472,2061,1840,8_S
1779267420.05179,1996,1523,8_S
1779267420.0523012,1947,1354,8_S
1779267420.054625,2135,643,8_S
1779267420.055507,2124,1609,8_S
1779267420.058679,2084,1701,8_S
1779267420.06369,2044,952,8_S
1779267420.0680718,2035,1973,8_S
1779267420.068171,2055,1927,8_S
1779267420.0682912,2051,1632,8_S
1779267420.068352,1969,1440,8_S
1779267420.068722,1924,1129,8_S
1779267420.0688682,2007,1391,8_S
1779267420.068969,1994,1874,8_S
1779267420.079388,2009,1374,8_S
1779267420.090955,1991,2056,8_S
1779267420.09514,2062,2225,8_S
1779267420.095516,2071,1964,8_S
1779267420.095629,2045,1680,8_S
1779267420.0957398,2037,1509,8_S
1779267420.095808,2029,1102,8_S
1779267420.095872,1997,1961,8_S
1779267420.095932,1996,1739,8_S
1779267420.095992,2009,1797,8_S
1779267420.096052,2085,2352,8_S
1779267420.096113,1945,2076,8_S
1779267420.096172,2005,1757,8_S
1779267420.0975418,1915,1630,8_S
1779267420.098762,1902,1034,8_S
1779267420.1014452,1873,1884,8_S
1779267420.107897,1965,2000,8_S
1779267420.109401,1844,1472,8_S
1779267420.110871,1822,2437,8_S
1779267420.111557,2022,2186,8_S
1779267420.116588,1547,1907,8_S
1779267420.119583,1944,1797,8_S
1779267420.124303,2215,1549,8_S
1779267420.1247292,2268,1616,8_S
1779267420.1251688,1798,2176,8_S
1779267420.125537,1735,1595,8_S
1779267420.126047,2227,2532,8_S
1779267420.126257,2375,2491,8_S
1779267420.129926,2349,1842,8_S
1779267420.1301382,1606,1903,8_S
1779267420.1314938,1743,1872,8_S
1779267420.133109,1959,1233,8_S
1779267420.1398249,1870,2207,8_S
1779267420.141738,2194,1963,8_S
1779267420.145015,1893,2196,8_S
1779267420.1476128,1912,2574,8_S
1779267420.155272,1848,1934,8_S
1779267420.155638,2026,1925,8_S
1779267420.15593,1959,1902,8_S
1779267420.15613,1849,1326,8_S
1779267420.159916,2161,2032,8_S
1779267420.16038,2210,2194,8_S
1779267420.160515,2071,1812,8_S
1779267420.1605928,1999,2725,8_S
1779267420.160699,1713,2175,8_S
1779267420.1608489,1934,1791,8_S
1779267420.162324,2473,2001,8_S
1779267420.1649501,2226,1782,8_S
1779267420.166328,1855,1678,8_S
1779267420.174155,1929,2301,8_S
1779267420.177689,1973,1712,8_S
1779267420.178177,2034,2715,8_S
1779267420.181184,1961,2545,8_S
1779267420.181382,1937,1751,8_S
1779267420.183445,1743,1918,8_S
1779267420.1882071,2038,1887,8_S
1779267420.188446,1923,1256,8_S
1779267420.188755,1849,2278,8_S
1779267420.1891031,1888,2040,8_S
1779267420.189578,1774,2494,8_S
1779267420.192977,2318,2742,8_S
1779267420.193389,2105,1868,8_S
1779267420.194726,2041,1914,8_S
1779267420.202715,2085,1998,8_S
1779267420.215882,1824,1472,8_S
1779267420.21613,1956,2071,8_S
1779267420.216418,2387,2237,8_S
1779267420.216705,1888,2182,8_S
1779267420.216874,2082,2978,8_S
1779267420.217309,1902,2120,8_S
1779267420.217707,1916,1790,8_S
1779267420.2211,2067,2068,8_S
1779267420.221847,2041,1801,8_S
1779267420.221947,1770,1733,8_S
1779267420.222027,1846,2314,8_S
1779267420.222184,2285,1683,8_S
1779267420.2222972,1904,2872,8_S
1779267420.22493,2175,2500,8_S
1779267420.2263172,2108,1731,8_S
1779267420.228912,2070,2031,8_S
1779267420.2345989,2104,1959,8_S
1779267420.236078,2050,1311,8_S
1779267420.236823,1933,2310,8_S
1779267420.239742,1943,2037,8_S
1779267420.239892,1901,2526,8_S
1779267420.242244,2029,2783,8_S
1779267420.2429938,1917,1832,8_S
1779267420.2445052,1853,1929,8_S
1779267420.24858,2063,2231,8_S
1779267420.248875,2215,1530,8_S
1779267420.2513258,2144,2102,8_S
1779267420.252681,2210,2263,8_S
1779267420.259292,2138,2082,8_S
1779267420.259871,1908,2928,8_S
1779267420.262644,2024,2110,8_S
1779267420.263047,2184,1762,8_S
1779267420.263235,2007,2198,8_S
1779267420.265106,2252,1912,8_S
1779267420.267078,1768,1724,8_S
1779267420.271016,1818,2349,8_S
1779267420.274543,1992,1740,8_S
1779267420.2746172,2242,2937,8_S
1779267420.2746701,1945,2513,8_S
1779267420.277279,1937,1713,8_S
1779267420.278605,2041,2031,8_S
1779267420.285892,2091,2032,8_S
1779267420.2929769,2144,1284,8_S
1779267420.293173,1972,2321,8_S
1779267420.297504,1886,2075,8_S
1779267420.301135,2144,2682,8_S
1779267420.301197,2105,2805,8_S
1779267420.301249,2088,1831,8_S
1779267420.3013,1908,1909,8_S
1779267420.3013492,1825,2076,8_S
1779267420.301398,2308,1416,8_S
1779267420.3014479,2133,2113,8_S
1779267420.3035579,1951,2257,8_S
1779267420.3224478,2197,2199,8_S
1779267420.322857,2089,2945,8_S
1779267420.323195,1852,2091,8_S
1779267420.323885,2158,1774,8_S
1779267420.324259,2179,2031,8_S
1779267420.327264,1929,1706,8_S
1779267420.327717,2000,1770,8_S
1779267420.327816,1978,2326,8_S
1779267420.3279,2056,1668,8_S
1779267420.327977,2074,2806,8_S
1779267420.3284428,2037,2470,8_S
1779267420.328542,2068,1718,8_S
1779267420.3286788,2040,2038,8_S
1779267420.3313332,2056,1910,8_S
1779267420.332694,1986,1336,8_S
1779267420.3525949,1928,2322,8_S
1779267420.353639,2009,2033,8_S
1779267420.356865,2090,2581,8_S
1779267420.35697,2251,2759,8_S
1779267420.3570461,2123,1820,8_S
1779267420.3571131,1958,1924,8_S
1779267420.357216,1864,2079,8_S
1779267420.357287,1934,1436,8_S
1779267420.357347,2157,2128,8_S
1779267420.357444,2098,2244,8_S
1779267420.357557,2178,2123,8_S
1779267420.3577201,2209,2956,8_S
1779267420.3592582,1813,2072,8_S
1779267420.365865,1982,1773,8_S
1779267420.36874,2236,2146,8_S
1779267420.3691468,2261,1772,8_S
1779267420.372361,2111,1780,8_S
1779267420.378979,1685,2338,8_S
1779267420.379193,1281,1690,8_S
1779267420.379271,2446,2844,8_S
1779267420.379564,2382,2471,8_S
1779267420.379631,2959,1710,8_S
1779267420.3796852,1802,2189,8_S
1779267420.383958,1354,2081,8_S
1779267420.384059,2022,1325,8_S
1779267420.385474,2776,2344,8_S
1779267420.38715,2378,2071,8_S
1779267420.3885388,2165,2744,8_S
1779267420.391288,1616,2927,8_S
1779267420.4005508,1847,1792,8_S
1779267420.40095,2365,1922,8_S
1779267420.401377,2485,2170,8_S
1779267420.403753,1884,1680,8_S
1779267420.4058921,1029,2124,8_S
1779267420.406322,1766,2267,8_S
1779267420.411199,2303,2188,8_S
1779267420.414783,2713,3102,8_S
1779267420.415277,2781,2069,8_S
1779267420.41545,1553,1768,8_S
1779267420.4155881,1537,2537,8_S
1779267420.41569,1078,2027,8_S
1779267420.417078,3466,1751,8_S
1779267420.423073,3915,2382,8_S
1779267420.426621,43,2340,8_S
1779267420.428978,934,3275,8_S
1779267420.429375,2773,2462,8_S
1779267420.430109,2382,1744,8_S
1779267420.431836,2974,2263,8_S
1779267420.432109,1449,2336,8_S
1779267420.436579,1871,1319,8_S
1779267420.436967,3048,2330,8_S
1779267420.437299,2803,2057,8_S
1779267420.440769,1744,3253,8_S
1779267420.44106,1254,2877,8_S
1779267420.4426591,2116,1804,8_S
1779267420.445407,2505,1987,8_S
1779267420.446672,1493,2484,8_S
1779267420.452248,2744,2055,8_S
1779267420.45361,3298,2092,8_S
1779267420.4551349,1929,2256,8_S
1779267420.4655108,1956,2700,8_S
1779267420.4659688,2453,3230,8_S
1779267420.466742,2934,2077,8_S
1779267420.467249,2362,1826,8_S
1779267420.470588,1865,2700,8_S
1779267420.470658,1827,2473,8_S
1779267420.470711,1986,1712,8_S
1779267420.4708722,1669,2356,8_S
1779267420.470933,3577,2562,8_S
1779267420.4726038,2283,3783,8_S
1779267420.478215,2175,2434,8_S
1779267420.480232,2844,1787,8_S
1779267420.482837,1887,2346,8_S
1779267420.483238,2925,2892,8_S
1779267420.4854872,2624,2321,8_S
1779267420.48639,1417,2360,8_S
1779267420.492463,2114,3228,8_S
1779267420.492938,2160,4095,8_S
1779267420.4933062,2060,2929,8_S
1779267420.493563,2845,2041,8_S
1779267420.497163,1954,2274,8_S
1779267420.497248,2908,3345,8_S
1779267420.4987001,3637,3616,8_S
1779267420.501436,2641,2936,8_S
1779267420.502805,2123,3479,8_S
1779267420.509697,2266,4095,8_S
1779267420.513314,1928,3575,8_S
1779267420.51355,3005,2578,8_S
1779267420.5178409,1980,2461,8_S
1779267420.522516,1714,3147,8_S
1779267420.523029,1927,4095,8_S
1779267420.5236201,2115,4095,8_S
1779267420.523972,2608,4095,8_S
1779267420.524281,1950,4095,8_S
1779267420.5272388,2556,4095,8_S
1779267420.52758,2001,3437,8_S
1779267420.5277,2465,3132,8_S
1779267420.5290968,2134,3330,8_S
1779267420.535608,2349,3865,8_S
1779267420.536394,729,4095,8_S
1779267420.538773,2120,4095,8_S
1779267420.539337,3441,4095,8_S
1779267420.5397482,1756,4095,8_S
1779267420.5438888,1330,3924,8_S
1779267420.548827,2534,3647,8_S
1779267420.5494242,2161,3621,8_S
1779267420.549699,2210,3820,8_S
1779267420.5504582,2346,4095,8_S
1779267420.552784,1949,4095,8_S
1779267420.5538418,2871,4095,8_S
1779267420.5552099,1394,4095,8_S
1779267420.556557,1512,4095,8_S
1779267420.559176,2579,3921,8_S
1779267420.566493,1975,3837,8_S
1779267420.569057,1134,3885,8_S
1779267420.571187,2061,4022,8_S
1779267420.572991,3730,4095,8_S
1779267420.575308,2380,4095,8_S
1779267420.57566,1241,4095,8_S
1779267420.5817611,1680,4095,8_S
1779267420.5825129,2363,4041,8_S
1779267420.5856981,2586,3971,8_S
1779267420.5862122,2404,3960,8_S
1779267420.586297,1517,4011,8_S
1779267420.586369,1864,4085,8_S
1779267420.5864608,1260,4095,8_S
1779267420.586569,3365,4095,8_S
1779267420.595479,1866,4095,8_S
1779267420.596456,1586,4086,8_S
1779267420.59878,2013,4037,8_S
1779267420.599335,2354,4010,8_S
1779267420.59989,1697,4014,8_S
1779267420.6033401,1910,4003,8_S
1779267420.605418,2027,3724,8_S
1779267420.6107311,1755,3689,8_S
1779267420.61147,3564,3753,8_S
1779267420.6117601,1431,3744,8_S
1779267420.612313,2232,3025,8_S
1779267420.615405,3106,3449,8_S
1779267420.615467,1789,3233,8_S
1779267420.6155179,1094,2585,8_S
1779267420.616885,1893,2471,8_S
1779267420.6183228,2113,2529,8_S
1779267420.621103,3028,2695,8_S
1779267420.630233,1541,2375,8_S
1779267420.632735,1626,2175,8_S
1779267420.633282,2310,2264,8_S
1779267420.636609,2800,2412,8_S
1779267420.638999,2361,2316,8_S
1779267420.644278,1962,2181,8_S
1779267420.644642,1779,2134,8_S
1779267420.6453729,1428,2000,8_S
1779267420.64624,2902,2216,8_S
1779267420.6491241,2195,2149,8_S
1779267420.649459,2001,2058,8_S
1779267420.649581,1188,1902,8_S
1779267420.649683,2572,2016,8_S
1779267420.649746,2551,2084,8_S
1779267420.651079,2613,1859,8_S
1779267420.659022,2424,1952,8_S
1779267420.661793,1900,1977,8_S
1779267420.6622322,1710,2027,8_S
1779267420.664948,2040,1850,8_S
1779267420.667915,1830,1988,8_S
1779267420.675905,2160,1843,8_S
1779267420.676714,1559,1921,8_S
1779267420.677122,1952,1735,8_S
1779267420.677252,2355,1814,8_S
1779267420.677314,2151,1866,8_S
1779267420.677367,1513,1884,8_S
1779267420.677494,1969,1869,8_S
1779267420.6776588,1775,1693,8_S
1779267420.679148,2938,1723,8_S
1779267420.680566,2067,2012,8_S
1779267420.683288,1924,1784,8_S
1779267420.691247,1429,1835,8_S
1779267420.691916,1957,1837,8_S
1779267420.694131,2251,1800,8_S
1779267420.694368,1974,1825,8_S
1779267420.694756,1704,1808,8_S
1779267420.695023,2982,1973,8_S
1779267420.699147,1623,1824,8_S
1779267420.704829,2448,1765,8_S
1779267420.7053928,1768,1874,8_S
1779267420.706066,2166,1743,8_S
1779267420.706847,1368,1885,8_S
1779267420.7106502,1450,1955,8_S
1779267420.710786,2499,1839,8_S
1779267420.710958,2061,1784,8_S
1779267420.712356,1795,1871,8_S
1779267420.723297,1728,1797,8_S
1779267420.725208,1701,1726,8_S
1779267420.726609,1754,1823,8_S
1779267420.728555,1424,1899,8_S
1779267420.735028,1928,1820,8_S
1779267420.735435,4011,1951,8_S
1779267420.735894,1509,2130,8_S
1779267420.736831,1010,1959,8_S
1779267420.7408488,1770,1844,8_S
1779267420.741002,1877,1859,8_S
1779267420.7411342,1842,1801,8_S
1779267420.741199,1905,1998,8_S
1779267420.7413151,1802,1910,8_S
1779267420.741426,1850,1959,8_S
1779267420.742836,1282,1737,8_S
1779267420.744192,2004,1581,8_S
1779267420.747218,2311,1780,8_S
1779267420.753398,2140,1902,8_S
1779267420.757034,2119,1906,8_S
1779267420.757505,1995,1798,8_S
1779267420.757837,1988,1819,8_S
1779267420.760813,1945,1716,8_S
1779267420.7630908,1933,1852,8_S
1779267420.763476,2272,1930,8_S
1779267420.76861,2048,1723,8_S
1779267420.769012,2022,1919,8_S
1779267420.769587,1324,2039,8_S
1779267420.769891,2582,1837,8_S
1779267420.773074,1995,1947,8_S
1779267420.773213,2007,1968,8_S
1779267420.774552,1913,1846,8_S
1779267420.781632,1978,1840,8_S
1779267420.7824562,1979,2003,8_S
1779267420.783793,1826,1812,8_S
1779267420.786123,2206,1872,8_S
1779267420.786772,1856,1935,8_S
1779267420.789511,1618,1934,8_S
1779267420.791465,1988,1921,8_S
1779267420.79674,1980,1829,8_S
1779267420.797238,2422,1565,8_S
1779267420.797981,1821,1540,8_S
1779267420.798248,1793,1599,8_S
1779267420.801406,2020,1290,8_S
1779267420.801939,1907,1253,8_S
1779267420.802148,2758,1258,8_S
1779267420.8048792,3041,1377,8_S
1779267420.8062809,1376,1443,8_S
1779267420.8093061,1357,1539,8_S
1779267420.8156679,1694,1448,8_S
1779267420.8214898,2521,1470,8_S
1779267420.82894,1734,1580,8_S
1779267420.8294451,1174,1620,8_S
1779267420.829736,1807,1486,8_S
1779267420.830373,3673,1481,8_S
1779267420.8306959,1433,1665,8_S
1779267420.831143,1345,1652,8_S
1779267420.8313081,1939,1609,8_S
1779267420.834822,2240,1589,8_S
1779267420.8349068,1996,1816,8_S
1779267420.834978,1895,1815,8_S
1779267420.8350458,1729,1786,8_S
1779267420.836416,1708,1671,8_S
1779267420.843251,1935,1860,8_S
1779267420.8445282,1895,1848,8_S
1779267420.8454132,2051,1756,8_S
1779267420.848635,2086,1696,8_S
1779267420.850799,2015,1701,8_S
1779267420.85236,2196,1888,8_S
1779267420.860509,2355,1825,8_S
1779267420.8609438,1677,1774,8_S
1779267420.8612218,1786,1759,8_S
1779267420.861538,1616,1927,8_S
1779267420.864347,2146,1856,8_S
1779267420.8658218,2166,1915,8_S
1779267420.866268,1998,1849,8_S
1779267420.866501,2365,1928,8_S
1779267420.867003,1967,1958,8_S
1779267420.8683782,1727,1878,8_S
1779267420.871053,1901,1891,8_S
1779267420.872852,1794,1925,8_S
1779267420.881519,1966,1900,8_S
1779267420.881692,2723,1950,8_S
1779267420.883956,2219,1909,8_S
1779267420.884234,1735,1908,8_S
1779267420.884475,1822,1909,8_S
1779267420.889643,1951,1894,8_S
1779267420.89009,1984,1927,8_S
1779267420.89612,1978,1918,8_S
1779267420.896424,2023,1958,8_S
1779267420.896926,1914,1881,8_S
1779267420.897441,2116,1849,8_S
1779267420.89772,1765,1898,8_S
1779267420.901271,1694,2044,8_S
1779267420.9016168,2638,1979,8_S
1779267420.903185,1769,1947,8_S
1779267420.910482,1335,1943,8_S
1779267420.911839,3912,2013,8_S
1779267420.914837,2105,2106,8_S
1779267420.9173892,1455,1949,8_S
1779267420.918419,1898,2049,8_S
1779267420.9203908,1550,2125,8_S
1779267420.926475,1846,2020,8_S
1779267420.9271328,2478,1930,8_S
1779267420.927522,1904,1947,8_S
1779267420.927886,1727,2127,8_S
1779267420.928189,1823,2107,8_S
1779267420.930867,2051,2042,8_S
1779267420.9320488,2169,2006,8_S
1779267420.932127,2125,2046,8_S
1779267420.9322739,2344,2091,8_S
1779267420.934985,1344,2051,8_S
1779267420.9363682,1993,2097,8_S
1779267420.939393,3304,2146,8_S
1779267420.94616,1857,2107,8_S
1779267420.949916,1921,2076,8_S
1779267420.950154,1533,2030,8_S
1779267420.950913,2050,2021,8_S
1779267420.953108,2329,2001,8_S
1779267420.954112,2115,2034,8_S
1779267420.9560692,1762,2064,8_S
1779267420.956477,1802,2044,8_S
1779267420.962486,1997,2040,8_S
1779267420.9627771,1775,2065,8_S
1779267420.963199,1748,2043,8_S
1779267420.963754,2425,1944,8_S
1779267420.967325,2129,1975,8_S
1779267420.967617,2118,1954,8_S
1779267420.968964,2058,1915,8_S
1779267420.970301,2006,1971,8_S
1779267420.9769459,1936,1998,8_S
1779267420.977723,1983,2033,8_S
1779267420.978421,1989,1948,8_S
1779267420.978591,2091,1901,8_S
1779267420.981899,2197,2007,8_S
1779267420.984489,2056,2023,8_S
1779267420.9853718,2172,1969,8_S
1779267420.987365,2011,1980,8_S
1779267420.9935691,1898,2042,8_S
1779267420.993973,1874,2087,8_S
1779267420.9942951,2507,2105,8_S
1779267420.994716,1805,1993,8_S
1779267420.9983401,2026,1997,8_S
1779267420.9984262,2400,1969,8_S
1779267421.0011861,2365,2002,8_S
1779267421.002558,1738,2173,8_S
1779267421.0040362,1740,2035,8_S
1779267421.013679,2214,2061,8_S
1779267421.019306,2146,2079,8_S
1779267421.0202901,1968,2047,8_S
1779267421.0206752,2005,2094,8_S
1779267421.02274,1967,2188,8_S
1779267421.023027,2011,2163,8_S
1779267421.023346,2254,2113,8_S
1779267421.0292401,1987,2116,8_S
1779267421.029543,2543,2157,8_S
1779267421.029831,2441,2108,8_S
1779267421.030435,1818,2162,8_S
1779267421.030664,1845,2119,8_S
1779267421.031144,2070,2174,8_S
1779267421.034601,2289,2200,8_S
1779267421.034989,1879,2191,8_S
1779267421.036361,2084,2184,8_S
1779267421.0446951,2048,2147,8_S
1779267421.046135,2001,2261,8_S
1779267421.0491462,2034,2166,8_S
1779267421.052429,2024,2087,8_S
1779267421.054369,2184,2065,8_S
1779267421.054705,2230,2116,8_S
1779267421.060549,2047,2050,8_S
1779267421.060817,2028,2003,8_S
1779267421.061428,2004,2002,8_S
1779267421.0620291,2029,2123,8_S
1779267421.062509,2168,2172,8_S
1779267421.062953,1997,2128,8_S
1779267421.066679,2108,2101,8_S
1779267421.0675142,2066,2188,8_S
1779267421.067613,1890,2168,8_S
1779267421.069417,2154,2126,8_S
1779267421.0707939,2250,2115,8_S
1779267421.072202,2062,2148,8_S
1779267421.080876,1998,2142,8_S
1779267421.081516,1934,2046,8_S
1779267421.0851068,2198,2061,8_S
1779267421.085666,2190,2157,8_S
1779267421.0857751,1966,2229,8_S
1779267421.0881689,1956,2100,8_S
1779267421.10065,2017,2156,8_S
1779267421.100811,2113,2118,8_S
1779267421.1008902,2008,2079,8_S
1779267421.100965,1983,2103,8_S
1779267421.101036,1965,2106,8_S
1779267421.101102,2159,2130,8_S
1779267421.1012108,2237,2164,8_S
1779267421.101299,2046,2107,8_S
1779267421.102668,2016,2146,8_S
1779267421.113182,1931,2122,8_S
1779267421.113476,2020,2161,8_S
1779267421.116054,2080,2202,8_S
1779267421.116276,2021,2174,8_S
1779267421.1244311,1994,2121,8_S
1779267421.125189,1989,2192,8_S
1779267421.12567,1980,2171,8_S
1779267421.126013,2124,2162,8_S
1779267421.129663,2160,2089,8_S
1779267421.130718,2082,2144,8_S
1779267421.130831,1995,2183,8_S
1779267421.1309462,2081,2133,8_S
1779267421.131017,2174,2073,8_S
1779267421.1311328,2194,2155,8_S
1779267421.13252,1951,2175,8_S
1779267421.1351511,1918,2251,8_S
1779267421.1366599,2037,2156,8_S
1779267421.144752,2151,2112,8_S
1779267421.1465678,2250,2184,8_S
1779267421.1467571,2072,2203,8_S
1779267421.150184,2059,2106,8_S
1779267421.150571,2005,2120,8_S
1779267421.151177,1687,2186,8_S
1779267421.151519,2015,2195,8_S
1779267421.155176,2239,2107,8_S
1779267421.1578822,2131,2134,8_S
1779267421.1648052,1921,2144,8_S
1779267421.165238,2062,2139,8_S
1779267421.165587,2137,2116,8_S
1779267421.165923,2332,2076,8_S
1779267421.166238,2178,2175,8_S
1779267421.166592,1946,2133,8_S
1779267421.1701021,2299,2048,8_S
1779267421.170273,2045,2104,8_S
1779267421.173162,2007,2169,8_S
1779267421.1749701,1999,2394,8_S
1779267421.184553,1985,2219,8_S
1779267421.1875148,2038,2094,8_S
1779267421.188079,2105,2187,8_S
1779267421.188242,2094,2236,8_S
1779267421.191252,2067,2172,8_S
1779267421.193368,2030,2122,8_S
1779267421.1958668,2147,2240,8_S
1779267421.196222,2085,2203,8_S
1779267421.196543,2161,2092,8_S
1779267421.203348,2090,2213,8_S
1779267421.203611,1961,2266,8_S
1779267421.204046,2023,2203,8_S
1779267421.204533,2082,2202,8_S
1779267421.2049658,2163,2142,8_S
1779267421.2052622,2053,2098,8_S
1779267421.209415,2016,2148,8_S
1779267421.209853,2073,2150,8_S
1779267421.209975,2120,2147,8_S
1779267421.21386,2047,2116,8_S
1779267421.213941,2021,2257,8_S
1779267421.216615,2042,2274,8_S
1779267421.218038,2100,2137,8_S
1779267421.2268429,2052,2104,8_S
1779267421.2277918,2020,2198,8_S
1779267421.2280252,2001,2282,8_S
1779267421.231989,2038,2239,8_S
1779267421.236065,2072,2177,8_S
1779267421.238571,2096,2120,8_S
1779267421.2388349,2039,2144,8_S
1779267421.2448142,1999,2169,8_S
1779267421.2453902,2027,2147,8_S
1779267421.245704,2039,2190,8_S
1779267421.246037,2028,2267,8_S
1779267421.2462761,2011,2183,8_S
1779267421.2465248,2030,2236,8_S
1779267421.246898,2065,2275,8_S
1779267421.249634,2062,2281,8_S
1779267421.251062,2074,2285,8_S
1779267421.25243,2000,2250,8_S
1779267421.261554,2025,2180,8_S
1779267421.262562,1986,2260,8_S
1779267421.263415,2125,2263,8_S
1779267421.267343,2225,2223,8_S
1779267421.267602,1854,2231,8_S
1779267421.268028,1988,2231,8_S
1779267421.268424,1999,2321,8_S
1779267421.268928,2230,2250,8_S
1779267421.275413,2012,2204,8_S
1779267421.2757719,2016,2274,8_S
1779267421.276103,2081,2233,8_S
1779267421.276462,2040,2233,8_S
1779267421.283168,2006,2224,8_S
1779267421.283593,2051,2190,8_S
1779267421.283984,2034,2150,8_S
1779267421.2841868,1957,2092,8_S
1779267421.287881,2039,2097,8_S
1779267421.2889102,2110,2223,8_S
1779267421.290276,2079,2290,8_S
1779267421.2928839,1991,2224,8_S
1779267421.294251,1976,2191,8_S
1779267421.296889,2084,2224,8_S
1779267421.298524,1826,2311,8_S
1779267421.305917,1721,2309,8_S
1779267421.306201,2405,2235,8_S
1779267421.311218,2369,2209,8_S
1779267421.311628,2140,2425,8_S
1779267421.313886,2011,2473,8_S
1779267421.315337,2083,2480,8_S
1779267421.324864,2185,2421,8_S
1779267421.325331,2127,2372,8_S
1779267421.325784,2120,2366,8_S
1779267421.326248,1955,2315,8_S
1779267421.326966,1876,2272,8_S
1779267421.327262,2012,2352,8_S
1779267421.330976,2125,2334,8_S
1779267421.331829,2117,2267,8_S
1779267421.332155,2019,2257,8_S
1779267421.3324978,2182,2244,8_S
1779267421.3325791,2116,2137,8_S
1779267421.333921,2084,2176,8_S
1779267421.342614,2097,2227,8_S
1779267421.344377,2010,2411,8_S
1779267421.345311,1942,2378,8_S
1779267421.348589,2011,2385,8_S
1779267421.349065,2076,2368,8_S
1779267421.349491,2022,2340,8_S
1779267421.349754,1996,2294,8_S
1779267421.3527691,1821,2182,8_S
1779267421.35616,1911,2158,8_S
1779267421.356432,2018,2182,8_S
1779267421.363057,2306,2068,8_S
1779267421.363348,1964,2064,8_S
1779267421.36374,1933,2085,8_S
1779267421.364036,2233,1984,8_S
1779267421.364321,2271,1994,8_S
1779267421.3687449,2157,1992,8_S
1779267421.3690739,2045,1952,8_S
1779267421.370636,2126,2007,8_S
1779267421.372051,2118,2093,8_S
1779267421.374764,2057,2098,8_S
1779267421.3762372,1932,2041,8_S
1779267421.3875341,1968,2058,8_S
1779267421.392128,2104,1967,8_S
1779267421.392843,2092,1968,8_S
1779267421.396579,2106,1942,8_S
1779267421.4039419,2125,1963,8_S
1779267421.405312,2283,2100,8_S
1779267421.40556,2025,2254,8_S
1779267421.406131,1969,2057,8_S
1779267421.4092999,2011,2001,8_S
1779267421.4102888,2085,1869,8_S
1779267421.410746,1990,2018,8_S
1779267421.410947,1997,2053,8_S
1779267421.411093,1781,2043,8_S
1779267421.411176,1966,2150,8_S
1779267421.4113128,2068,2219,8_S
1779267421.411581,2216,2168,8_S
1779267421.411656,1953,2013,8_S
1779267421.413035,1964,2229,8_S
1779267421.4193559,2216,2167,8_S
1779267421.4201012,2393,2015,8_S
1779267421.4215128,1936,1903,8_S
1779267421.422415,2230,1797,8_S
1779267421.42496,2041,1868,8_S
1779267421.427673,1776,1915,8_S
1779267421.430565,2479,1894,8_S
1779267421.43713,2566,1908,8_S
1779267421.438213,1863,1929,8_S
1779267421.442982,2095,1864,8_S
1779267421.4434361,2017,1882,8_S
1779267421.443634,1913,1987,8_S
1779267421.4437351,1919,2132,8_S
1779267421.4439082,2405,2128,8_S
1779267421.444041,2315,2090,8_S
1779267421.444174,1758,2070,8_S
1779267421.4469178,1870,2109,8_S
1779267421.44827,2080,2174,8_S
1779267421.4512289,2254,1875,8_S
1779267421.458362,1795,2073,8_S
1779267421.459848,2143,2283,8_S
1779267421.462377,1983,2228,8_S
1779267421.4643111,1738,2224,8_S
1779267421.4677498,2240,2235,8_S
1779267421.468108,2080,2164,8_S
1779267421.47344,1795,2081,8_S
1779267421.473957,2203,1801,8_S
1779267421.474302,2438,1825,8_S
1779267421.474674,2668,2008,8_S
1779267421.474914,1729,2206,8_S
1779267421.475148,1805,2324,8_S
1779267421.4788969,2220,2280,8_S
1779267421.4789639,2101,2008,8_S
1779267421.4802969,1905,1961,8_S
1779267421.488425,1953,1873,8_S
1779267421.489991,2300,1739,8_S
1779267421.492181,1925,2007,8_S
1779267421.4926562,1965,2235,8_S
1779267421.495625,2017,2071,8_S
1779267421.495893,2056,1859,8_S
1779267421.497751,2766,1899,8_S
1779267421.502329,1730,1981,8_S
1779267421.5027258,1695,1789,8_S
1779267421.502986,1558,1641,8_S
1779267421.503358,2084,1707,8_S
1779267421.50689,2258,1743,8_S
1779267421.5071669,2112,1741,8_S
1779267421.508502,2073,1651,8_S
1779267421.5109901,2207,1642,8_S
1779267421.512322,2237,1601,8_S
1779267421.519157,2168,1546,8_S
1779267421.5218391,2236,1579,8_S
1779267421.524416,2021,1761,8_S
1779267421.524983,1708,2042,8_S
1779267421.527164,2262,2217,8_S
1779267421.527946,1958,2216,8_S
1779267421.529912,1867,1948,8_S
1779267421.533688,1976,1893,8_S
1779267421.533866,2323,1846,8_S
1779267421.534028,1825,1505,8_S
1779267421.534415,1637,1464,8_S
1779267421.537364,1946,1735,8_S
1779267421.5388422,2162,2055,8_S
1779267421.540374,2212,1848,8_S
1779267421.5459998,1942,1762,8_S
1779267421.547211,1912,1635,8_S
1779267421.549612,1959,1533,8_S
1779267421.549819,1957,1245,8_S
1779267421.550019,2093,1058,8_S
1779267421.5525272,2159,1188,8_S
1779267421.557848,2340,1548,8_S
1779267421.5579772,1820,1651,8_S
1779267421.5584562,1899,1405,8_S
1779267421.561698,1883,1354,8_S
1779267421.563097,1995,1474,8_S
1779267421.564416,2503,1302,8_S
1779267421.56702,2200,973,8_S
1779267421.573835,2069,1080,8_S
1779267421.576274,1706,1442,8_S
1779267421.576457,2177,1537,8_S
1779267421.578492,2193,1288,8_S
1779267421.579294,1826,1110,8_S
1779267421.5794492,2037,1182,8_S
1779267421.584905,1983,1168,8_S
1779267421.585221,2056,827,8_S
1779267421.585558,1895,1029,8_S
1779267421.5884821,1987,1160,8_S
1779267421.588773,2332,1449,8_S
1779267421.590102,2191,1218,8_S
1779267421.596142,1973,1041,8_S
1779267421.597167,1985,1012,8_S
1779267421.599484,1926,1148,8_S
1779267421.599743,2025,971,8_S
1779267421.6000159,2039,1028,8_S
1779267421.6018372,2230,959,8_S
1779267421.603869,2155,1432,8_S
1779267421.60766,1979,1380,8_S
1779267421.608259,2108,1233,8_S
1779267421.611532,2324,1132,8_S
1779267421.612118,1614,1252,8_S
1779267421.6147149,2038,940,8_S
1779267421.616071,2292,1016,8_S
1779267421.623762,2029,1087,8_S
1779267421.6244931,2236,1247,8_S
1779267421.62513,2161,1573,8_S
1779267421.627529,2146,1435,8_S
1779267421.627872,1941,1214,8_S
1779267421.6319108,1825,1141,8_S
1779267421.6357708,1911,1033,8_S
1779267421.63605,1870,947,8_S
1779267421.636329,2159,1220,8_S
1779267421.636656,2155,913,8_S
1779267421.6397061,1949,1503,8_S
1779267421.6399271,2033,1396,8_S
1779267421.64658,2181,976,8_S
1779267421.6477492,2086,951,8_S
1779267421.6505039,2311,1045,8_S
1779267421.650646,2049,746,8_S
1779267421.6508071,1915,1233,8_S
1779267421.653322,1920,1048,8_S
1779267421.658849,1933,1240,8_S
1779267421.6614661,1999,1320,8_S
1779267421.662279,1900,1098,8_S
1779267421.662336,2022,950,8_S
1779267421.662394,2047,1079,8_S
1779267421.6637938,2153,656,8_S
1779267421.666461,1991,1149,8_S
1779267421.6678321,1822,1184,8_S
1779267421.675008,1890,1120,8_S
1779267421.679439,2357,1527,8_S
1779267421.6800268,2081,1299,8_S
1779267421.680528,1736,1125,8_S
1779267421.6847548,2366,1139,8_S
1779267421.689117,2122,1011,8_S
1779267421.689717,2011,1003,8_S
1779267421.6902,1953,1290,8_S
1779267421.6905742,1696,1084,8_S
1779267421.690856,2058,1700,8_S
1779267421.6938481,1943,1553,8_S
1779267421.694307,1994,1425,8_S
1779267421.694413,2051,1273,8_S
1779267421.695801,1965,1231,8_S
1779267421.702116,2035,838,8_S
1779267421.70383,2116,1384,8_S
1779267421.7061162,1971,1176,8_S
1779267421.707809,1857,1658,8_S
1779267421.711133,2150,1704,8_S
1779267421.7150762,1954,1466,8_S
1779267421.7155252,2021,1412,8_S
1779267421.7161322,1971,1512,8_S
1779267421.7165031,1875,1143,8_S
1779267421.718871,1901,1345,8_S
1779267421.7199008,1691,1416,8_S
1779267421.719966,2153,1619,8_S
1779267421.7225401,2373,1974,8_S
1779267421.7239628,2261,1670,8_S
1779267421.730984,2132,1472,8_S
1779267421.7326322,2002,1428,8_S
1779267421.7334578,2152,1311,8_S
1779267421.735564,2217,1214,8_S
1779267421.735918,2058,1553,8_S
1779267421.736256,2188,1478,8_S
1779267421.7408378,2159,2031,8_S
1779267421.7450151,1746,1776,8_S
1779267421.7454798,1725,1518,8_S
1779267421.745919,1826,1421,8_S
1779267421.7465348,1874,1545,8_S
1779267421.7498822,2277,1082,8_S
1779267421.7499928,2181,1597,8_S
1779267421.7574,1987,1370,8_S
1779267421.758259,1850,2058,8_S
1779267421.761338,2089,2005,8_S
1779267421.76177,1743,1616,8_S
1779267421.76406,2347,1400,8_S
1779267421.766433,2537,1548,8_S
1779267421.770408,2071,1260,8_S
1779267421.7709131,1934,1539,8_S
1779267421.771402,2150,1564,8_S
1779267421.772106,2104,1687,8_S
1779267421.775279,2024,1967,8_S
1779267421.775477,2002,1672,8_S
1779267421.7768981,1916,1469,8_S
1779267421.778108,1911,1539,8_S
1779267421.780742,1751,1540,8_S
1779267421.7885828,1847,1320,8_S
1779267421.790664,2071,1690,8_S
1779267421.791146,2120,1640,8_S
1779267421.793385,1930,2196,8_S
1779267421.795655,2029,1925,8_S
1779267421.795973,2273,1662,8_S
1779267421.79625,1963,1589,8_S
1779267421.8003461,1793,1702,8_S
1779267421.800749,2283,1122,8_S
1779267421.8011599,2091,1745,8_S
1779267421.804369,1748,1487,8_S
1779267421.804474,1980,2220,8_S
1779267421.8060958,2203,2084,8_S
1779267421.814525,2182,1762,8_S
1779267421.816629,1878,1611,8_S
1779267421.8171258,1698,1671,8_S
1779267421.819642,1914,1346,8_S
1779267421.81994,2392,1678,8_S
1779267421.82169,2152,1719,8_S
1779267421.8220859,2019,2041,8_S
1779267421.82604,2186,2322,8_S
1779267421.826518,1980,1916,8_S
1779267421.826855,2009,1623,8_S
1779267421.829931,2275,1718,8_S
1779267421.830257,1950,1688,8_S
1779267421.832923,1777,1475,8_S
1779267421.834444,1912,1856,8_S
1779267421.841648,2023,1880,8_S
1779267421.843487,2010,2411,8_S
1779267421.846116,1903,1946,8_S
1779267421.846633,1942,1644,8_S
1779267421.84698,2185,1708,8_S
1779267421.849002,2162,1885,8_S
1779267421.851499,1957,1260,8_S
1779267421.855357,2125,1868,8_S
1779267421.855772,1935,1645,8_S
1779267421.855959,1943,2367,8_S
1779267421.8567622,1863,2120,8_S
1779267421.8598778,2359,1852,8_S
1779267421.860016,2179,1681,8_S
1779267421.862498,2017,1844,8_S
1779267421.8681788,1913,1476,8_S
1779267421.871396,2014,1770,8_S
1779267421.873812,2130,1820,8_S
1779267421.8762932,2133,2145,8_S
1779267421.880424,2076,2331,8_S
1779267421.880706,1991,1941,8_S
1779267421.8811789,1921,1638,8_S
1779267421.881827,1937,1648,8_S
1779267421.88429,2051,1640,8_S
1779267421.885335,2019,1537,8_S
1779267421.885772,1863,1925,8_S
1779267421.885887,2134,1974,8_S
1779267421.888609,2214,2482,8_S
1779267421.889994,2098,2002,8_S
1779267421.900117,2058,1734,8_S
1779267421.90037,1901,1615,8_S
1779267421.902615,2270,1876,8_S
1779267421.905322,2205,1287,8_S
1779267421.9073799,1865,1929,8_S
1779267421.911509,1825,1686,8_S
1779267421.912174,1724,2442,8_S
1779267421.912616,1617,2206,8_S
1779267421.915068,1267,2020,8_S
1779267421.915309,1689,1704,8_S
1779267421.916319,2573,1958,8_S
1779267421.916524,1893,1623,8_S
1779267421.916656,1402,1844,8_S
1779267421.918188,1740,1879,8_S
1779267421.9248052,2234,2338,8_S
1779267421.9255722,2862,2327,8_S
1779267421.9276319,2361,1905,8_S
1779267421.9280372,1638,2033,8_S
1779267421.93065,1584,2018,8_S
1779267421.9362419,1176,1801,8_S
1779267421.93663,2283,1601,8_S
1779267421.937115,2662,2046,8_S
1779267421.937524,1338,2180,8_S
1779267421.941016,3332,2573,8_S
1779267421.941468,2296,2189,8_S
1779267421.9429429,1958,1436,8_S
1779267421.9443579,1852,1872,8_S
1779267421.9457889,1043,2201,8_S
1779267421.954179,2408,1328,8_S
1779267421.956783,2671,1992,8_S
1779267421.957226,1711,1958,8_S
1779267421.959475,1412,2740,8_S
1779267421.960226,1646,2425,8_S
1779267421.961919,1585,1873,8_S
1779267421.965812,2252,1807,8_S
1779267421.966204,2215,1891,8_S
1779267421.966645,2408,1499,8_S
1779267421.967235,1656,1882,8_S
1779267421.970319,2259,1907,8_S
1779267421.97046,2027,2364,8_S
1779267421.971904,1633,2466,8_S
1779267421.977474,1834,2053,8_S
1779267421.978816,3365,1809,8_S
1779267421.980042,2099,1965,8_S
1779267421.982062,1917,2011,8_S
1779267421.982631,1638,1624,8_S
1779267421.985234,2066,2053,8_S
1779267421.990703,1477,2085,8_S
1779267421.991135,1815,2705,8_S
1779267421.991468,1967,2280,8_S
1779267421.994996,1944,1921,8_S
1779267421.995109,2150,1769,8_S
1779267421.9965491,2022,1904,8_S
1779267421.9980319,2565,1341,8_S
1779267422.000552,2079,2092,8_S
1779267422.0078669,1991,2120,8_S
1779267422.0105448,2055,2922,8_S
1779267422.010932,2405,2556,8_S
1779267422.013671,2061,1992,8_S
1779267422.015528,1982,2165,8_S
1779267422.020277,1797,2396,8_S
1779267422.0236301,2363,2127,8_S
1779267422.0237281,2526,1974,8_S
1779267422.0238001,2226,2165,8_S
1779267422.0238678,2111,3033,8_S
1779267422.023929,2163,2975,8_S
1779267422.023989,2407,2145,8_S
1779267422.032398,2232,2011,8_S
1779267422.035558,1980,2261,8_S
1779267422.04021,1853,2191,8_S
1779267422.0405629,2886,1749,8_S
1779267422.044686,2145,2148,8_S
1779267422.045047,2019,2634,8_S
1779267422.045385,1879,3022,8_S
1779267422.045761,2090,2378,8_S
1779267422.0463512,2481,1920,8_S
1779267422.046634,2114,1828,8_S
1779267422.049653,2322,2383,8_S
1779267422.050111,2228,1845,8_S
1779267422.05024,2227,2117,8_S
1779267422.051666,1346,2496,8_S
1779267422.054385,1410,3085,8_S
1779267422.055841,2989,2434,8_S
1779267422.061475,2711,1905,8_S
1779267422.062767,1437,1794,8_S
1779267422.067609,2198,2306,8_S
1779267422.069898,2374,1853,8_S
1779267422.074365,2122,1951,8_S
1779267422.074838,2044,2194,8_S
1779267422.075413,2054,2841,8_S
1779267422.075923,2071,2924,8_S
1779267422.0785139,2441,2147,8_S
1779267422.079253,2037,2107,8_S
1779267422.079577,1672,2431,8_S
1779267422.0797088,2745,2402,8_S
1779267422.0906398,2552,2296,8_S
1779267422.090933,1641,2494,8_S
1779267422.091413,1725,3706,8_S
1779267422.093452,3130,3645,8_S
1779267422.094433,1772,2419,8_S
1779267422.09612,759,2175,8_S
1779267422.096342,2185,2890,8_S
1779267422.10056,3652,4072,8_S
1779267422.100883,1354,4095,8_S
1779267422.1012459,1585,4095,8_S
1779267422.104466,2104,4095,8_S
1779267422.1045902,2492,4095,8_S
1779267422.106011,2439,3413,8_S
1779267422.108684,2277,3007,8_S
1779267422.1100569,1127,3185,8_S
1779267422.116601,1427,3766,8_S
1779267422.11743,1815,4095,8_S
1779267422.1177669,2216,4095,8_S
1779267422.11972,2639,4095,8_S
1779267422.12198,2004,4095,8_S
1779267422.122516,1871,3947,8_S
1779267422.132534,1359,3607,8_S
1779267422.133122,3155,3546,8_S
1779267422.133409,2396,3757,8_S
1779267422.1340191,1533,4085,8_S
1779267422.1342,2527,4095,8_S
1779267422.13771,3264,4095,8_S
1779267422.138178,1985,4095,8_S
1779267422.1384141,1199,4095,8_S
1779267422.140214,2052,3912,8_S
1779267422.147653,2639,3807,8_S
1779267422.155873,1298,3847,8_S
1779267422.161141,1995,3994,8_S
1779267422.1618738,2992,4095,8_S
1779267422.162487,1539,4095,8_S
1779267422.165811,2326,4095,8_S
1779267422.165938,1995,4095,8_S
1779267422.166005,1775,4046,8_S
1779267422.166063,2615,3957,8_S
1779267422.1662312,1542,3938,8_S
1779267422.16639,2023,3990,8_S
1779267422.1665,1794,3831,8_S
1779267422.1665652,1092,3729,8_S
1779267422.1681228,2494,3698,8_S
1779267422.170851,2489,3512,8_S
1779267422.172225,3015,3413,8_S
1779267422.179253,2169,3423,8_S
1779267422.179594,1601,2770,8_S
1779267422.180303,1740,3205,8_S
1779267422.183854,1897,3236,8_S
1779267422.184214,2449,2964,8_S
1779267422.1847,635,2512,8_S
1779267422.186838,2583,3100,8_S
1779267422.1893508,2144,2802,8_S
1779267422.194305,706,2567,8_S
1779267422.194633,3225,2638,8_S
1779267422.1950269,2980,2331,8_S
1779267422.198925,2110,2337,8_S
1779267422.1990201,2046,2241,8_S
1779267422.2003572,3073,2435,8_S
1779267422.2083268,1560,1983,8_S
1779267422.2085178,1575,1886,8_S
1779267422.209449,2071,2008,8_S
1779267422.212961,2710,1816,8_S
1779267422.21366,2020,1862,8_S
1779267422.216395,2656,1735,8_S
1779267422.2172742,1953,1726,8_S
1779267422.2193532,1992,1906,8_S
1779267422.2196538,1756,1977,8_S
1779267422.224899,2147,2196,8_S
1779267422.225269,3090,2045,8_S
1779267422.2257972,2492,2064,8_S
1779267422.226274,2121,1841,8_S
1779267422.2296479,2486,2174,8_S
1779267422.2300391,1133,2223,8_S
1779267422.2327948,2351,1957,8_S
1779267422.23415,2405,2150,8_S
1779267422.236832,2360,2224,8_S
1779267422.245333,1798,2185,8_S
1779267422.245701,2272,2151,8_S
1779267422.2481449,2020,2302,8_S
1779267422.248514,2109,2262,8_S
1779267422.251113,2679,2263,8_S
1779267422.25213,2426,2476,8_S
1779267422.2540889,1755,2312,8_S
1779267422.254396,2176,2255,8_S
1779267422.259912,2416,2437,8_S
1779267422.2602339,2344,2382,8_S
1779267422.2607539,2829,2129,8_S
1779267422.2611752,2125,2505,8_S
1779267422.2652009,1841,2531,8_S
1779267422.265333,2190,2484,8_S
1779267422.266708,2377,2482,8_S
1779267422.268078,2394,2509,8_S
1779267422.273587,1550,2450,8_S
1779267422.2750678,1946,2422,8_S
1779267422.278641,2797,2360,8_S
1779267422.279008,2261,2349,8_S
1779267422.279393,1770,2374,8_S
1779267422.28191,2219,2149,8_S
1779267422.2846138,2056,2512,8_S
1779267422.2849221,2001,2301,8_S
1779267422.290189,2028,2310,8_S
1779267422.290665,1845,2269,8_S
1779267422.2908869,1721,2284,8_S
1779267422.29442,2055,2238,8_S
1779267422.2946932,1866,2232,8_S
1779267422.296184,2045,2237,8_S
1779267422.297695,2167,2257,8_S
1779267422.300361,1990,2194,8_S
1779267422.301734,1883,2110,8_S
1779267422.3086689,2062,2201,8_S
1779267422.309998,2031,2085,8_S
1779267422.312577,1921,2012,8_S
1779267422.3129668,1715,2085,8_S
1779267422.317869,1432,2210,8_S
1779267422.318401,1740,2210,8_S
1779267422.3238778,2079,2152,8_S
1779267422.324167,1824,2128,8_S
1779267422.324811,2040,2240,8_S
1779267422.325543,1861,2040,8_S
1779267422.326145,1195,2157,8_S
1779267422.326545,1441,2004,8_S
1779267422.3299232,3906,2177,8_S
1779267422.330266,1646,2234,8_S
1779267422.331638,1565,2138,8_S
1779267422.340676,1847,2082,8_S
1779267422.342231,2151,2060,8_S
1779267422.344976,1858,2093,8_S
1779267422.347119,1557,2155,8_S
1779267422.350335,1745,2010,8_S
1779267422.350728,1719,2163,8_S
1779267422.356309,1598,2182,8_S
1779267422.356759,1777,2105,8_S
1779267422.3573902,2086,2070,8_S
1779267422.357729,2079,2088,8_S
1779267422.358115,2062,2138,8_S
1779267422.358408,2050,2086,8_S
1779267422.3622348,2026,2094,8_S
1779267422.362329,1645,1960,8_S
1779267422.362392,1733,1897,8_S
1779267422.363772,2778,2072,8_S
1779267422.366445,2066,2049,8_S
1779267422.3678038,1941,2016,8_S
1779267422.375396,1684,2009,8_S
1779267422.3762949,2136,2023,8_S
1779267422.377623,1845,2042,8_S
1779267422.380024,2035,2152,8_S
1779267422.3803709,1895,2189,8_S
1779267422.3856761,1934,2209,8_S
1779267422.385977,1723,2295,8_S
1779267422.391398,1543,2166,8_S
1779267422.391916,2544,2092,8_S
1779267422.392589,2942,2068,8_S
1779267422.3956711,1798,2204,8_S
1779267422.39675,1917,2301,8_S
1779267422.396828,2051,2132,8_S
1779267422.396965,2202,2086,8_S
1779267422.3983748,1898,2284,8_S
1779267422.4050639,1836,2171,8_S
1779267422.4098308,2183,1969,8_S
1779267422.4101949,1834,1897,8_S
1779267422.410663,1776,2019,8_S
1779267422.4156191,2097,2106,8_S
1779267422.416066,2131,2117,8_S
1779267422.4226182,2035,2016,8_S
1779267422.423104,2416,2116,8_S
1779267422.423572,1879,2315,8_S
1779267422.42414,842,2148,8_S
1779267422.424395,2622,2084,8_S
1779267422.424654,2425,2169,8_S
1779267422.4250188,1903,2164,8_S
1779267422.429444,1682,2146,8_S
1779267422.429861,1841,2065,8_S
1779267422.42994,2522,2189,8_S
1779267422.43258,2224,2157,8_S
1779267422.433928,1931,2119,8_S
1779267422.436636,1877,2005,8_S
1779267422.438636,2179,2116,8_S
1779267422.445438,2008,2194,8_S
1779267422.447215,2113,2200,8_S
1779267422.4515588,1890,2020,8_S
1779267422.4521348,1883,2128,8_S
1779267422.452391,2846,2205,8_S
1779267422.4527192,1885,2104,8_S
1779267422.452941,1826,2028,8_S
1779267422.455662,2164,2015,8_S
1779267422.455879,2234,2045,8_S
1779267422.458843,2016,2052,8_S
1779267422.4657311,2183,1997,8_S
1779267422.4665349,1929,2038,8_S
1779267422.466837,1887,2198,8_S
1779267422.470032,1949,2123,8_S
1779267422.471404,2386,1969,8_S
1779267422.4715362,2037,1920,8_S
1779267422.471613,1800,2073,8_S
1779267422.4742851,2018,2126,8_S
1779267422.482369,2021,2041,8_S
1779267422.48332,1965,2072,8_S
1779267422.4841821,2230,2294,8_S
1779267422.4844851,2031,2306,8_S
1779267422.4853172,1756,2138,8_S
1779267422.487728,1907,2013,8_S
1779267422.490577,2863,2157,8_S
1779267422.490848,2386,2187,8_S
1779267422.493885,1870,2238,8_S
1779267422.500591,1761,2147,8_S
1779267422.501173,2308,2162,8_S
1779267422.501678,2219,2239,8_S
1779267422.502028,2082,2286,8_S
1779267422.502659,1984,2214,8_S
1779267422.507491,1944,2025,8_S
1779267422.507606,2425,2215,8_S
1779267422.507725,1620,2257,8_S
1779267422.510404,2111,2249,8_S
1779267422.511818,2227,2207,8_S
1779267422.513636,2097,2256,8_S
1779267422.522254,2064,2293,8_S
1779267422.5230038,1488,2286,8_S
1779267422.524509,2254,1986,8_S
1779267422.527381,3038,2272,8_S
1779267422.527745,1181,2277,8_S
1779267422.52803,1473,2112,8_S
1779267422.531708,3113,2181,8_S
1779267422.534268,2022,2251,8_S
1779267422.534528,1713,2322,8_S
1779267422.541632,2031,2194,8_S
1779267422.542193,1814,2286,8_S
1779267422.542623,1632,2121,8_S
1779267422.542927,1802,2254,8_S
1779267422.543262,2593,2293,8_S
1779267422.547991,1940,2244,8_S
1779267422.548125,2059,2194,8_S
1779267422.5483031,1915,2277,8_S
1779267422.549686,1918,2229,8_S
1779267422.5580642,2091,2089,8_S
1779267422.558929,1960,2170,8_S
1779267422.559809,2193,2292,8_S
1779267422.560905,2219,2413,8_S
1779267422.5643609,1727,2261,8_S
1779267422.564661,1874,2184,8_S
1779267422.565139,1753,2207,8_S
1779267422.5678358,2710,2264,8_S
1779267422.569328,2398,2177,8_S
1779267422.571763,1913,1919,8_S
1779267422.578484,1962,2136,8_S
1779267422.5789518,2464,2055,8_S
1779267422.579356,2450,2247,8_S
1779267422.5841029,1873,2188,8_S
1779267422.584563,1722,2248,8_S
1779267422.584645,1985,2308,8_S
1779267422.584717,1915,2201,8_S
1779267422.586091,2031,2123,8_S
1779267422.587507,2028,2241,8_S
1779267422.5901499,1851,2233,8_S
1779267422.5926988,2130,2292,8_S
1779267422.600613,2302,2266,8_S
1779267422.6022289,2129,2239,8_S
1779267422.6033862,1832,2444,8_S
1779267422.606497,1985,2301,8_S
1779267422.6069849,2222,2138,8_S
1779267422.607404,2373,2186,8_S
1779267422.6097438,2089,2385,8_S
1779267422.611486,1897,2320,8_S
1779267422.613865,1917,2274,8_S
1779267422.6206331,2129,2276,8_S
1779267422.621124,2101,2457,8_S
1779267422.621716,2119,2365,8_S
1779267422.622079,2082,2376,8_S
1779267422.622436,1958,2159,8_S
1779267422.622689,1942,2222,8_S
1779267422.6269472,1962,2319,8_S
1779267422.627489,2288,2298,8_S
1779267422.6276171,2065,2434,8_S
1779267422.630288,2035,2376,8_S
1779267422.63856,2533,2370,8_S
1779267422.6402292,1818,2335,8_S
1779267422.6439638,1977,2232,8_S
1779267422.647424,2168,2276,8_S
1779267422.648912,1907,2350,8_S
1779267422.651768,2100,2269,8_S
1779267422.659292,1894,2226,8_S
1779267422.663487,1889,2250,8_S
1779267422.663599,2080,2428,8_S
1779267422.663682,2025,2437,8_S
1779267422.6637518,2157,2308,8_S
1779267422.663816,2170,2202,8_S
1779267422.6638799,2067,2338,8_S
1779267422.663949,2188,2316,8_S
1779267422.664014,2138,2395,8_S
1779267422.664073,1845,2241,8_S
1779267422.664185,2140,2297,8_S
1779267422.666432,2030,2293,8_S
1779267422.6679611,2070,2294,8_S
1779267422.670666,2137,2132,8_S
1779267422.6722088,2076,2243,8_S
1779267422.680794,2067,2469,8_S
1779267422.681244,1978,2408,8_S
1779267422.682446,2057,2386,8_S
1779267422.6855848,2099,2294,8_S
1779267422.686421,2081,2340,8_S
1779267422.6888719,2094,2190,8_S
1779267422.691356,2106,2168,8_S
1779267422.696791,2027,2265,8_S
1779267422.6971579,2063,2391,8_S
1779267422.697564,2050,2368,8_S
1779267422.69782,1969,2242,8_S
1779267422.6981618,2052,2224,8_S
1779267422.698516,1998,2410,8_S
1779267422.702112,1919,2406,8_S
1779267422.7021801,1992,2202,8_S
1779267422.703598,1960,2153,8_S
1779267422.7122188,2150,2331,8_S
1779267422.7161229,2022,2366,8_S
1779267422.719488,1998,2303,8_S
1779267422.7216341,2030,2280,8_S
1779267422.726887,2048,2345,8_S
1779267422.7273002,2023,2315,8_S
