timestamp,ch1,ch2,label
1779267433.311594,2074,1322,9
1779267433.313132,2040,2356,9
1779267433.316454,2020,2090,9
1779267433.319307,1939,2794,9
1779267433.322349,2031,2932,9
1779267433.322731,2134,1787,9
1779267433.324267,2153,1917,9
1779267433.324512,1915,2335,9
1779267433.324787,1923,1400,9
1779267433.324954,1953,2157,9
1779267433.32562,2048,2291,9
1779267433.3259351,1997,2272,9
1779267433.329292,2075,3209,9
1779267433.330488,2141,2033,9
1779267433.331827,2096,1759,9
1779267433.333569,2041,2489,9
1779267433.340849,2096,1949,9
1779267433.344809,2129,1793,9
1779267433.34792,2126,2391,9
1779267433.350982,2122,1789,9
1779267433.3515031,2049,3245,9
1779267433.351827,1992,2435,9
1779267433.352544,1950,1683,9
1779267433.354948,1898,2201,9
1779267433.355891,2022,2151,9
1779267433.356012,2045,1348,9
1779267433.3561118,2069,2369,9
1779267433.358753,2080,2087,9
1779267433.3601012,1909,2906,9
1779267433.368237,1980,2900,9
1779267433.3705359,2031,1776,9
1779267433.373697,2030,1928,9
1779267433.375606,2041,2370,9
1779267433.3771021,1944,1377,9
1779267433.377407,1922,2176,9
1779267433.377603,1981,2288,9
1779267433.3779242,2079,2296,9
1779267433.37853,2124,3221,9
1779267433.3817039,2160,2012,9
1779267433.3821251,1965,1757,9
1779267433.391005,2030,2455,9
1779267433.3936808,2192,1954,9
1779267433.393813,2120,1815,9
1779267433.394202,2130,2388,9
1779267433.3962722,2094,1808,9
1779267433.398668,2080,3289,9
1779267433.400244,2028,2406,9
1779267433.4008489,1974,1684,9
1779267433.4013069,1970,2222,9
1779267433.4045608,2008,2151,9
1779267433.404913,2091,1375,9
1779267433.406456,1959,2373,9
1779267433.407849,1837,2069,9
1779267433.410516,2154,2896,9
1779267433.41769,2293,2876,9
1779267433.4187148,2122,1769,9
1779267433.419507,1640,1940,9
1779267433.4202418,2075,2503,9
1779267433.420461,2324,1381,9
1779267433.423916,2059,2185,9
1779267433.4270232,1907,2293,9
1779267433.428976,2060,2326,9
1779267433.4309251,2037,3196,9
1779267433.431472,1990,2006,9
1779267433.431905,1996,1756,9
1779267433.435694,2020,2414,9
1779267433.435785,2012,1846,9
1779267433.438596,2025,1831,9
1779267433.443886,2022,2386,9
1779267433.445258,2034,1866,9
1779267433.4461179,2008,3308,9
1779267433.446992,2050,2386,9
1779267433.449353,1975,1688,9
1779267433.4525208,2075,2248,9
1779267433.454714,2080,2159,9
1779267433.4549918,1989,1396,9
1779267433.457681,2070,2375,9
1779267433.457999,1927,2053,9
1779267433.461798,1973,2971,9
1779267433.461985,2196,2847,9
1779267433.4646158,2163,1763,9
1779267433.465985,2114,1956,9
1779267433.468696,2146,2424,9
1779267433.4757628,2010,1457,9
1779267433.476933,2033,2188,9
1779267433.4924722,2048,2274,9
1779267433.4925609,2024,2406,9
1779267433.492693,2015,3278,9
1779267433.492783,1981,1987,9
1779267433.492852,1987,1775,9
1779267433.492953,2169,2488,9
1779267433.493165,1985,1863,9
1779267433.4932349,1860,1855,9
1779267433.493301,2175,2381,9
1779267433.4933639,2155,1862,9
1779267433.493518,2111,3262,9
1779267433.5004401,1946,2364,9
1779267433.501853,2031,1691,9
1779267433.5047429,2012,2267,9
1779267433.505467,2011,2199,9
1779267433.507328,2027,1411,9
1779267433.508801,2035,2378,9
1779267433.513126,2042,2045,9
1779267433.51701,2010,3066,9
1779267433.517471,2052,2824,9
1779267433.517629,2062,1757,9
1779267433.517694,1955,1975,9
1779267433.517758,2020,2409,9
1779267433.520416,1984,1368,9
1779267433.52176,1977,2208,9
1779267433.534106,2072,2265,9
1779267433.534525,2030,2418,9
1779267433.5349052,2095,3278,9
1779267433.537695,2086,1961,9
1779267433.538934,2005,1780,9
1779267433.5414348,2112,2464,9
1779267433.5417302,2140,1862,9
1779267433.544478,2020,1881,9
1779267433.5450082,2043,2377,9
1779267433.54864,2030,1987,9
1779267433.549403,2033,3330,9
1779267433.549574,1930,2330,9
1779267433.549716,1955,1702,9
1779267433.54978,2137,2308,9
1779267433.5579362,2130,2217,9
1779267433.558143,2028,1450,9
1779267433.560066,2023,2379,9
1779267433.562433,2010,2013,9
1779267433.56295,2165,2930,9
1779267433.565444,2078,2800,9
1779267433.5657248,1950,1751,9
1779267433.570774,2087,1980,9
1779267433.575197,2074,2382,9
1779267433.5758321,1991,1432,9
1779267433.575928,1970,2212,9
1779267433.576004,2049,2256,9
1779267433.5760798,2091,2467,9
1779267433.577485,2140,3317,9
1779267433.580182,2014,1953,9
1779267433.581556,1943,1790,9
1779267433.5903502,2063,2480,9
1779267433.59123,2081,1885,9
1779267433.5920541,2068,1894,9
1779267433.594456,2034,2374,9
1779267433.5948439,1959,1843,9
1779267433.6000419,1992,3223,9
1779267433.602676,2100,2328,9
1779267433.602976,2060,1690,9
1779267433.6032472,2020,2291,9
1779267433.603793,2004,2133,9
1779267433.604473,1992,1455,9
1779267433.6084101,2026,2386,9
1779267433.608578,2149,2017,9
1779267433.609942,2103,3031,9
1779267433.61764,1974,2785,9
1779267433.6179378,1917,1745,9
1779267433.62303,1965,1985,9
1779267433.62556,2042,2376,9
1779267433.628303,2107,1353,9
1779267433.62867,2058,2227,9
1779267433.628902,2024,2252,9
1779267433.629111,2085,2523,9
1779267433.6294029,2166,3285,9
1779267433.629846,2078,1937,9
1779267433.632957,2057,1796,9
1779267433.634284,2104,2457,9
1779267433.635604,2005,1884,9
1779267433.6382232,1983,1910,9
1779267433.643735,1990,2369,9
1779267433.644421,2021,2005,9
1779267433.6450438,2050,3261,9
1779267433.647802,2045,2305,9
1779267433.650048,2080,1705,9
1779267433.650746,2166,2333,9
1779267433.652267,1851,2195,9
1779267433.6548102,1555,1478,9
1779267433.6578639,2051,2381,9
1779267433.6580749,2850,1991,9
1779267433.659497,2460,3070,9
1779267433.6657112,1711,2765,9
1779267433.668392,1681,1743,9
1779267433.668642,2075,2006,9
1779267433.668869,2162,2322,9
1779267433.675748,2044,1308,9
1779267433.676022,1918,2243,9
1779267433.67626,1668,2232,9
1779267433.6764789,1742,2437,9
1779267433.679499,2032,3174,9
1779267433.679803,2286,1922,9
1779267433.682391,3314,1800,9
1779267433.68375,2489,2454,9
1779267433.6902559,1394,1663,9
1779267433.691838,1815,1944,9
1779267433.6920042,1686,2366,9
1779267433.6941729,1876,2037,9
1779267433.694378,2404,3455,9
1779267433.696885,2248,2248,9
1779267433.698715,2149,1706,9
1779267433.701167,2210,2290,9
1779267433.704308,1404,2439,9
1779267433.704525,1754,1509,9
1779267433.706013,2541,2382,9
1779267433.7111301,2554,1967,9
1779267433.711818,2965,2936,9
1779267433.7129521,1592,2737,9
1779267433.7151191,1655,1740,9
1779267433.71714,1237,2010,9
1779267433.7192802,3299,2372,9
1779267433.7219598,1754,1468,9
1779267433.7223082,1692,2232,9
1779267433.7249181,3587,2234,9
1779267433.726252,1898,2683,9
1779267433.727582,1667,3270,9
1779267433.730172,1629,1926,9
1779267433.731733,1923,1822,9
1779267433.735706,2671,2454,9
1779267433.73633,2791,1827,9
1779267433.7400792,1586,1936,9
1779267433.7403321,951,2352,9
1779267433.744593,2928,1952,9
1779267433.744856,3257,3439,9
1779267433.7507908,1791,2252,9
1779267433.750897,934,1705,9
1779267433.7509491,3563,2394,9
1779267433.752268,2757,2390,9
1779267433.7578409,2321,1508,9
1779267433.758954,2428,2388,9
1779267433.761722,1684,1980,9
1779267433.762083,2468,3478,9
1779267433.7639732,2426,2689,9
1779267433.7646852,2158,1735,9
1779267433.769011,2358,2059,9
1779267433.769268,1981,3024,9
1779267433.772428,1987,1893,9
1779267433.772533,1926,2197,9
1779267433.7738612,3119,2265,9
1779267433.776462,2855,3610,9
1779267433.777792,1932,3251,9
1779267433.783993,1991,1962,9
1779267433.784744,2176,1893,9
1779267433.78549,2878,2894,9
1779267433.789849,1980,3058,9
1779267433.79059,1754,1961,9
1779267433.7955189,3020,2321,9
1779267433.79597,2284,3775,9
1779267433.799447,1831,3856,9
1779267433.799574,2042,2357,9
1779267433.799654,2030,1914,9
1779267433.799755,1960,2594,9
1779267433.8084428,2573,3889,9
1779267433.809252,2459,4050,9
1779267433.811679,1903,3889,9
1779267433.814028,1986,4095,9
1779267433.816788,1770,4095,9
1779267433.820501,1704,3248,9
1779267433.820982,2659,2660,9
1779267433.8217669,2266,2846,9
1779267433.822272,1950,3609,9
1779267433.824548,2102,4095,9
1779267433.825726,1714,4095,9
1779267433.825823,1920,4095,9
1779267433.8259242,3145,4095,9
1779267433.8285599,2369,3890,9
1779267433.8299,1890,3398,9
1779267433.832549,2141,3308,9
1779267433.838604,1817,3606,9
1779267433.8419998,2303,4091,9
1779267433.8424032,1715,4095,9
1779267433.84682,2281,4095,9
1779267433.847122,2291,4095,9
1779267433.851625,1440,4095,9
1779267433.8547971,1284,3827,9
1779267433.854967,3545,3671,9
1779267433.855102,2387,3735,9
1779267433.855214,2060,3958,9
1779267433.8553119,2094,4095,9
1779267433.855455,1783,3963,9
1779267433.86364,1922,4095,9
1779267433.866448,2128,4095,9
1779267433.866782,2118,3990,9
1779267433.868746,1943,3847,9
1779267433.874639,1550,3837,9
1779267433.875048,1971,3944,9
1779267433.8755982,2848,4095,9
1779267433.8760068,1952,3581,9
1779267433.87634,1761,3790,9
1779267433.879589,2534,4095,9
1779267433.879678,3179,4027,9
1779267433.879793,1229,3861,9
1779267433.882508,1417,3818,9
1779267433.883651,1565,3912,9
1779267433.8921669,1768,3877,9
1779267433.895214,3299,3357,9
1779267433.895639,2129,3448,9
1779267433.898439,1684,3994,9
1779267433.900191,1956,4037,9
1779267433.9003918,1404,3791,9
1779267433.9044611,2438,3718,9
1779267433.9052339,2740,3827,9
1779267433.905951,1779,3885,9
1779267433.908996,2073,3262,9
1779267433.909424,1622,3203,9
1779267433.909562,1957,3488,9
1779267433.909684,2121,3996,9
1779267433.912365,1183,3742,9
1779267433.9175858,2520,3561,9
1779267433.918735,3901,3551,9
1779267433.92129,1626,3496,9
1779267433.921611,1507,3242,9
1779267433.9238138,1601,2885,9
1779267433.926292,2322,2547,9
1779267433.930223,1684,3172,9
1779267433.9307,1762,3030,9
1779267433.931137,2524,2910,9
1779267433.934378,2067,2676,9
1779267433.934547,1766,2552,9
1779267433.935914,2995,2644,9
1779267433.9386072,1209,2335,9
1779267433.940016,2290,2289,9
1779267433.949892,2510,2581,9
1779267433.950432,2904,2611,9
1779267433.9524648,1634,2412,9
1779267433.9533172,1891,2040,9
1779267433.959115,1773,2126,9
1779267433.959651,1013,2260,9
1779267433.960095,2598,2226,9
1779267433.960784,2215,2175,9
1779267433.9631732,2374,2448,9
1779267433.964054,1763,2409,9
1779267433.964179,2184,2383,9
1779267433.964291,1797,2236,9
1779267433.965719,2493,2008,9
1779267433.973218,1398,2171,9
1779267433.975782,2584,1709,9
1779267433.9761658,3869,2142,9
1779267433.976562,1580,2399,9
1779267433.976793,1347,2054,9
1779267433.9809291,2032,2279,9
1779267433.985304,2508,2306,9
1779267433.986062,1845,1554,9
1779267433.986314,2730,1908,9
1779267433.9890711,1222,2243,9
1779267433.990032,1941,2087,9
1779267433.990178,2554,1980,9
1779267433.991562,2272,2166,9
1779267433.994208,1945,2142,9
1779267433.995564,2642,1630,9
1779267434.001766,2605,1795,9
1779267434.002989,2647,1522,9
1779267434.005791,1775,2239,9
1779267434.00877,1601,2178,9
1779267434.014818,1991,1809,9
1779267434.015598,2200,2259,9
1779267434.0161228,2142,2113,9
1779267434.0165389,2086,2056,9
1779267434.019488,2015,2082,9
1779267434.019576,1982,2364,9
1779267434.0196748,2152,2422,9
1779267434.019744,3158,2551,9
1779267434.028575,2149,2297,9
1779267434.030765,2008,2474,9
1779267434.0353742,2396,2550,9
1779267434.0402482,2204,2437,9
1779267434.040849,2258,2454,9
1779267434.041281,2120,2481,9
1779267434.041704,2024,2569,9
1779267434.044172,2810,2354,9
1779267434.045154,2354,2763,9
1779267434.0452769,1334,2537,9
1779267434.045443,2058,2678,9
1779267434.045558,992,2682,9
1779267434.045679,3226,2379,9
1779267434.0483332,3770,2512,9
1779267434.0497448,1624,2541,9
1779267434.05768,1145,2537,9
1779267434.0602748,1662,2433,9
1779267434.0607948,2253,2488,9
1779267434.062922,2393,2612,9
1779267434.065396,1896,2815,9
1779267434.0704482,927,2722,9
1779267434.07107,2039,2627,9
1779267434.074629,1989,2586,9
1779267434.075008,2194,2611,9
1779267434.075099,2199,2652,9
1779267434.0751739,2159,2712,9
1779267434.07534,2281,2721,9
1779267434.075497,2129,2514,9
1779267434.083154,1783,2780,9
1779267434.086432,2140,2397,9
1779267434.0908852,2021,2299,9
1779267434.0912771,1553,2777,9
1779267434.095746,1460,2101,9
1779267434.096263,2218,2303,9
1779267434.096721,3033,2324,9
1779267434.0971441,1545,2363,9
1779267434.097573,2449,2212,9
1779267434.0998762,3312,2089,9
1779267434.100897,1460,2145,9
1779267434.1009989,1461,2077,9
1779267434.102431,2167,1997,9
1779267434.103916,2034,2051,9
1779267434.105375,2002,1975,9
1779267434.112392,1985,2179,9
1779267434.113133,1965,2098,9
1779267434.113854,1740,2067,9
1779267434.117026,1765,1900,9
1779267434.1176379,3877,1941,9
1779267434.117752,1639,2272,9
1779267434.122089,1994,2484,9
1779267434.127209,2125,2644,9
1779267434.127672,2200,2707,9
1779267434.128246,2063,2909,9
1779267434.128476,1962,2994,9
1779267434.1313212,2071,3084,9
1779267434.131659,1815,3238,9
1779267434.139745,2203,3412,9
1779267434.140539,2501,3416,9
1779267434.142902,1256,3475,9
1779267434.143374,1715,3755,9
1779267434.145761,2587,3984,9
1779267434.14799,2322,4000,9
1779267434.1529212,2480,3755,9
1779267434.1533198,2071,3866,9
1779267434.1537962,1855,3832,9
1779267434.157026,1527,4023,9
1779267434.157417,2111,3953,9
1779267434.157515,2082,4095,9
1779267434.157629,2816,3924,9
1779267434.160265,1517,3767,9
1779267434.161675,1367,3875,9
1779267434.1692412,2285,3606,9
1779267434.170492,2773,3794,9
1779267434.172828,1787,3696,9
1779267434.174877,1858,3614,9
1779267434.1758342,1809,3675,9
1779267434.182199,2334,3589,9
1779267434.182654,2207,3353,9
1779267434.1830468,1649,3000,9
1779267434.1833742,2360,3091,9
1779267434.1836128,2043,2850,9
1779267434.183855,2188,2971,9
1779267434.1862972,2089,3047,9
1779267434.187731,1874,2703,9
1779267434.195297,2214,2518,9
1779267434.196091,2648,2820,9
1779267434.1992261,1518,2658,9
1779267434.1997519,1648,2317,9
1779267434.201279,1730,2153,9
1779267434.202664,2339,2258,9
1779267434.20452,1084,2414,9
1779267434.204923,3670,2350,9
1779267434.209949,2276,2171,9
1779267434.21047,1949,2195,9
1779267434.211158,1730,2204,9
1779267434.211691,1838,2098,9
1779267434.21485,2485,2130,9
1779267434.2162921,1063,2209,9
1779267434.217561,2615,1883,9
1779267434.22019,1611,2045,9
1779267434.2265751,1704,2047,9
1779267434.2278159,2609,2281,9
1779267434.23034,1938,2242,9
1779267434.2308109,1707,1961,9
1779267434.2334878,2213,1793,9
1779267434.235172,2348,2084,9
1779267434.237914,2004,1954,9
1779267434.241112,1985,2057,9
1779267434.241724,1920,2261,9
1779267434.2447412,1925,2142,9
1779267434.244936,1936,1902,9
1779267434.245224,2054,1817,9
1779267434.245333,2312,1885,9
1779267434.2522712,2031,1749,9
1779267434.252457,1350,1914,9
1779267434.254308,2831,2195,9
1779267434.254893,2270,2107,9
1779267434.257004,1759,1637,9
1779267434.258952,1862,1834,9
1779267434.266561,1819,1933,9
1779267434.267015,2141,2006,9
1779267434.2673779,2310,1848,9
1779267434.2678301,1986,1859,9
1779267434.2682931,1837,1942,9
1779267434.2718751,1827,1838,9
1779267434.271965,2099,1668,9
1779267434.273372,1925,1839,9
1779267434.276012,2031,1530,9
1779267434.2773519,2027,1684,9
1779267434.2845361,1902,1900,9
1779267434.28585,2492,1920,9
1779267434.2868092,2381,1645,9
1779267434.289025,1278,1640,9
1779267434.2894552,2358,1449,9
1779267434.289654,3180,2114,9
1779267434.2937741,769,1753,9
1779267434.299086,1845,1709,9
1779267434.300475,2555,1725,9
1779267434.3008692,2557,1855,9
1779267434.303827,1799,1956,9
1779267434.304184,1548,1822,9
1779267434.304354,1712,1826,9
1779267434.305758,1965,1914,9
1779267434.312856,2313,1700,9
1779267434.3135061,2092,1653,9
1779267434.316048,1898,1816,9
1779267434.316502,1845,1904,9
1779267434.317844,1970,1928,9
1779267434.318624,2492,1818,9
1779267434.320865,1903,1881,9
1779267434.327451,1773,1738,9
1779267434.327779,1925,1735,9
1779267434.328052,1945,1777,9
1779267434.328459,2638,1883,9
1779267434.332166,2512,1963,9
1779267434.332258,1992,1916,9
1779267434.333627,1902,1942,9
1779267434.3363168,1251,2064,9
1779267434.337848,1484,1974,9
1779267434.346505,3874,2043,9
1779267434.350752,1623,2100,9
1779267434.351234,1362,2010,9
1779267434.354142,1553,1925,9
1779267434.363002,2343,2108,9
1779267434.363441,2082,2102,9
1779267434.3635771,1956,2041,9
1779267434.363771,1781,2222,9
1779267434.363971,2537,2229,9
1779267434.3644989,1795,1840,9
1779267434.3646872,1633,1718,9
1779267434.365016,2352,1960,9
1779267434.365487,2147,1929,9
1779267434.368284,1907,1959,9
1779267434.369049,2018,1888,9
1779267434.3704162,2157,1927,9
1779267434.3716118,2020,2016,9
1779267434.3804271,1756,1940,9
1779267434.383905,1807,1830,9
1779267434.384498,1964,1909,9
1779267434.389744,1810,2167,9
1779267434.3961291,2236,1950,9
1779267434.396817,2495,1879,9
1779267434.399911,1728,1921,9
1779267434.400842,1500,1842,9
1779267434.401233,2895,1931,9
1779267434.401363,1658,1957,9
1779267434.401438,2285,1862,9
1779267434.401504,2044,1976,9
1779267434.401566,1911,2104,9
1779267434.401628,2290,2085,9
1779267434.40169,1856,1854,9
1779267434.404326,1970,2029,9
1779267434.405709,2139,2077,9
1779267434.4079812,1608,2079,9
1779267434.423903,1740,1935,9
1779267434.424153,1756,1845,9
1779267434.430922,2623,2022,9
1779267434.4315178,1937,2198,9
1779267434.431991,1587,2031,9
1779267434.432437,2331,2094,9
1779267434.4327931,2179,2031,9
1779267434.436146,2027,2009,9
1779267434.436773,2011,1860,9
1779267434.436855,1943,1919,9
1779267434.436924,2090,1955,9
1779267434.437197,1760,1931,9
1779267434.437342,2516,2058,9
1779267434.4374158,2093,2122,9
1779267434.437483,1779,2182,9
1779267434.445175,1213,2117,9
1779267434.4472399,2898,2105,9
1779267434.450151,2617,2161,9
1779267434.450604,1873,2245,9
1779267434.45089,1798,2025,9
1779267434.45311,1832,2082,9
1779267434.453965,1841,2096,9
1779267434.4559639,1857,2234,9
1779267434.456382,2004,2124,9
1779267434.46262,1967,2028,9
1779267434.462924,2298,2165,9
1779267434.463356,2472,2236,9
1779267434.463521,1853,2141,9
1779267434.466345,1550,2016,9
1779267434.467693,2720,2260,9
1779267434.470593,1818,2332,9
1779267434.4720252,2542,2276,9
1779267434.4734669,2154,2163,9
1779267434.480464,1759,2223,9
1779267434.480693,1645,2329,9
1779267434.482143,2165,2401,9
1779267434.4830809,2137,2579,9
1779267434.4859142,1981,2554,9
1779267434.48631,1978,2528,9
1779267434.488545,2091,2565,9
1779267434.49102,2082,2712,9
1779267434.4977338,1882,2563,9
1779267434.4983501,2033,2571,9
1779267434.4988139,2060,2790,9
1779267434.499012,1761,2751,9
1779267434.502341,2245,2674,9
1779267434.50269,2178,2685,9
1779267434.504051,2052,2807,9
1779267434.505575,1893,2695,9
1779267434.517174,2088,2619,9
1779267434.525682,2087,2539,9
1779267434.530097,2029,2510,9
1779267434.530185,1872,2477,9
1779267434.530323,1229,2530,9
1779267434.5303948,2989,2387,9
1779267434.530455,2943,2380,9
1779267434.530516,1639,2536,9
1779267434.530611,1643,2322,9
1779267434.530684,1846,2208,9
1779267434.530751,2229,2268,9
1779267434.530816,1947,2596,9
1779267434.5322392,1161,2546,9
1779267434.533476,2737,2340,9
1779267434.536129,2493,2461,9
1779267434.5429802,1497,2489,9
1779267434.544093,1627,2432,9
1779267434.5477388,2174,2190,9
1779267434.5481758,2395,2265,9
1779267434.550774,2031,2285,9
1779267434.551122,1873,2310,9
1779267434.553725,2319,2199,9
1779267434.560239,2030,2364,9
1779267434.560721,1497,2432,9
1779267434.560998,1988,2398,9
1779267434.561246,2456,2277,9
1779267434.561514,2296,2184,9
1779267434.561833,2134,2382,9
1779267434.5655198,1969,2382,9
1779267434.5656111,2083,2571,9
1779267434.5684211,1415,2434,9
1779267434.574403,2052,2565,9
1779267434.576694,1959,2576,9
1779267434.579106,1792,2453,9
1779267434.57951,1987,2362,9
1779267434.579607,2395,2452,9
1779267434.579689,2178,2531,9
1779267434.582634,1705,2547,9
1779267434.58466,2484,2412,9
1779267434.590883,1813,2361,9
1779267434.5912058,2115,2352,9
1779267434.591496,2036,2311,9
1779267434.591697,1994,2239,9
1779267434.595552,2024,2339,9
1779267434.595629,1886,2446,9
1779267434.598295,1992,2384,9
1779267434.599808,1870,2271,9
1779267434.602359,2052,2171,9
1779267434.610343,1893,2195,9
1779267434.6122172,2385,2039,9
1779267434.6139631,2325,1964,9
1779267434.616946,1937,2002,9
1779267434.620729,1984,2130,9
1779267434.623395,2044,2221,9
1779267434.623656,2180,2071,9
1779267434.631041,2183,2260,9
1779267434.6315289,1830,2306,9
1779267434.6321301,1973,2234,9
1779267434.6323462,1862,2071,9
1779267434.6328719,1825,2050,9
1779267434.633097,2037,2178,9
1779267434.6335099,2330,2183,9
1779267434.636617,1952,2239,9
1779267434.637832,1924,2190,9
1779267434.6380181,1973,2156,9
1779267434.638108,2129,2065,9
1779267434.639504,2002,2033,9
1779267434.648482,1972,1862,9
1779267434.650769,2061,1978,9
1779267434.650971,2061,2002,9
1779267434.6538408,2066,1946,9
1779267434.656933,1958,1853,9
1779267434.658004,1833,1886,9
1779267434.660107,1989,1789,9
1779267434.6603642,2483,1831,9
1779267434.666498,2119,1799,9
1779267434.666888,1995,1871,9
1779267434.667171,1795,1945,9
1779267434.66742,2011,1944,9
1779267434.667604,2359,1997,9
1779267434.667916,2017,1911,9
1779267434.671776,1972,1941,9
1779267434.67186,1926,1876,9
1779267434.674279,1868,1699,9
1779267434.6756501,2164,1714,9
1779267434.678111,2104,1809,9
1779267434.679536,1980,1878,9
1779267434.687074,2114,1814,9
1779267434.688016,2115,1741,9
1779267434.689169,2191,1841,9
1779267434.6893382,2070,1830,9
1779267434.690242,1940,1751,9
1779267434.6937978,1934,1851,9
1779267434.694295,2139,1948,9
1779267434.696876,2155,2013,9
1779267434.700406,2042,1909,9
1779267434.700736,2076,1951,9
1779267434.70785,1994,1944,9
1779267434.708404,2071,1920,9
1779267434.708684,2073,1876,9
1779267434.709131,2071,1865,9
1779267434.71369,2088,1934,9
1779267434.71381,2114,2008,9
1779267434.7138839,2076,2077,9
1779267434.716625,2118,2059,9
1779267434.725065,2114,1974,9
1779267434.726272,2111,2063,9
1779267434.729569,2083,1996,9
1779267434.729908,2044,1939,9
1779267434.730266,2013,1940,9
1779267434.730617,2194,1981,9
1779267434.7334778,2191,1988,9
1779267434.734411,2089,2070,9
1779267434.734612,1993,2009,9
1779267434.736879,2185,2082,9
1779267434.7485068,2095,2016,9
1779267434.748629,2049,1929,9
1779267434.748706,2058,1930,9
1779267434.748779,2002,2061,9
1779267434.748845,1953,2055,9
1779267434.748909,2252,2084,9
1779267434.750592,2013,1984,9
1779267434.752044,2167,1968,9
1779267434.753559,2113,2017,9
1779267434.756217,2122,2073,9
1779267434.763586,2141,2182,9
1779267434.7646668,2045,2202,9
1779267434.766238,2040,2296,9
1779267434.769674,2061,2301,9
1779267434.7701702,1987,2315,9
1779267434.770445,1979,2141,9
1779267434.7706969,2029,2105,9
1779267434.774664,2033,2094,9
1779267434.784076,2052,2065,9
1779267434.7846022,2109,2113,9
1779267434.785603,2145,2232,9
1779267434.786192,2075,2266,9
1779267434.789591,2000,2195,9
1779267434.7906518,2024,2058,9
1779267434.7910452,1965,2029,9
1779267434.7912571,2035,2017,9
1779267434.791403,2109,1843,9
1779267434.791486,1876,1893,9
1779267434.7941818,2032,2130,9
1779267434.8032372,2228,2155,9
1779267434.805983,1884,2023,9
1779267434.8087401,2030,1982,9
1779267434.816828,2071,1945,9
1779267434.817489,2016,1928,9
1779267434.8177001,1946,1733,9
1779267434.818159,1999,1761,9
1779267434.821841,1980,1908,9
1779267434.822243,1956,1984,9
1779267434.823659,1893,1914,9
1779267434.823783,1901,1783,9
1779267434.823862,2238,1841,9
1779267434.8239439,2237,1985,9
1779267434.824022,2235,2082,9
1779267434.824094,1731,2108,9
1779267434.825485,1839,2197,9
1779267434.828535,2291,2265,9
1779267434.829939,2273,2264,9
1779267434.831291,1780,2313,9
1779267434.84041,2250,2295,9
1779267434.843285,2417,2155,9
1779267434.8435159,1992,1979,9
1779267434.8454661,1688,1953,9
1779267434.846304,1889,2122,9
1779267434.847219,2057,2190,9
1779267434.849428,1710,2053,9
1779267434.8496451,2336,1970,9
1779267434.856272,1988,2022,9
1779267434.860766,1183,1744,9
1779267434.8609018,1757,1535,9
1779267434.860998,3263,1561,9
1779267434.8610759,2310,1658,9
1779267434.86114,2250,1746,9
1779267434.8625228,1884,1721,9
1779267434.864458,2165,1543,9
1779267434.8787599,2126,1532,9
1779267434.8814101,1920,1501,9
1779267434.88179,1597,1360,9
1779267434.886852,1691,1152,9
1779267434.887312,2056,1305,9
1779267434.891229,1987,1596,9
1779267434.891726,2053,1595,9
1779267434.891883,2052,1475,9
1779267434.8919702,2001,1361,9
1779267434.892042,2000,1413,9
1779267434.892171,2160,1414,9
1779267434.892266,2170,1227,9
1779267434.89238,1907,1454,9
1779267434.8925068,1976,1687,9
1779267434.8938618,2172,1760,9
1779267434.896491,1865,1540,9
1779267434.897829,2060,1377,9
1779267434.906208,2160,1440,9
1779267434.90916,2195,1344,9
1779267434.9097369,2050,1028,9
1779267434.9099772,1890,1021,9
1779267434.914762,2102,1205,9
1779267434.915002,2043,1453,9
1779267434.9151628,2094,1477,9
1779267434.920311,2100,1337,9
1779267434.9206479,1907,1386,9
1779267434.921269,2037,1437,9
1779267434.9215841,2059,1209,9
1779267434.921932,1882,1161,9
1779267434.924601,1889,1257,9
1779267434.925941,1708,1540,9
1779267434.927237,1801,1550,9
1779267434.933559,2163,1470,9
1779267434.938035,2033,1329,9
1779267434.94034,1861,1385,9
1779267434.94164,1773,1278,9
1779267434.94187,2403,1118,9
1779267434.943845,2210,1189,9
1779267434.944136,1792,1559,9
1779267434.949177,1903,1557,9
1779267434.949645,2169,1315,9
1779267434.9499002,2045,1249,9
1779267434.950366,1761,1442,9
1779267434.953585,2005,1392,9
1779267434.9537501,2385,1093,9
1779267434.9564831,2136,1338,9
1779267434.957824,1554,1608,9
1779267434.964687,1664,1709,9
1779267434.965926,3020,1529,9
1779267434.968235,1949,1325,9
1779267434.9685361,1591,1581,9
1779267434.970048,2218,1592,9
1779267434.9713469,2071,1148,9
1779267434.972916,2004,1031,9
1779267434.977262,2062,1601,9
1779267434.977522,1987,1925,9
1779267434.977826,1914,1595,9
1779267434.9805608,1991,1403,9
1779267434.9818811,1875,1344,9
1779267434.983207,2286,1418,9
1779267434.9883451,1997,1238,9
1779267434.989023,1839,1126,9
1779267434.990156,1789,1241,9
1779267434.992148,2262,1617,9
1779267434.994089,1824,1651,9
1779267434.9961228,1885,1348,9
1779267435.0003898,2187,1223,9
1779267435.0008261,1940,1374,9
1779267435.003981,1862,1190,9
1779267435.004122,1850,925,9
1779267435.005745,1948,1113,9
1779267435.007211,1787,1471,9
1779267435.0098271,1983,1523,9
1779267435.015888,1902,1235,9
1779267435.0193238,1788,1209,9
1779267435.0196228,1830,1366,9
1779267435.022558,1883,1441,9
1779267435.024496,1954,1135,9
1779267435.028886,1983,1076,9
1779267435.029204,1965,1405,9
1779267435.0295901,1869,1766,9
1779267435.030008,1885,1515,9
1779267435.030177,1895,1277,9
1779267435.033319,1878,1235,9
1779267435.0334022,1982,1298,9
1779267435.040417,1871,1139,9
1779267435.0410728,1906,1077,9
1779267435.041802,1877,1196,9
1779267435.044527,1770,1608,9
1779267435.0448818,1958,1639,9
1779267435.048769,1912,1399,9
1779267435.0534751,2102,1260,9
1779267435.054185,1960,1365,9
1779267435.0545049,1931,1233,9
1779267435.057293,1941,1064,9
1779267435.057554,1839,1279,9
1779267435.0576131,1724,1573,9
1779267435.060213,2324,1782,9
1779267435.0614522,2110,1546,9
1779267435.068307,1967,1349,9
1779267435.0690088,1956,1316,9
1779267435.0696561,1950,1375,9
1779267435.0719879,1952,1022,9
1779267435.072337,2019,1276,9
1779267435.074518,1930,1370,9
1779267435.076842,1816,1703,9
1779267435.084078,2122,1538,9
1779267435.084428,1872,1299,9
1779267435.084505,1997,1170,9
1779267435.084575,2238,1421,9
1779267435.085923,2042,1128,9
1779267435.0956879,1981,1255,9
1779267435.096211,2163,1266,9
1779267435.09826,1650,1791,9
1779267435.099765,2113,1699,9
1779267435.101747,2318,1401,9
1779267435.106619,2009,1322,9
1779267435.106986,1915,1433,9
1779267435.1075032,1924,1229,9
1779267435.107736,1976,1182,9
1779267435.11077,2074,1317,9
1779267435.1109052,2122,1618,9
1779267435.110991,2090,1804,9
1779267435.1128378,2058,1519,9
1779267435.114232,2202,1327,9
1779267435.115656,1961,1328,9
1779267435.123286,1981,1416,9
1779267435.124449,2033,1049,9
1779267435.126693,2054,1401,9
1779267435.129222,1900,1432,9
1779267435.1299672,1963,2023,9
1779267435.1318002,2241,1828,9
1779267435.13613,2129,1516,9
1779267435.13653,1882,1415,9
1779267435.1369421,2015,1569,9
1779267435.1372428,2364,1249,9
1779267435.137714,2000,1437,9
1779267435.1415281,2099,1294,9
1779267435.141741,2223,1732,9
1779267435.143185,2030,1470,9
1779267435.149228,1947,1043,9
1779267435.151157,1914,840,9
1779267435.153107,2071,944,9
1779267435.1535711,2213,781,9
1779267435.158037,2012,1243,9
1779267435.162344,2026,1303,9
1779267435.162663,2232,1165,9
1779267435.162952,2028,1567,9
1779267435.1633081,2013,1362,9
1779267435.1636732,2108,1198,9
1779267435.166744,1990,1150,9
1779267435.168177,1970,1157,9
1779267435.169703,1986,1047,9
1779267435.172346,1868,1392,9
1779267435.1739872,1883,1206,9
1779267435.179415,2089,1850,9
1779267435.181246,2066,1642,9
1779267435.183305,1733,1433,9
1779267435.18376,2150,1379,9
1779267435.185855,2562,1498,9
1779267435.186642,2172,1113,9
1779267435.188472,2150,1432,9
1779267435.192557,2170,1312,9
1779267435.192937,2023,1876,9
1779267435.1960819,1917,1931,9
1779267435.1963892,2126,1633,9
1779267435.197814,1985,1519,9
1779267435.204048,1794,1616,9
1779267435.205963,1899,1442,9
1779267435.2081,2081,1371,9
1779267435.20861,2097,1513,9
1779267435.2107038,2063,1851,9
1779267435.211025,1957,2106,9
1779267435.2112908,2197,1754,9
1779267435.217485,2075,1632,9
1779267435.217875,1921,1611,9
1779267435.218142,1706,1641,9
1779267435.221604,1818,1222,9
1779267435.221736,2238,1639,9
1779267435.223181,2074,1657,9
1779267435.2258098,2019,2171,9
1779267435.227175,2103,1905,9
1779267435.233773,2202,1602,9
1779267435.234646,1982,1472,9
1779267435.2353868,2204,1630,9
1779267435.2360718,2209,1336,9
1779267435.240232,2048,1624,9
1779267435.2410681,1839,1573,9
1779267435.2412858,1928,2198,9
1779267435.247241,2290,2062,9
1779267435.2478158,2284,1622,9
1779267435.2483041,2078,1531,9
1779267435.2514088,2127,1702,9
1779267435.251561,1969,1562,9
1779267435.2599628,1980,1493,9
1779267435.2607481,2062,1633,9
1779267435.2614431,1981,1993,9
1779267435.263642,2017,2192,9
1779267435.2639518,2007,1847,9
1779267435.267832,2007,1580,9
1779267435.268237,2035,1683,9
1779267435.272799,2011,1830,9
1779267435.273227,1981,1382,9
1779267435.27355,2008,1728,9
1779267435.276056,2081,1957,9
1779267435.276274,2016,2444,9
1779267435.277696,2055,1980,9
1779267435.280425,2111,1680,9
1779267435.28191,2045,1660,9
1779267435.288799,2025,1850,9
1779267435.2907279,2016,1554,9
1779267435.292829,1998,1686,9
1779267435.295956,1974,1857,9
1779267435.301541,2187,2406,9
1779267435.30192,1923,2190,9
1779267435.3023858,1909,1741,9
1779267435.302806,2090,1577,9
1779267435.303369,2346,1814,9
1779267435.306392,2167,1692,9
1779267435.3067589,1916,1538,9
1779267435.3068469,2258,1697,9
1779267435.3084009,2205,2171,9
1779267435.317916,2188,2364,9
1779267435.320113,2146,2005,9
1779267435.32337,1975,1703,9
1779267435.327467,2008,1758,9
1779267435.3278441,2036,1834,9
1779267435.328425,2076,1473,9
1779267435.328602,1989,1792,9
1779267435.3288882,1942,2065,9
1779267435.329225,2149,2513,9
1779267435.3295932,2055,2155,9
1779267435.332003,2020,1759,9
1779267435.332953,1965,1757,9
1779267435.3343208,1875,1961,9
1779267435.335743,2096,1654,9
1779267435.337095,2193,1775,9
1779267435.345866,2148,1857,9
1779267435.3470452,2028,2420,9
1779267435.349138,2064,2210,9
1779267435.349531,2027,1779,9
1779267435.3498912,2125,1683,9
1779267435.351829,2169,1910,9
1779267435.35249,2009,1779,9
1779267435.3544168,1986,1621,9
1779267435.358382,1902,1824,9
1779267435.358704,2107,2304,9
1779267435.3620749,2135,2411,9
1779267435.362526,2128,1934,9
1779267435.364012,2220,1642,9
1779267435.372502,2228,1830,9
1779267435.374878,2136,1933,9
1779267435.377717,1990,1503,9
1779267435.379468,1938,1833,9
1779267435.3837109,2095,2141,9
1779267435.384017,2044,2556,9
1779267435.384508,1995,2080,9
1779267435.3847198,1970,1758,9
1779267435.3851159,1910,1723,9
1779267435.387564,1863,1975,9
1779267435.388638,2137,1641,9
1779267435.388774,2093,1788,9
1779267435.390136,2030,1842,9
1779267435.3915021,2057,2467,9
1779267435.3941271,2203,2231,9
1779267435.3993962,2105,1792,9
1779267435.4006588,1965,1622,9
1779267435.4008949,2034,1828,9
1779267435.404347,2114,1686,9
1779267435.4074361,2024,1641,9
1779267435.409364,2058,1800,9
1779267435.4135082,2016,2278,9
1779267435.414047,2064,2382,9
1779267435.414668,2125,1926,9
1779267435.414834,2070,1810,9
1779267435.4179919,2008,1886,9
1779267435.4181068,2049,1918,9
1779267435.419451,2020,1443,9
1779267435.425712,2029,1881,9
1779267435.426498,2159,2035,9
1779267435.427229,2150,2443,9
1779267435.4296901,2019,2045,9
1779267435.4320261,1850,1726,9
1779267435.432238,1967,1595,9
1779267435.434418,2226,1857,9
1779267435.4385998,2473,1462,9
1779267435.439129,2066,1834,9
1779267435.439692,1757,1903,9
1779267435.442975,1798,2585,9
1779267435.443102,2046,2289,9
1779267435.445737,2059,1686,9
1779267435.448213,2171,1669,9
1779267435.457952,2246,1897,9
1779267435.460256,2116,1715,9
1779267435.462517,1508,1675,9
1779267435.4629672,2431,1802,9
1779267435.467086,2893,1924,9
1779267435.467602,1984,2611,9
1779267435.468058,1218,2127,9
1779267435.468243,2439,1754,9
1779267435.4705439,2517,1734,9
1779267435.471618,1268,1879,9
1779267435.471746,2524,1494,9
1779267435.4718342,2130,1933,9
1779267435.473212,1782,2312,9
1779267435.47882,1959,2656,9
1779267435.483127,2820,2118,9
1779267435.485355,2581,1813,9
1779267435.487871,1727,1783,9
1779267435.49215,1648,2068,9
1779267435.4924722,2077,1738,9
1779267435.4928799,2216,1887,9
1779267435.493214,1930,1796,9
1779267435.496363,2359,2533,9
1779267435.496717,2212,2189,9
1779267435.496869,1868,1942,9
1779267435.4982421,1429,1812,9
1779267435.4996521,2400,1937,9
1779267435.50107,3017,1756,9
1779267435.509279,2184,1762,9
1779267435.511898,1188,1929,9
1779267435.512341,2300,2474,9
1779267435.51453,2289,2543,9
1779267435.5153291,1173,2051,9
1779267435.517112,2546,1765,9
1779267435.521264,2514,1911,9
1779267435.521827,1982,2002,9
1779267435.522279,1767,1793,9
1779267435.522571,1626,1941,9
1779267435.525853,3129,1991,9
1779267435.5259871,2743,2978,9
1779267435.527349,1519,2385,9
1779267435.533549,1805,1835,9
1779267435.535267,2261,1882,9
1779267435.535404,2542,2262,9
1779267435.537678,2345,1938,9
1779267435.5410671,1979,1937,9
1779267435.543575,2183,2499,9
1779267435.54392,2097,2950,9
1779267435.544364,2869,2570,9
1779267435.5484731,2308,1980,9
1779267435.548863,2277,1969,9
1779267435.5491042,3068,2257,9
1779267435.5522509,2409,2295,9
1779267435.553638,1922,2107,9
1779267435.5551019,1726,2613,9
1779267435.5577972,2554,3121,9
1779267435.559593,2829,3044,9
1779267435.565592,2230,2415,9
1779267435.567329,1400,2303,9
1779267435.5696661,1748,3036,9
1779267435.572483,1609,3037,9
1779267435.574688,3578,2799,9
1779267435.574923,2487,2995,9
1779267435.579885,1687,3801,9
1779267435.580296,1869,3949,9
1779267435.580498,1993,2806,9
1779267435.580769,2441,2439,9
1779267435.584359,2163,2921,9
1779267435.584752,2372,3888,9
1779267435.586209,1363,3998,9
1779267435.587892,1923,4063,9
1779267435.5946162,2190,4095,9
1779267435.596024,2097,4095,9
1779267435.5962188,1408,3480,9
1779267435.59884,2375,3008,9
1779267435.5993311,3805,3128,9
1779267435.601839,1524,3689,9
1779267435.602101,1843,4095,9
1779267435.609259,1601,4095,9
1779267435.6097548,2565,4095,9
1779267435.609987,1634,4095,9
1779267435.6103559,2178,3980,9
1779267435.613751,1745,3608,9
1779267435.614201,1888,3518,9
1779267435.6156318,1607,3715,9
1779267435.617045,2234,4058,9
1779267435.619763,2042,4095,9
1779267435.621734,1718,4095,9
1779267435.627952,1997,4095,9
1779267435.628823,1270,4095,9
1779267435.632462,3400,3922,9
1779267435.632829,2640,3799,9
1779267435.635303,1145,3828,9
1779267435.642345,2026,3973,9
1779267435.643151,2093,4095,9
1779267435.643519,1498,4095,9
1779267435.6438642,2273,4095,9
1779267435.644138,2664,4095,9
1779267435.644372,1259,4058,9
1779267435.648094,2053,3955,9
1779267435.648187,1913,3930,9
1779267435.649599,2038,3975,9
1779267435.657297,1348,4062,9
1779267435.657532,3131,3974,9
1779267435.659542,2375,3852,9
1779267435.6619678,1618,3901,9
1779267435.6623979,2122,3807,9
1779267435.664595,2214,3614,9
1779267435.6656132,1608,3636,9
1779267435.665901,2108,3511,9
1779267435.667845,1635,3348,9
1779267435.673544,2772,3221,9
1779267435.673933,1977,3149,9
1779267435.6743171,1637,3253,9
1779267435.677717,2281,3148,9
1779267435.6780632,2205,2885,9
1779267435.6794171,2005,2962,9
1779267435.6822772,1229,2995,9
1779267435.683672,2432,2694,9
1779267435.685146,2818,3085,9
1779267435.6924438,1115,2876,9
1779267435.693829,931,2786,9
1779267435.6964118,2377,2728,9
1779267435.698404,2926,2632,9
1779267435.7000241,2836,2508,9
1779267435.701888,2248,2466,9
1779267435.702061,646,2774,9
1779267435.702278,1550,2624,9
1779267435.7073832,2914,2607,9
1779267435.707846,2142,2685,9
1779267435.708225,1624,2599,9
1779267435.712266,1654,2663,9
1779267435.712428,2323,2542,9
1779267435.713703,1276,2414,9
1779267435.7151868,1831,2334,9
1779267435.722189,3995,2369,9
1779267435.72245,2158,2460,9
1779267435.722611,1666,2385,9
1779267435.726178,2582,2206,9
1779267435.728024,1620,2367,9
1779267435.7289112,1504,2473,9
1779267435.731255,2520,2389,9
1779267435.736382,1336,2352,9
1779267435.736981,2505,2389,9
1779267435.7374358,1981,2518,9
1779267435.737996,2170,2622,9
1779267435.7407029,1686,2498,9
1779267435.74209,1682,2327,9
1779267435.7434392,2531,2440,9
1779267435.7460659,2706,2264,9
1779267435.747422,3123,2561,9
1779267435.749183,787,2446,9
1779267435.755929,1485,2716,9
1779267435.759629,2486,2767,9
1779267435.759936,2018,2567,9
1779267435.760253,2134,2420,9
1779267435.762646,1990,2424,9
1779267435.763515,2322,2634,9
1779267435.765604,1165,2288,9
1779267435.766069,1263,2287,9
1779267435.7713249,4048,2400,9
1779267435.772608,1220,2504,9
1779267435.775893,2111,2400,9
1779267435.776237,2716,2350,9
1779267435.776316,1857,2396,9
1779267435.777667,1829,2355,9
1779267435.7791,1590,2428,9
1779267435.784408,1642,2357,9
1779267435.7856221,2227,2668,9
1779267435.7865129,2048,2427,9
1779267435.789474,1175,2092,9
1779267435.789866,2551,2170,9
1779267435.7928152,3511,2419,9
1779267435.794718,1583,2344,9
1779267435.8001852,1967,2430,9
1779267435.8006332,1667,2241,9
1779267435.801173,2831,1913,9
1779267435.805283,2925,2254,9
1779267435.805675,2091,2763,9
1779267435.80587,1239,2585,9
1779267435.807269,1437,2168,9
1779267435.809994,2301,2537,9
1779267435.81134,3252,2473,9
1779267435.820122,1422,1885,9
1779267435.8216279,1661,1706,9
1779267435.82228,2489,2127,9
1779267435.824496,1765,2491,9
1779267435.824833,969,2044,9
1779267435.825315,2741,1960,9
1779267435.82561,2575,1717,9
1779267435.8295329,1316,1843,9
1779267435.831902,1973,2032,9
1779267435.832352,3482,2302,9
1779267435.839179,1881,1956,9
1779267435.839865,1997,2310,9
1779267435.84011,1949,2057,9
1779267435.840936,2451,1804,9
1779267435.8443341,2402,1836,9
1779267435.844519,1533,2111,9
1779267435.845887,1899,1900,9
1779267435.847261,3420,2039,9
1779267435.856226,1879,2192,9
1779267435.857236,1813,1973,9
1779267435.8574688,2116,1679,9
1779267435.859025,2341,1899,9
1779267435.861862,2837,1936,9
1779267435.862269,2272,2167,9
1779267435.862608,1429,1988,9
1779267435.865558,2270,1968,9
1779267435.8665679,2636,2563,9
1779267435.869069,1466,2630,9
1779267435.869487,1925,2717,9
1779267435.876311,1951,2541,9
1779267435.877166,3881,2554,9
1779267435.87768,2457,2146,9
1779267435.877985,1411,2563,9
1779267435.882285,1712,2648,9
1779267435.8824499,1886,2373,9
1779267435.8838139,2720,2308,9
1779267435.885283,2063,2551,9
1779267435.8881001,1897,2505,9
1779267435.889812,2640,2354,9
1779267435.898985,1881,2283,9
1779267435.903091,1296,2374,9
1779267435.9037912,2512,2212,9
1779267435.904119,2856,2160,9
1779267435.90432,2195,2207,9
1779267435.907404,1737,2410,9
1779267435.908532,2191,2373,9
1779267435.908829,2667,1980,9
1779267435.911166,1887,1913,9
1779267435.911399,436,1979,9
1779267435.911726,2546,1721,9
1779267435.917652,3860,1887,9
1779267435.9180229,1975,1804,9
1779267435.918321,1586,1732,9
1779267435.922515,2135,1686,9
1779267435.922614,2156,1887,9
1779267435.92396,1969,1527,9
1779267435.925465,2284,1284,9
1779267435.931714,1672,1445,9
1779267435.93308,2101,1494,9
1779267435.935955,3579,1263,9
1779267435.936351,1950,1452,9
1779267435.936757,1444,1348,9
1779267435.943437,2550,927,9
1779267435.943799,3027,1712,9
1779267435.9441931,2288,1442,9
1779267435.9511092,2672,1420,9
1779267435.951458,1357,1884,9
1779267435.951841,1238,1750,9
1779267435.952086,1767,1714,9
1779267435.9523342,2734,1762,9
1779267435.95696,2623,1991,9
1779267435.95744,1989,1574,9
1779267435.957591,2211,1905,9
1779267435.9589891,707,1811,9
1779267435.961743,3220,1812,9
1779267435.9631019,3205,2102,9
1779267435.9661398,1738,2068,9
1779267435.973084,1549,2173,9
1779267435.974171,1828,2429,9
1779267435.9758,1342,2267,9
1779267435.976788,3511,2111,9
1779267435.9795258,2333,2372,9
1779267435.980032,1061,2315,9
1779267435.9803479,1806,2297,9
1779267435.983945,2122,2499,9
1779267435.986399,1745,2537,9
1779267435.993215,2110,2676,9
1779267435.997163,2919,2907,9
1779267435.997531,1731,2460,9
1779267435.9985652,2155,2089,9
1779267435.998998,2265,2653,9
1779267435.999079,2211,2880,9
1779267435.999155,2233,2903,9
1779267435.999224,2969,2542,9
1779267436.001921,1181,2731,9
1779267436.009103,1765,2806,9
1779267436.01064,2835,2790,9
1779267436.0121841,1927,2846,9
1779267436.0153441,2218,2980,9
1779267436.015894,2015,2860,9
1779267436.022493,1536,2590,9
1779267436.0299509,2753,2950,9
1779267436.0302489,1833,3028,9
1779267436.030703,2225,2917,9
1779267436.031143,1905,2772,9
1779267436.031531,1729,2590,9
1779267436.031855,2059,2527,9
1779267436.032105,2186,2447,9
1779267436.032406,2316,2472,9
1779267436.032555,2407,2682,9
1779267436.037056,1627,2821,9
1779267436.037157,2024,2702,9
1779267436.037228,2676,2596,9
1779267436.040245,2002,2538,9
1779267436.0416791,2022,1940,9
1779267436.043145,1819,2226,9
1779267436.046016,2047,2421,9
1779267436.058655,1727,2559,9
1779267436.071695,1865,2146,9
1779267436.0724359,2709,2314,9
1779267436.076261,2472,2450,9
1779267436.077417,1477,2209,9
1779267436.077792,1817,2200,9
1779267436.077869,2134,2257,9
1779267436.07794,1973,2347,9
1779267436.0780091,2430,2205,9
1779267436.078082,2130,2156,9
1779267436.078152,1585,2343,9
1779267436.0782158,1897,2485,9
1779267436.0782778,2489,2334,9
1779267436.078343,2407,1871,9
1779267436.0784042,1787,2143,9
1779267436.078464,1558,2255,9
1779267436.0798411,1773,1902,9
1779267436.0816221,2635,2248,9
1779267436.089281,1981,2547,9
1779267436.092151,2098,2352,9
1779267436.092469,1525,2000,9
1779267436.0928278,1479,1890,9
1779267436.093211,2610,1785,9
1779267436.096139,2551,2100,9
1779267436.0971708,1971,2136,9
1779267436.0975769,2017,2065,9
1779267436.100064,2257,2073,9
1779267436.10752,1962,2146,9
1779267436.108263,1894,2252,9
1779267436.108665,1955,2190,9
1779267436.109361,1712,1961,9
1779267436.112256,2249,1908,9
1779267436.113125,1871,2067,9
1779267436.113555,2193,2098,9
1779267436.1149912,1966,1934,9
1779267436.117611,2145,1832,9
1779267436.118974,2329,2271,9
1779267436.126657,1095,2096,9
1779267436.128713,1765,1848,9
1779267436.1317801,3665,1775,9
1779267436.1322281,1573,2037,9
1779267436.1380281,1432,2223,9
1779267436.138474,1834,2055,9
1779267436.144969,2015,2160,9
1779267436.145806,2065,2270,9
1779267436.149482,1960,1981,9
1779267436.149673,1999,1721,9
1779267436.1498291,1907,1807,9
1779267436.149899,1797,2042,9
1779267436.150018,1324,2032,9
1779267436.150144,2419,2078,9
1779267436.150219,2371,2002,9
1779267436.151575,1725,2280,9
1779267436.1622431,2445,2259,9
1779267436.162529,1729,1938,9
1779267436.162922,1890,1662,9
1779267436.1677692,2339,2034,9
1779267436.173984,1728,2311,9
1779267436.174253,1849,2234,9
1779267436.174786,1897,1971,9
1779267436.1750138,1780,2156,9
1779267436.177724,1814,2257,9
1779267436.178889,2022,2172,9
1779267436.179144,1781,1918,9
1779267436.1793149,1836,2031,9
1779267436.179392,2011,2136,9
1779267436.179486,1944,2254,9
1779267436.1821,1783,2248,9
1779267436.1834319,2005,2181,9
1779267436.1861079,1831,2451,9
1779267436.191424,2639,2392,9
1779267436.192843,2277,2018,9
1779267436.1930618,1945,1833,9
1779267436.193724,1703,2245,9
1779267436.196825,1990,2465,9
1779267436.19921,2200,2372,9
1779267436.2000132,1998,2047,9
1779267436.207902,2047,2264,9
1779267436.2081652,1799,2326,9
1779267436.208599,1865,1918,9
1779267436.208925,1596,1843,9
1779267436.2091289,2169,1965,9
1779267436.212545,2796,2071,9
1779267436.213922,2344,2333,9
1779267436.2153459,2012,2171,9
1779267436.22118,1801,2193,9
1779267436.223086,1763,2185,9
1779267436.225625,2066,2176,9
1779267436.2259579,2126,1958,9
1779267436.2263339,1816,1798,9
1779267436.228502,1819,2236,9
1779267436.23733,1929,2246,9
1779267436.237961,2414,1969,9
1779267436.238594,2253,1951,9
1779267436.238816,1911,2234,9
1779267436.241227,2167,2239,9
1779267436.241842,1955,1985,9
1779267436.242211,1908,1840,9
1779267436.243579,2132,2103,9
1779267436.2449422,1961,2286,9
1779267436.247524,1628,2301,9
1779267436.2521641,2475,2133,9
1779267436.253411,2307,2279,9
1779267436.257154,2278,2462,9
1779267436.2591622,1781,2264,9
1779267436.259379,1961,1983,9
1779267436.260108,2043,2152,9
1779267436.261633,1870,2413,9
1779267436.2667148,2123,2371,9
1779267436.267023,2059,2251,9
1779267436.2672598,1765,2310,9
1779267436.2703948,2036,2472,9
1779267436.2718039,2036,2219,9
1779267436.2770078,2019,2135,9
1779267436.277627,2282,2120,9
1779267436.279213,2215,2375,9
1779267436.2812002,1999,2359,9
1779267436.281483,1806,2357,9
1779267436.2837918,1768,2381,9
1779267436.285596,2048,2358,9
1779267436.290709,2156,2419,9
1779267436.290893,1976,2129,9
1779267436.2911842,2638,1947,9
1779267436.2941818,2117,2203,9
1779267436.295629,1734,2474,9
1779267436.2969851,2314,2437,9
1779267436.299566,1718,2312,9
1779267436.3061671,1944,2410,9
1779267436.3069189,1634,2521,9
1779267436.309259,1858,2376,9
1779267436.30966,2973,2243,9
1779267436.321586,1727,2384,9
1779267436.321672,1810,2496,9
1779267436.32182,2054,2634,9
1779267436.32188,2205,2547,9
1779267436.322011,2220,2568,9
1779267436.322077,1918,2602,9
1779267436.322133,2045,2429,9
1779267436.330266,1804,2323,9
1779267436.332896,1718,2426,9
1779267436.3333519,2064,2593,9
1779267436.335818,2355,2780,9
1779267436.342568,1835,2620,9
1779267436.3427808,2049,2435,9
1779267436.3429508,1855,2627,9
1779267436.3431349,2769,2635,9
1779267436.343542,2140,2377,9
1779267436.343816,1708,2315,9
1779267436.344098,1997,2346,9
1779267436.346992,2070,2342,9
1779267436.347305,2138,2341,9
1779267436.349726,2080,2275,9
1779267436.3511271,1905,2314,9
1779267436.353874,2186,2345,9
1779267436.363276,2358,2282,9
1779267436.363772,1926,1978,9
1779267436.366152,2108,2353,9
1779267436.368753,2106,2380,9
1779267436.3746939,2253,2394,9
1779267436.375604,1871,2483,9
1779267436.3787441,1774,2221,9
1779267436.379067,1971,2354,9
1779267436.3791292,2130,2133,9
1779267436.379222,2338,2031,9
1779267436.379353,1909,2015,9
1779267436.37945,1779,2226,9
1779267436.379555,2377,2308,9
1779267436.3810308,2248,2258,9
1779267436.390589,2268,2171,9
1779267436.3911989,2090,2399,9
1779267436.393345,1948,2272,9
1779267436.394235,1949,2104,9
1779267436.40123,1842,2000,9
1779267436.4015749,2441,2257,9
1779267436.4018838,2082,2353,9
1779267436.402199,2078,2238,9
1779267436.402592,2184,2107,9
1779267436.4030788,2231,2210,9
1779267436.406173,2093,2069,9
1779267436.4062998,2040,1963,9
1779267436.407723,1989,1718,9
1779267436.4091442,1995,1953,9
1779267436.4117508,2008,2211,9
1779267436.417228,2154,2219,9
1779267436.418565,1912,2242,9
1779267436.419903,1980,2255,9
1779267436.4221592,2233,2298,9
1779267436.424643,2080,2114,9
1779267436.426831,1861,1951,9
1779267436.427161,2150,1966,9
1779267436.432391,2430,2021,9
1779267436.432735,1961,2097,9
1779267436.433395,1968,1974,9
1779267436.433697,2011,1850,9
1779267436.436694,1957,1960,9
1779267436.438317,2736,1693,9
1779267436.445821,2134,1888,9
1779267436.4482539,1320,1867,9
1779267436.448871,1911,2084,9
1779267436.4511821,2293,2066,9
1779267436.453722,1980,2051,9
1779267436.458984,2240,1936,9
1779267436.459473,2050,2002,9
1779267436.459965,1966,2041,9
1779267436.460246,1810,1974,9
1779267436.460453,2314,1833,9
1779267436.4608152,2544,1838,9
1779267436.461063,2039,1985,9
1779267436.464154,1954,2061,9
1779267436.465548,2034,1938,9
1779267436.466966,1987,1850,9
1779267436.4696,1998,1884,9
1779267436.476448,2748,1821,9
1779267436.477726,2158,1703,9
1779267436.479646,1827,1766,9
1779267436.4799948,1952,1959,9
1779267436.4841,2102,2091,9
1779267436.4895601,1999,2054,9
1779267436.489963,2089,2039,9
1779267436.4902499,2050,2152,9
1779267436.49079,1807,2116,9
1779267436.4911711,1911,1913,9
1779267436.4914849,2321,1909,9
1779267436.494425,1973,2210,9
1779267436.495578,2530,2200,9
1779267436.5016499,2082,2152,9
1779267436.502453,2093,2127,9
1779267436.5035908,2133,2167,9
1779267436.514653,2060,2048,9
1779267436.515282,1999,1937,9
1779267436.515711,2012,1904,9
1779267436.516316,1936,2118,9
1779267436.519189,1895,2189,9
1779267436.519567,1838,2170,9
1779267436.51967,1988,2056,9
1779267436.519776,2614,1935,9
1779267436.519928,2059,1911,9
1779267436.5213451,1838,1775,9
1779267436.524022,1827,1601,9
1779267436.525408,2466,1719,9
1779267436.53172,2206,1777,9
1779267436.5324721,1999,1729,9
1779267436.5336268,2042,1719,9
1779267436.535578,2047,1689,9
1779267436.5358238,2037,1743,9
1779267436.540385,2016,1577,9
1779267436.5458019,2052,1624,9
1779267436.54653,2084,1652,9
1779267436.546918,2014,1570,9
1779267436.547182,2156,1547,9
1779267436.547591,2043,1627,9
1779267436.550581,1889,1545,9
1779267436.5519528,2066,1642,9
1779267436.557755,2120,1595,9
1779267436.559568,2070,1596,9
1779267436.5598211,2010,1579,9
1779267436.562411,2036,1690,9
1779267436.562939,2027,1782,9
1779267436.565603,2033,1756,9
1779267436.5724401,2234,1666,9
1779267436.572958,2149,1690,9
1779267436.573827,2054,1708,9
1779267436.574346,2071,1640,9
1779267436.5746582,1992,1498,9
1779267436.577621,2017,1591,9
1779267436.5779042,2011,1665,9
1779267436.579196,2016,1676,9
1779267436.5818582,2118,1643,9
1779267436.583232,2036,1733,9
1779267436.591777,2057,1674,9
1779267436.594197,2032,1662,9
1779267436.594541,2017,1687,9
1779267436.594938,2050,1705,9
1779267436.597196,2109,1912,9
1779267436.599526,2091,1881,9
1779267436.600045,2033,1949,9
1779267436.605012,2020,1906,9
1779267436.605792,2022,1862,9
1779267436.606345,1997,1817,9
1779267436.6098628,1963,1810,9
1779267436.609951,2122,1758,9
1779267436.610023,1984,1852,9
1779267436.61151,1979,1977,9
1779267436.618377,2098,1968,9
1779267436.619584,1985,1899,9
1779267436.621703,2150,1984,9
1779267436.6240819,2175,1908,9
1779267436.626563,2080,1804,9
1779267436.63149,2021,1759,9
1779267436.6320179,2008,1919,9
1779267436.6325068,2056,2046,9
1779267436.632957,1946,2008,9
1779267436.6352901,1960,2059,9
1779267436.63631,2301,2033,9
1779267436.636788,2161,1997,9
1779267436.636958,1919,1936,9
1779267436.639704,1856,2150,9
1779267436.6410801,2084,2326,9
1779267436.64899,2363,2152,9
1779267436.650282,2173,2120,9
1779267436.6530612,2041,2119,9
1779267436.6536078,1963,2137,9
1779267436.656353,2027,2155,9
1779267436.658411,1910,2039,9
1779267436.663517,2006,1941,9
1779267436.663885,2075,2053,9
1779267436.664321,2190,2290,9
1779267436.667104,2145,2238,9
1779267436.668027,1872,2331,9
1779267436.6681118,2044,2212,9
1779267436.668184,2152,2283,9
1779267436.669576,2134,2320,9
1779267436.6763399,2028,2291,9
1779267436.679499,1860,2344,9
1779267436.684043,2066,2241,9
1779267436.684441,2360,2331,9
1779267436.68929,2207,2355,9
1779267436.689644,1861,2340,9
1779267436.689996,1924,2290,9
1779267436.690393,1961,2193,9
1779267436.6936262,1921,1999,9
1779267436.693779,2100,2030,9
1779267436.693873,1931,2193,9
1779267436.6939468,1715,2232,9
1779267436.695296,2190,2089,9
1779267436.697948,2336,2076,9
1779267436.699334,2152,2129,9
1779267436.707582,2092,2032,9
1779267436.713863,2138,2067,9
1779267436.7188532,2107,2058,9
1779267436.719357,2191,2018,9
1779267436.719827,2228,2182,9
1779267436.720331,2037,2142,9
1779267436.723516,1814,1976,9
1779267436.7240078,1968,1967,9
1779267436.724083,2054,1961,9
1779267436.724152,2032,1916,9
1779267436.7242198,1974,1707,9
1779267436.7243001,2002,2106,9
1779267436.725648,2060,2308,9
1779267436.735085,2151,2554,9
1779267436.7356522,1761,2533,9
1779267436.738364,1189,2518,9
1779267436.740572,1914,2343,9
1779267436.7462678,2896,2276,9
1779267436.74694,2387,2242,9
1779267436.747678,2045,2355,9
1779267436.748369,2046,2547,9
1779267436.751074,2118,2449,9
1779267436.7519748,2131,2282,9
1779267436.752084,2090,2282,9
1779267436.752198,2202,2172,9
1779267436.75232,2025,1905,9
1779267436.753688,1974,1670,9
1779267436.755028,1748,1720,9
1779267436.757673,1829,1823,9
1779267436.7633579,2047,1799,9
1779267436.765443,1814,1808,9
1779267436.766412,1902,1686,9
1779267436.7691891,2292,1617,9
1779267436.769481,2163,1397,9
1779267436.7719638,1960,1226,9
1779267436.775637,1920,1341,9
1779267436.781541,2066,1714,9
1779267436.782123,2176,2098,9
1779267436.78604,2022,1864,9
1779267436.786922,2098,1726,9
1779267436.787051,2167,1666,9
1779267436.787123,2084,1641,9
1779267436.787224,1690,1346,9
1779267436.7876968,1836,1543,9
1779267436.8160691,2152,1661,9
1779267436.816155,1938,1911,9
1779267436.8162172,1960,1735,9
1779267436.816275,2111,1587,9
1779267436.816332,1956,1614,9
1779267436.81717,2073,1552,9
1779267436.817247,2326,1212,9
1779267436.817307,1898,1199,9
1779267436.817365,1830,1279,9
1779267436.8174222,1795,1438,9
1779267436.817478,2012,1475,9
1779267436.817534,1864,1343,9
1779267436.81759,2418,1185,9
1779267436.817645,2397,1253,9
1779267436.818014,2243,1240,9
1779267436.819597,1842,1043,9
1779267436.8435159,1423,1079,9
1779267436.8436038,2253,1217,9
1779267436.8436658,2425,1322,9
1779267436.843724,2229,1211,9
1779267436.843777,2144,884,9
1779267436.843829,1929,930,9
1779267436.84388,1576,857,9
1779267436.843932,1687,724,9
1779267436.8439832,2242,842,9
1779267436.844034,2416,712,9
1779267436.844086,2056,954,9
1779267436.844137,1918,809,9
1779267436.8533802,1929,639,9
1779267436.8563871,2187,521,9
1779267436.856694,1931,438,9
1779267436.8570602,2157,593,9
1779267436.859048,2098,830,9
1779267436.860398,1814,628,9
1779267436.862657,2054,675,9
1779267436.8675892,2331,802,9
1779267436.8681018,1811,781,9
1779267436.868421,1505,686,9
1779267436.868772,2122,589,9
1779267436.869149,2174,408,9
1779267436.869698,2285,817,9
1779267436.872684,2083,768,9
1779267436.873636,1637,680,9
1779267436.875055,1726,995,9
1779267436.877711,2272,741,9
1779267436.879105,1962,567,9
1779267436.8889432,2258,515,9
1779267436.8898728,2196,249,9
1779267436.8921442,2071,748,9
1779267436.8923671,2194,809,9
1779267436.893014,2163,467,9
1779267436.896131,2009,1036,9
1779267436.898392,2053,1047,9
1779267436.903477,1932,848,9
1779267436.90375,1957,655,9
1779267436.904203,1896,492,9
1779267436.9049091,1737,686,9
1779267436.905173,2072,908,9
1779267436.908011,2000,656,9
1779267436.9095418,2167,1012,9
1779267436.909624,2082,1212,9
1779267436.910978,1941,1086,9
1779267436.917376,1905,848,9
1779267436.918163,1928,692,9
1779267436.91904,2182,584,9
1779267436.9222069,2047,991,9
1779267436.9227881,2020,856,9
1779267436.924792,1978,910,9
1779267436.92562,2069,1369,9
1779267436.928234,2095,1194,9
1779267436.9331782,2042,1064,9
1779267436.933857,1994,1061,9
1779267436.934405,1972,802,9
1779267436.937799,1924,992,9
1779267436.937888,1863,1065,9
1779267436.939348,1918,861,9
1779267436.940796,2120,1567,9
1779267436.943423,2143,1490,9
1779267436.9504378,2051,1350,9
1779267436.95214,2054,1264,9
1779267436.952994,2144,1155,9
1779267436.955966,2000,922,9
1779267436.956418,1812,1266,9
1779267436.95877,1902,965,9
1779267436.961547,2325,1863,9
1779267436.966772,1902,1793,9
1779267436.9671638,2056,1494,9
1779267436.9673789,2052,1378,9
1779267436.967863,2067,1416,9
1779267436.968178,2139,888,9
1779267436.97207,2007,1395,9
1779267436.972162,2048,1239,9
1779267436.9743402,1860,1679,9
1779267436.980723,2025,1801,9
1779267436.982887,2127,1583,9
1779267436.9837482,2049,1380,9
1779267436.986188,2032,1505,9
1779267436.986892,1991,1344,9
1779267436.989304,1924,1326,9
1779267436.990168,1932,1458,9
1779267436.992383,1925,1495,9
1779267436.9974558,2170,1947,9
1779267436.997696,2194,1679,9
1779267436.998077,2074,1480,9
1779267436.998305,2103,1475,9
1779267437.0010471,2057,1550,9
1779267437.0021608,2096,1135,9
1779267437.003573,2025,1582,9
1779267437.0051048,1869,1342,9
1779267437.007773,1866,2066,9
1779267437.009509,2048,1915,9
1779267437.019281,1949,1593,9
1779267437.019573,2139,1475,9
1779267437.0214589,2121,1595,9
1779267437.024714,1968,1217,9
1779267437.025044,2169,1604,9
1779267437.0298262,2089,1472,9
1779267437.030396,1709,1887,9
1779267437.030858,2207,2013,9
1779267437.0312152,2261,1652,9
1779267437.034107,1898,1463,9
1779267437.035069,1808,1533,9
1779267437.0354528,1775,1407,9
1779267437.035528,2277,1471,9
1779267437.036874,2237,1648,9
1779267437.044071,2187,1805,9
1779267437.044273,2087,2220,9
1779267437.04453,1997,1826,9
1779267437.048908,2046,1627,9
1779267437.049369,2010,1573,9
1779267437.049601,1946,1630,9
1779267437.05457,1964,1258,9
1779267437.059364,1941,1749,9
1779267437.059885,2015,1437,9
1779267437.060343,1858,2241,9
1779267437.060549,2168,2015,9
1779267437.063951,2155,1658,9
1779267437.0643048,2016,1530,9
1779267437.06566,2197,1719,9
1779267437.067012,2126,1195,9
1779267437.069783,2252,1756,9
1779267437.071151,2115,1602,9
1779267437.078819,1953,2110,9
1779267437.079608,1997,2176,9
1779267437.082412,1977,1765,9
1779267437.085234,1999,1577,9
1779267437.08794,1890,1677,9
1779267437.0928798,1724,1502,9
1779267437.093518,2193,1609,9
1779267437.0940428,2205,1788,9
1779267437.097399,1974,1909,9
1779267437.097488,1949,2270,9
1779267437.097559,2126,1957,9
1779267437.097627,2091,1654,9
1779267437.0976908,1983,1584,9
1779267437.0990562,1957,1666,9
1779267437.114636,2033,1360,9
1779267437.119402,2110,1873,9
1779267437.120246,1798,1678,9
1779267437.120694,1942,2397,9
1779267437.121424,2103,2047,9
1779267437.125063,1934,1712,9
1779267437.125163,2215,1612,9
1779267437.125237,1880,1773,9
1779267437.1253061,2016,1331,9
1779267437.125375,2225,1846,9
1779267437.125442,2131,1671,9
1779267437.1255019,2014,2310,9
1779267437.1255622,2019,2203,9
1779267437.126993,2018,1853,9
1779267437.129614,2241,1604,9
1779267437.130985,1706,1714,9
1779267437.137999,1979,1577,9
1779267437.139394,2076,1688,9
1779267437.142944,2067,1852,9
1779267437.1433432,2090,2034,9
1779267437.143687,2077,2428,9
1779267437.1454148,2007,2046,9
1779267437.145567,2116,1670,9
1779267437.154465,2238,1694,9
1779267437.155071,1966,1755,9
1779267437.155272,2002,1439,9
1779267437.160545,1955,1945,9
1779267437.161077,1898,1887,9
1779267437.161178,2126,2563,9
1779267437.161251,2028,2203,9
1779267437.16132,1726,1768,9
1779267437.164024,2033,1733,9
1779267437.177835,2288,1893,9
1779267437.1780329,1991,1448,9
1779267437.181212,2104,1927,9
1779267437.182476,2097,1727,9
1779267437.182623,2095,2401,9
1779267437.1851919,2004,2371,9
1779267437.1855931,1996,1877,9
1779267437.191485,2083,1697,9
1779267437.192003,2089,1906,9
1779267437.192502,2081,1677,9
1779267437.192878,1958,1778,9
1779267437.193116,1846,1926,9
1779267437.193533,2005,2153,9
1779267437.196688,2097,2463,9
1779267437.1979551,2004,2028,9
1779267437.19804,1983,1788,9
1779267437.198112,1957,1832,9
1779267437.1995,1908,1914,9
1779267437.2010062,2077,1495,9
1779267437.203688,2005,2028,9
1779267437.205121,2009,1889,9
1779267437.214388,2074,2608,9
1779267437.2166882,2131,2239,9
1779267437.22316,2088,1848,9
1779267437.225634,2038,1783,9
1779267437.226057,1964,2004,9
1779267437.231564,2026,1567,9
1779267437.231824,1947,1995,9
1779267437.232069,1936,1847,9
1779267437.232212,2064,2600,9
1779267437.232575,2303,2459,9
1779267437.2333062,2104,1907,9
1779267437.233571,2105,1708,9
1779267437.233841,2197,1823,9
1779267437.234123,2143,1696,9
1779267437.238282,1892,1823,9
1779267437.238868,2171,1971,9
1779267437.238955,2132,2265,9
1779267437.242004,2134,2544,9
1779267437.249226,1920,2062,9
1779267437.250248,1798,1770,9
1779267437.2518358,2183,1799,9
1779267437.252843,2251,1872,9
1779267437.253094,2069,1543,9
1779267437.256175,1968,2056,9
1779267437.256524,2108,1935,9
1779267437.2621171,2034,2642,9
1779267437.262509,1981,2159,9
1779267437.2628,1910,1841,9
1779267437.263032,2193,1765,9
1779267437.2687008,2080,1894,9
1779267437.269182,1994,1467,9
1779267437.269682,2051,2025,9
1779267437.2745001,2055,1784,9
1779267437.274743,1922,2324,9
1779267437.274888,1960,2403,9
1779267437.277568,2126,2001,9
1779267437.278948,2079,1738,9
1779267437.28158,1968,1855,9
1779267437.2829819,1938,1614,9
1779267437.290687,2132,1876,9
1779267437.292581,2243,2014,9
1779267437.293579,2075,2299,9
1779267437.297129,1904,2613,9
1779267437.301429,2077,2000,9
1779267437.304302,2126,1794,9
1779267437.30987,2024,1890,9
1779267437.310375,2009,1890,9
1779267437.310709,2022,1577,9
1779267437.31103,1922,2098,9
1779267437.31135,2105,2027,9
1779267437.311768,2050,2692,9
1779267437.312099,2080,2273,9
1779267437.312418,2027,1845,9
1779267437.316521,1922,1770,9
1779267437.316751,1970,1988,9
1779267437.316854,2190,1461,9
1779267437.319822,2215,2068,9
1779267437.327339,1989,1816,9
1779267437.332582,1960,2681,9
1779267437.333059,2023,2468,9
1779267437.3334138,2033,1981,9
1779267437.3354728,2101,1751,9
1779267437.336499,2043,1943,9
1779267437.337526,1584,1739,9
1779267437.340052,1810,1915,9
1779267437.3460732,3387,2024,9
1779267437.346421,2028,2342,9
1779267437.346953,1682,2573,9
1779267437.347334,2115,2211,9
1779267437.347659,2120,1799,9
1779267437.347986,2149,1883,9
1779267437.352053,2192,1893,9
1779267437.3525782,1983,1642,9
1779267437.354064,1733,2133,9
1779267437.355386,2052,2074,9
1779267437.3570828,1690,2817,9
1779267437.35993,1815,2416,9
1779267437.3614771,1906,1905,9
1779267437.369923,1989,1782,9
1779267437.375063,2594,1946,9
1779267437.375628,2740,1540,9
1779267437.379745,1917,2133,9
1779267437.3823922,2393,1934,9
1779267437.383371,1443,2681,9
1779267437.388173,2217,2502,9
1779267437.388651,2718,1963,9
1779267437.389049,1854,1880,9
1779267437.389361,1568,2143,9
1779267437.38977,1699,1782,9
1779267437.390251,1752,1985,9
1779267437.390718,2309,2062,9
1779267437.390948,2366,2456,9
1779267437.394312,1827,2680,9
1779267437.395461,2023,2144,9
1779267437.395832,2362,1861,9
1779267437.397194,2063,1975,9
1779267437.407691,2302,2058,9
1779267437.421958,1768,1693,9
1779267437.4259179,1749,2178,9
1779267437.4261901,2984,2078,9
1779267437.427165,1911,2927,9
1779267437.427242,1260,2466,9
1779267437.427304,2135,1858,9
1779267437.427402,2096,1913,9
1779267437.427522,2365,2136,9
1779267437.427588,2684,1727,9
1779267437.4276638,2140,2166,9
1779267437.427725,2428,1942,9
1779267437.4278579,1874,2723,9
1779267437.427933,1861,2723,9
1779267437.427996,2265,1921,9
1779267437.4293602,2595,1977,9
1779267437.430725,1743,2258,9
1779267437.4343581,1887,2103,9
1779267437.4416451,1804,1993,9
1779267437.441895,1844,2122,9
1779267437.443412,1960,3050,9
1779267437.443574,2221,3008,9
1779267437.446041,2291,2144,9
1779267437.448868,2711,1947,9
1779267437.4499788,2271,2251,9
1779267437.452082,1938,2233,9
1779267437.457396,2550,1931,9
1779267437.45781,1482,2188,9
1779267437.458394,2526,2741,9
1779267437.45908,3130,3255,9
1779267437.462642,2000,2460,9
1779267437.463536,2045,1921,9
1779267437.464001,1557,2495,9
1779267437.465386,2079,2964,9
1779267437.466771,2136,2626,9
1779267437.474995,1700,2570,9
1779267437.47591,2405,3137,9
1779267437.47815,2198,3828,9
1779267437.478521,2452,3005,9
1779267437.478861,1951,2162,9
1779267437.4843268,1930,2374,9
1779267437.489949,2385,3131,9
1779267437.490989,2559,3127,9
1779267437.49382,2008,2855,9
1779267437.494711,1641,3270,9
1779267437.494886,1855,3839,9
1779267437.4950259,2307,3580,9
1779267437.495177,2238,2566,9
1779267437.4953148,1848,2432,9
1779267437.497014,1560,3117,9
1779267437.499417,2684,3726,9
1779267437.500884,2224,3334,9
1779267437.509745,1743,3620,9
1779267437.510519,1875,4095,9
1779267437.5129101,1955,4069,9
1779267437.5133371,1800,3100,9
1779267437.5182989,2503,2754,9
1779267437.518548,2602,3099,9
1779267437.52332,1683,3868,9
1779267437.5236459,2488,4080,9
1779267437.524021,1801,4074,9
1779267437.524351,1682,4095,9
1779267437.5249221,1614,4095,9
1779267437.5251899,2913,3648,9
1779267437.528842,1911,3211,9
1779267437.5289469,1645,3261,9
1779267437.5317838,1695,3703,9
1779267437.536448,2736,4066,9
1779267437.5396879,2260,3772,9
1779267437.539841,1957,3988,9
1779267437.5421948,2077,4095,9
1779267437.542461,1901,3954,9
1779267437.5454369,2306,3521,9
1779267437.547421,1817,3420,9
1779267437.5521548,1882,3655,9
1779267437.552456,2401,4056,9
1779267437.552824,2067,3917,9
1779267437.5534568,2055,3985,9
1779267437.5569339,1592,4095,9
1779267437.5570078,2003,4095,9
1779267437.5596092,2876,3771,9
1779267437.56094,2028,3602,9
1779267437.563812,1978,3691,9
1779267437.569721,1288,3946,9
1779267437.5698738,2962,4086,9
1779267437.570068,1796,3967,9
1779267437.57445,2178,4095,9
1779267437.5749152,2011,4095,9
1779267437.5772989,1673,3948,9
1779267437.5799701,2310,3767,9
1779267437.584903,1580,3697,9
1779267437.585206,2220,3900,9
1779267437.5858712,1961,3825,9
1779267437.586071,2138,3601,9
1779267437.588723,2892,3832,9
1779267437.588904,1687,3774,9
1779267437.59151,2091,3705,9
1779267437.5983949,2018,3523,9
1779267437.600302,1953,3282,9
1779267437.602646,2064,3239,9
1779267437.6053278,2132,3442,9
1779267437.608355,2176,3232,9
1779267437.6138618,1684,3377,9
1779267437.61419,2187,3610,9
1779267437.614452,1735,3467,9
1779267437.617753,1824,3302,9
1779267437.618093,2127,3192,9
1779267437.618161,2553,3215,9
1779267437.6183481,2102,3227,9
1779267437.6184802,1664,3221,9
1779267437.62004,1927,3106,9
1779267437.621408,1830,3268,9
1779267437.622764,1679,2974,9
1779267437.630511,2114,2733,9
1779267437.631722,2445,2780,9
1779267437.633721,2651,2736,9
1779267437.634012,1750,2851,9
1779267437.634162,1515,2926,9
1779267437.636725,2112,2984,9
1779267437.638314,2561,2848,9
1779267437.642467,2216,2723,9
1779267437.642669,1705,2613,9
1779267437.643072,2525,2562,9
1779267437.6465101,2163,2518,9
1779267437.64694,1605,2507,9
1779267437.655189,1613,2753,9
1779267437.6570811,2007,2856,9
1779267437.657443,2283,2736,9
1779267437.657681,2475,2808,9
1779267437.65921,1384,2664,9
1779267437.659799,2691,2695,9
1779267437.661936,1685,2605,9
1779267437.666195,1634,2664,9
1779267437.666564,2373,2786,9
1779267437.666771,1417,2758,9
1779267437.6697018,3143,2660,9
1779267437.67112,2492,2643,9
1779267437.673839,1469,2345,9
1779267437.675182,2005,2303,9
1779267437.680726,1811,2327,9
1779267437.682913,1815,2149,9
1779267437.684886,2450,2164,9
1779267437.687008,1427,2332,9
1779267437.689138,1885,2187,9
1779267437.689376,1952,2128,9
1779267437.6895099,2589,2209,9
1779267437.693826,2493,2141,9
1779267437.6940968,1934,2189,9
1779267437.6971679,1782,2198,9
1779267437.697515,2179,2131,9
1779267437.698852,2324,2387,9
1779267437.711157,1910,2401,9
1779267437.717344,1934,2149,9
1779267437.717728,1205,1995,9
1779267437.7182028,2496,1940,9
1779267437.719202,2502,2044,9
1779267437.722558,1600,1920,9
1779267437.7228951,2234,1861,9
1779267437.723029,2177,2157,9
1779267437.7231328,2012,2213,9
1779267437.723222,1852,1822,9
1779267437.72334,2145,2057,9
1779267437.723469,1539,1988,9
1779267437.724826,1746,1934,9
1779267437.7274082,1894,1840,9
1779267437.728888,3018,1875,9
1779267437.734772,2209,1996,9
1779267437.735552,1896,1999,9
1779267437.736747,1532,1777,9
1779267437.74126,2002,1898,9
1779267437.742133,2207,1738,9
1779267437.748671,2106,1666,9
1779267437.7489579,2150,1629,9
1779267437.7519958,904,1879,9
1779267437.75239,1838,1720,9
1779267437.752532,2596,1582,9
1779267437.7526882,3426,1335,9
1779267437.7527978,1731,1747,9
1779267437.759628,1010,1875,9
1779267437.760946,2381,1189,9
1779267437.762329,2265,1653,9
1779267437.764626,1320,1237,9
1779267437.767454,3195,1576,9
1779267437.773694,1879,1661,9
1779267437.7747772,1535,1590,9
1779267437.775369,2089,1562,9
1779267437.778649,2258,1459,9
1779267437.7787578,1917,1427,9
1779267437.778909,2016,1327,9
1779267437.778982,2440,1400,9
1779267437.779047,1958,1274,9
1779267437.781489,2187,1449,9
1779267437.782787,2205,1478,9
1779267437.791614,1759,1439,9
1779267437.7918642,1993,1456,9
1779267437.794824,2664,1247,9
1779267437.795264,2499,1377,9
1779267437.795634,2105,1806,9
1779267437.799835,1778,1657,9
1779267437.8002062,2099,1548,9
1779267437.805255,2809,1831,9
1779267437.8058891,1600,1654,9
1779267437.806635,2218,1876,9
1779267437.8095338,2087,1716,9
1779267437.809948,2045,1756,9
1779267437.81006,2228,1836,9
1779267437.811429,2121,1871,9
1779267437.817642,1668,1909,9
1779267437.818465,1983,2287,9
1779267437.81922,1997,2390,9
1779267437.821909,2565,2499,9
1779267437.8223228,1455,2218,9
1779267437.824476,1549,1996,9
1779267437.8270059,2137,2026,9
1779267437.831805,3616,2296,9
1779267437.832034,1839,2278,9
1779267437.832551,1584,2001,9
1779267437.832737,1855,1919,9
1779267437.8357818,2117,2023,9
1779267437.837481,2058,1904,9
1779267437.838938,1866,1697,9
1779267437.841643,2037,1960,9
1779267437.8434072,2158,1957,9
1779267437.848667,1817,1954,9
1779267437.850718,986,1898,9
1779267437.852692,1729,1854,9
1779267437.853051,2594,1912,9
1779267437.8535511,2193,1771,9
1779267437.8561869,2924,1779,9
1779267437.862701,1968,1617,9
1779267437.8631968,1755,1856,9
1779267437.8636951,1680,1809,9
1779267437.8641431,2108,1708,9
1779267437.8671281,2106,1556,9
1779267437.867208,1968,1786,9
1779267437.8686662,2247,1854,9
1779267437.87567,1267,1606,9
1779267437.878647,2982,1544,9
1779267437.8809578,1539,1723,9
1779267437.883439,1979,1872,9
1779267437.8883562,2192,1633,9
1779267437.8887942,2779,1522,9
1779267437.8890429,1859,1717,9
1779267437.889388,1743,1801,9
1779267437.889754,1993,1622,9
1779267437.890149,2004,1395,9
1779267437.893417,1959,1758,9
1779267437.893594,1292,1798,9
1779267437.894955,2188,1867,9
1779267437.897585,1996,1810,9
1779267437.898957,2512,1833,9
1779267437.9065301,1763,1979,9
1779267437.910228,1064,1766,9
1779267437.9190102,2641,1679,9
1779267437.9197319,2077,1836,9
1779267437.920258,1338,1852,9
1779267437.9206982,2129,1746,9
1779267437.923208,1922,1702,9
1779267437.923916,1947,1822,9
1779267437.92431,2282,2041,9
1779267437.924457,1881,1889,9
1779267437.924611,1927,1727,9
1779267437.924703,1282,1590,9
1779267437.924793,1514,1625,9
1779267437.932479,3655,1879,9
1779267437.93327,2171,1750,9
1779267437.936108,1948,1795,9
1779267437.936481,654,2204,9
1779267437.940743,2494,1911,9
1779267437.941261,2704,1643,9
1779267437.9466481,2119,1688,9
1779267437.947257,1653,1791,9
1779267437.947757,1901,1783,9
1779267437.951079,1672,1709,9
1779267437.951244,1474,1629,9
1779267437.951388,3277,1928,9
1779267437.951475,2462,2120,9
1779267437.952863,1335,1835,9
1779267437.955503,1962,1539,9
1779267437.9567978,2328,1768,9
1779267437.963014,2741,2039,9
1779267437.96414,2242,1764,9
1779267437.9664252,1653,2083,9
1779267437.9706712,1551,1981,9
1779267437.975722,2334,2111,9
1779267437.976419,2057,2275,9
1779267437.9770932,1853,1750,9
1779267437.977418,2134,1481,9
1779267437.9806,1554,1933,9
1779267437.980694,2921,1816,9
1779267437.98077,2361,2258,9
1779267437.980839,1607,1899,9
1779267437.9883258,2459,2170,9
1779267437.989121,1683,2370,9
1779267437.992342,2152,1935,9
1779267437.994812,1963,1810,9
1779267437.997291,2035,1717,9
1779267438.0023239,2516,2174,9
1779267438.002984,1847,2054,9
1779267438.0033221,1733,1957,9
1779267438.003816,1869,1801,9
1779267438.006283,2193,1928,9
1779267438.0072691,2055,1987,9
1779267438.007335,2076,1771,9
1779267438.007502,2089,1705,9
1779267438.0089011,2068,1899,9
1779267438.0115469,2201,2116,9
1779267438.0129569,1708,1899,9
1779267438.019614,2325,1933,9
1779267438.020448,2027,2285,9
1779267438.023215,2303,2076,9
1779267438.023509,2373,1928,9
1779267438.025986,1161,1788,9
1779267438.028003,1887,1994,9
1779267438.0331168,2653,2256,9
1779267438.033281,652,2146,9
1779267438.0337112,2359,1750,9
1779267438.0341618,3622,2081,9
1779267438.037537,1549,1946,9
1779267438.0376582,1751,1654,9
1779267438.039024,2117,1696,9
1779267438.044574,1918,1851,9
1779267438.0460129,2147,1989,9
1779267438.046771,2171,1967,9
1779267438.049345,1673,1876,9
1779267438.049902,1944,2060,9
1779267438.052319,2029,2202,9
1779267438.060639,1994,1851,9
1779267438.0614898,2125,1781,9
1779267438.061892,1701,1817,9
1779267438.0624378,2144,1817,9
1779267438.0628438,3355,2039,9
1779267438.065841,1446,2107,9
1779267438.065971,1933,1986,9
1779267438.067395,1794,2093,9
1779267438.068745,2371,2002,9
1779267438.071352,2059,1713,9
1779267438.077507,1304,1674,9
1779267438.079534,2617,1892,9
1779267438.081685,2068,2134,9
1779267438.0833678,1858,1995,9
1779267438.0847418,1838,2002,9
1779267438.092298,1846,2111,9
1779267438.0928168,2024,2187,9
1779267438.093344,2303,1900,9
1779267438.0937889,1880,1748,9
1779267438.094209,2218,1920,9
1779267438.098016,2072,2173,9
1779267438.098171,2091,2064,9
1779267438.0982678,2284,2008,9
1779267438.0996811,1765,2187,9
1779267438.109847,1851,2193,9
1779267438.11318,2345,2090,9
1779267438.1213188,2024,1848,9
1779267438.12211,2320,1912,9
1779267438.1228821,2129,2173,9
1779267438.1262138,1330,2190,9
1779267438.126323,1853,2115,9
1779267438.12639,3102,2122,9
1779267438.126571,1711,2287,9
1779267438.126643,1721,2171,9
1779267438.12676,2143,1818,9
1779267438.126851,2095,1793,9
1779267438.126993,2033,2110,9
1779267438.127243,1999,2139,9
1779267438.1286101,1673,2065,9
1779267438.131309,2389,1764,9
1779267438.1330209,2002,2054,9
1779267438.1395042,1912,2242,9
1779267438.1420171,2049,1902,9
1779267438.142446,1967,1710,9
1779267438.144588,2340,2045,9
1779267438.1471841,2181,2140,9
1779267438.150833,1894,2075,9
1779267438.153326,2022,1834,9
1779267438.153682,1975,1981,9
1779267438.1540911,2028,2092,9
1779267438.1543832,2042,1908,9
1779267438.154787,2221,1823,9
1779267438.158586,1882,1791,9
1779267438.158665,2395,1982,9
1779267438.1614048,2329,2079,9
1779267438.1671438,1869,2098,9
1779267438.171318,1933,2047,9
1779267438.1744452,2091,2228,9
1779267438.1755,2005,2078,9
1779267438.1776419,1946,2008,9
1779267438.1835709,1993,1759,9
1779267438.1840599,1994,1899,9
1779267438.184672,2018,2038,9
1779267438.185023,2024,2091,9
1779267438.185549,1879,1932,9
1779267438.18995,2013,2283,9
1779267438.190055,2439,2162,9
1779267438.1901288,2277,1950,9
1779267438.1902,1987,1786,9
1779267438.191541,2039,1944,9
1779267438.192876,2060,2185,9
1779267438.195484,2055,2285,9
1779267438.1968708,2166,2190,9
1779267438.203617,2091,2154,9
1779267438.207926,1685,2221,9
1779267438.210318,2364,2154,9
1779267438.210668,2599,1971,9
1779267438.211524,1960,1921,9
1779267438.2193139,2024,2304,9
1779267438.219498,2215,2329,9
1779267438.220093,2237,2131,9
1779267438.2203908,2135,2178,9
1779267438.220691,2105,2256,9
1779267438.2237382,2092,2164,9
1779267438.224622,2065,2008,9
1779267438.22502,2041,1977,9
1779267438.225188,2106,2193,9
1779267438.226557,2171,2293,9
1779267438.235117,2190,2105,9
1779267438.2379851,2195,1984,9
1779267438.241313,2058,2165,9
1779267438.2440279,2077,2202,9
1779267438.244339,2313,2026,9
1779267438.250495,2092,1761,9
1779267438.2508411,2143,1986,9
1779267438.251186,2161,2139,9
1779267438.251851,2080,2267,9
1779267438.255525,2142,2256,9
1779267438.255645,2167,2286,9
1779267438.25572,2098,2250,9
1779267438.2557912,2041,2133,9
1779267438.2558599,2069,1997,9
1779267438.257261,2121,2005,9
1779267438.25861,1953,2155,9
1779267438.2612102,2079,2078,9
1779267438.262756,2781,2312,9
1779267438.27075,2200,2342,9
1779267438.2735229,2238,2316,9
1779267438.2736561,2157,2226,9
1779267438.2738008,2158,2074,9
1779267438.276171,2111,2215,9
1779267438.278809,2027,2355,9
1779267438.2791018,2225,2456,9
1779267438.284949,2080,2298,9
1779267438.2857978,1861,2272,9
1779267438.2886,2392,2536,9
1779267438.289789,2064,2435,9
1779267438.28998,2115,2362,9
1779267438.290123,2531,2343,9
1779267438.291501,2007,2403,9
1779267438.2928581,1872,2455,9
1779267438.300705,2195,2597,9
1779267438.3029819,2483,2564,9
1779267438.303474,2001,2606,9
1779267438.305896,1798,2629,9
1779267438.306171,1691,2347,9
1779267438.30705,2548,2342,9
1779267438.309044,2027,2285,9
1779267438.3092659,2099,2550,9
1779267438.3152509,2076,2603,9
1779267438.315756,2065,2538,9
1779267438.316019,2079,2629,9
1779267438.3194911,1955,2832,9
1779267438.320103,1937,2649,9
1779267438.321525,1931,2329,9
1779267438.322916,2512,2286,9
1779267438.325554,1969,2567,9
1779267438.336885,2088,2928,9
1779267438.339664,2522,2977,9
1779267438.340653,1556,2638,9
1779267438.3409889,2170,2773,9
1779267438.342987,2102,2792,9
1779267438.343283,2017,2719,9
1779267438.349068,2005,2691,9
1779267438.349347,2019,2805,9
1779267438.3494961,1994,2950,9
1779267438.349825,2116,3024,9
1779267438.350218,2117,2851,9
1779267438.350595,1976,2914,9
1779267438.351259,2044,2756,9
1779267438.354935,2056,2559,9
1779267438.355019,2092,2511,9
1779267438.357648,1946,2563,9
1779267438.364945,2048,2541,9
1779267438.368287,2028,2589,9
1779267438.368586,2057,2500,9
1779267438.368934,2129,2376,9
1779267438.3691719,2104,2489,9
1779267438.373686,2078,2481,9
1779267438.3739462,2057,2377,9
1779267438.380009,1969,2281,9
1779267438.380387,1974,2540,9
1779267438.380615,2057,2540,9
1779267438.380977,2121,2541,9
1779267438.381233,1990,2404,9
1779267438.385123,1895,2421,9
1779267438.385216,1709,2356,9
1779267438.3865879,2351,2144,9
1779267438.389246,2734,2296,9
1779267438.3905978,1640,2407,9
1779267438.3993542,1771,2525,9
1779267438.4021802,2063,2378,9
1779267438.402486,2312,2354,9
1779267438.4026701,2096,2438,9
1779267438.402977,1934,2469,9
1779267438.413852,1655,2276,9
1779267438.414499,1603,2075,9
1779267438.415004,3081,2172,9
1779267438.415354,2247,2303,9
1779267438.415841,1766,2363,9
1779267438.418571,1910,2246,9
1779267438.418803,2096,2127,9
1779267438.419965,2134,2122,9
1779267438.420044,2050,2045,9
1779267438.421428,1971,1896,9
1779267438.4229262,1903,1894,9
1779267438.4290729,1919,2091,9
1779267438.4293919,1977,2068,9
1779267438.431254,2116,2037,9
1779267438.433644,2137,2016,9
1779267438.435484,2049,2187,9
1779267438.436117,1961,1996,9
1779267438.443939,2109,1816,9
1779267438.4442902,2211,1906,9
1779267438.444672,2003,1997,9
1779267438.445028,1930,2177,9
1779267438.4453099,1976,2209,9
1779267438.449636,1968,1954,9
1779267438.449725,2097,2071,9
1779267438.451075,2096,2213,9
1779267438.45254,1976,2116,9
1779267438.455202,2516,2055,9
1779267438.456545,1998,2102,9
1779267438.465646,1902,2105,9
1779267438.4681091,1937,2217,9
1779267438.471317,2214,2206,9
1779267438.472032,2242,2224,9
1779267438.474771,2145,2255,9
1779267438.475716,1735,2195,9
1779267438.4760268,2072,2128,9
1779267438.478882,2019,2023,9
1779267438.4853451,2069,2344,9
1779267438.485724,2000,2286,9
1779267438.486027,1827,2253,9
1779267438.48619,2068,2161,9
1779267438.486683,2280,2229,9
1779267438.48704,1947,2212,9
1779267438.487503,2114,2007,9
1779267438.490977,1989,1871,9
1779267438.49193,2034,1998,9
1779267438.4933262,2085,2159,9
1779267438.4946618,2019,2023,9
1779267438.501965,1990,1871,9
1779267438.502957,2072,1857,9
1779267438.505075,2061,1909,9
1779267438.5089111,1988,1834,9
1779267438.509202,1988,1736,9
1779267438.510026,2031,1795,9
1779267438.51041,2055,1910,9
1779267438.510945,2046,1919,9
1779267438.513767,1940,1788,9
1779267438.5170062,2022,1807,9
1779267438.52352,2436,1799,9
1779267438.523993,2080,1788,9
1779267438.5244002,1931,1687,9
1779267438.524987,1986,1716,9
1779267438.5254688,2061,1928,9
1779267438.530129,2051,2005,9
1779267438.530278,1977,2006,9
1779267438.531682,2207,2025,9
1779267438.533256,2062,1922,9
1779267438.534647,1923,1850,9
1779267438.537329,1953,1843,9
1779267438.539296,2013,1783,9
1779267438.546207,2003,1895,9
1779267438.5477471,2104,1917,9
1779267438.548626,2341,1890,9
1779267438.549888,2041,1896,9
1779267438.5525792,1902,1972,9
1779267438.5529118,1964,1945,9
1779267438.555446,2035,1819,9
1779267438.5563378,2062,1722,9
1779267438.556671,2110,1869,9
1779267438.5715299,2076,1958,9
1779267438.57163,2060,1980,9
1779267438.5717068,2023,1953,9
1779267438.5717812,2062,1873,9
1779267438.571851,2067,2065,9
1779267438.634353,2068,1945,9
1779267438.6610959,2057,1948,9
1779267438.661259,2023,2024,9
1779267438.661325,2049,2071,9
1779267438.661383,2044,2090,9
1779267438.661441,2032,2101,9
1779267438.661497,2025,2050,9
1779267438.661553,2058,2105,9
1779267438.664851,2024,2054,9
1779267438.6649148,2004,1995,9
1779267438.689225,2148,1918,9
1779267438.689308,2038,2105,9
1779267438.689389,2000,2161,9
1779267438.6906502,2119,2096,9
1779267438.690728,2039,1961,9
1779267438.69079,2040,1975,9
1779267438.690849,2025,2009,9
1779267438.690906,2022,1988,9
1779267438.690961,2037,1946,9
1779267438.691017,2051,2085,9
1779267438.691072,2046,2146,9
1779267438.691127,2025,2179,9
1779267438.691183,2026,2110,9
1779267438.691238,2027,2108,9
1779267438.691293,2037,2161,9
1779267438.691347,2017,2139,9
1779267438.691402,2025,1999,9
1779267438.691457,2018,2068,9
1779267438.691513,2054,2123,9
1779267438.691707,2103,2195,9
1779267438.6918159,2069,2238,9
1779267438.6918862,1980,2160,9
1779267438.6923342,2006,2183,9
1779267438.704171,2070,2198,9
1779267438.721108,2066,2066,9
1779267438.7212648,2017,2089,9
1779267438.729404,2006,2098,9
1779267438.732362,2154,2212,9
1779267438.73473,2048,2142,9
1779267438.735822,2011,2099,9
1779267438.749412,2063,2112,9
1779267438.749565,2007,2181,9
1779267438.749651,2004,2154,9
1779267438.7497249,2047,2110,9
1779267438.749794,2110,2158,9
1779267438.749862,2062,2308,9
1779267438.74993,2036,2277,9
1779267438.7499971,2055,2365,9
1779267438.7500641,2071,2345,9
1779267438.7504919,2066,2343,9
1779267438.750564,2048,2242,9
1779267438.750633,2055,2253,9
1779267438.7507,2058,2345,9
1779267438.7507682,2049,2425,9
1779267438.750836,2021,2376,9
1779267438.7509031,1987,2288,9
1779267438.7509708,2077,2288,9
1779267438.75104,2138,2284,9
1779267438.751107,2053,2293,9
1779267438.751174,2041,2305,9
1779267438.751241,2012,2365,9
1779267438.751308,2056,2406,9
1779267438.7513752,2088,2346,9
1779267438.751442,2073,2394,9
1779267438.751509,1875,2508,9
1779267438.751575,1625,2413,9
1779267438.75296,1807,2291,9
1779267438.753076,2175,2127,9
1779267438.753485,2449,2180,9
1779267438.780674,2277,2351,9
1779267438.780801,2096,2336,9
1779267438.780873,2130,2372,9
1779267438.780937,2207,2308,9
1779267438.780996,2200,2342,9
1779267438.781054,2186,2400,9
1779267438.781112,2132,2411,9
1779267438.78117,2028,2371,9
1779267438.781227,1932,2399,9
1779267438.7812831,1956,2371,9
1779267438.781454,1984,2293,9
1779267438.781544,1941,2243,9
1779267438.781613,2078,2126,9
1779267438.781761,2413,2062,9
1779267438.7818282,2179,1982,9
1779267438.781888,1596,2072,9
1779267438.781984,1857,2203,9
1779267438.782044,2256,2246,9
1779267438.78226,2220,2245,9
1779267438.782329,2140,2414,9
1779267438.7823958,2183,2491,9
1779267438.78246,2140,2579,9
1779267438.782526,1916,2546,9
1779267438.7825868,1235,2530,9
1779267438.782654,2071,2649,9
1779267438.78272,2717,2682,9
1779267438.782811,2291,2785,9
1779267438.782872,2058,2736,9
1779267438.782929,2023,2642,9
1779267438.782984,2258,2399,9
1779267438.783073,2271,2182,9
1779267438.783137,2230,2052,9
1779267438.783232,2057,2236,9
1779267438.7833102,1895,2392,9
1779267438.783373,2048,2361,9
1779267438.783432,1726,2366,9
1779267438.78349,1996,2203,9
1779267438.7835488,2036,2130,9
1779267438.783606,2063,1905,9
1779267438.785119,2041,1777,9
1779267438.7973068,2005,1951,9
1779267438.7987,2207,2302,9
1779267438.8064132,2087,2125,9
1779267438.8071198,1735,2040,9
1779267438.81233,1858,1920,9
1779267438.812429,2000,1851,9
1779267438.812502,2104,1681,9
1779267438.8125708,2071,1577,9
1779267438.812638,2048,1718,9
1779267438.812706,2043,1909,9
1779267438.812774,2092,2051,9
1779267438.812841,1948,1755,9
1779267438.812907,1687,1715,9
1779267438.812974,2144,1714,9
1779267438.8227189,2176,1582,9
1779267438.826852,2103,1452,9
1779267438.827214,1981,1730,9
1779267438.827432,2257,1917,9
1779267438.8278599,2487,1956,9
1779267438.828059,1529,1844,9
1779267438.83093,2464,1795,9
1779267438.8339798,1496,1908,9
1779267438.834257,1179,1970,9
1779267438.834551,2763,1769,9
1779267438.8405702,2904,1656,9
1779267438.841033,2068,1818,9
1779267438.841706,1873,2024,9
1779267438.845262,2023,2064,9
1779267438.8464699,2344,1927,9
1779267438.846557,2179,1947,9
1779267438.846636,2248,2016,9
1779267438.8493261,1971,1834,9
1779267438.850684,1942,1577,9
1779267438.85333,2020,1570,9
1779267438.855229,1891,1703,9
1779267438.86189,1961,1721,9
1779267438.8628092,2032,1784,9
1779267438.864697,2567,1797,9
1779267438.868781,2096,2059,9
1779267438.869139,1939,1920,9
1779267438.8715048,1518,1548,9
1779267438.871797,2668,1583,9
1779267438.8728588,2094,1887,9
1779267438.8743339,2071,1914,9
1779267438.876935,2030,1788,9
1779267438.877249,1757,1619,9
1779267438.8832152,1961,1540,9
1779267438.88355,2361,1507,9
1779267438.883991,2207,1283,9
1779267438.88784,2171,1326,9
1779267438.88928,2173,1567,9
1779267438.889444,1420,1953,9
1779267438.890923,2511,2004,9
1779267438.9000902,2493,1653,9
1779267438.90322,1899,1455,9
1779267438.908225,1710,1653,9
1779267438.909214,1943,1652,9
1779267438.912262,2079,1558,9
1779267438.916909,1956,1584,9
1779267438.917591,2066,1746,9
1779267438.917835,2101,1670,9
1779267438.9181068,2244,1348,9
1779267438.918518,2426,1216,9
1779267438.9189901,2375,1231,9
1779267438.921797,1954,1138,9
1779267438.922863,1940,852,9
1779267438.922952,1823,923,9
1779267438.923012,1923,1242,9
1779267438.923073,2100,1550,9
1779267438.925675,1854,1410,9
1779267438.9270039,2289,1231,9
1779267438.929631,2274,1168,9
1779267438.931083,2054,1234,9
1779267438.9405031,2112,982,9
1779267438.94172,2211,942,9
1779267438.944621,1897,1226,9
1779267438.948273,1918,1562,9
1779267438.950156,1972,1460,9
1779267438.955801,1850,1374,9
1779267438.9563122,2076,1161,9
1779267438.956615,2251,1341,9
1779267438.957047,1894,1287,9
1779267438.960642,2261,1018,9
1779267438.960821,2296,1155,9
1779267438.960902,2133,1475,9
1779267438.9609652,2060,1550,9
1779267438.961092,2003,1410,9
1779267438.9611552,1896,1249,9
1779267438.962522,2000,1248,9
1779267438.968679,2077,1221,9
1779267438.970164,2103,1033,9
1779267438.974354,2041,1144,9
1779267438.974798,1986,1427,9
1779267438.975075,1832,1681,9
1779267438.977983,2059,1330,9
1779267438.984232,2129,1175,9
1779267438.984809,2292,1217,9
1779267438.985729,2021,1249,9
1779267438.985975,1965,965,9
1779267438.988617,1944,1167,9
1779267438.98979,1999,1232,9
1779267438.990099,2044,1753,9
1779267438.991477,1960,1598,9
1779267438.992822,2003,1375,9
1779267438.995418,1764,1308,9
1779267438.996819,1637,1356,9
1779267439.002329,1983,1123,9
1779267439.003805,2314,1220,9
1779267439.007306,2131,1255,9
1779267439.007621,2069,1583,9
1779267439.008031,2342,1586,9
1779267439.0126941,1961,1374,9
1779267439.017226,1936,1301,9
1779267439.017602,2104,1309,9
1779267439.0179489,2075,1238,9
1779267439.018153,2037,1141,9
1779267439.0214741,1908,1272,9
1779267439.021885,1858,1598,9
1779267439.023246,1464,1874,9
1779267439.024768,1979,1614,9
1779267439.029929,2370,1398,9
1779267439.0306199,2278,1344,9
1779267439.0314581,2089,1391,9
1779267439.0341601,1909,1065,9
1779267439.036177,1993,1391,9
1779267439.0385091,1483,1404,9
1779267439.04235,2312,1879,9
1779267439.0427341,2503,1617,9
1779267439.0429912,2098,1337,9
1779267439.046069,1763,1376,9
1779267439.0474749,2329,1538,9
1779267439.048799,2069,1233,9
1779267439.051382,1895,1379,9
1779267439.05704,2051,1310,9
1779267439.05826,2175,1848,9
1779267439.059312,1982,1871,9
1779267439.059469,1981,1503,9
1779267439.061606,2047,1344,9
1779267439.063406,1973,1413,9
1779267439.065679,2043,1364,9
1779267439.0693161,2046,1293,9
1779267439.069817,2083,1423,9
1779267439.072844,2115,1748,9
1779267439.073067,2087,1958,9
1779267439.074564,1896,1696,9
1779267439.080727,1926,1469,9
1779267439.081263,1973,1591,9
1779267439.082526,2137,1661,9
1779267439.084379,1994,1259,9
1779267439.087053,1886,1532,9
1779267439.08873,2041,1757,9
1779267439.088991,2105,2215,9
1779267439.092504,1866,1897,9
1779267439.092797,2220,1657,9
1779267439.09581,2082,1547,9
1779267439.0971441,2056,1727,9
1779267439.0985432,2201,1489,9
1779267439.101127,2073,1523,9
1779267439.1074078,2050,1622,9
1779267439.108025,2133,2101,9
1779267439.109161,2069,2041,9
1779267439.1093519,2015,1724,9
1779267439.113632,2008,1596,9
1779267439.115255,2135,1691,9
1779267439.115474,1704,1534,9
1779267439.119041,1824,1426,9
1779267439.119564,1930,1584,9
1779267439.122008,2271,2002,9
1779267439.123332,2436,2177,9
1779267439.12466,2161,1760,9
1779267439.129469,1619,1527,9
1779267439.129591,1992,1574,9
1779267439.133101,2144,1626,9
1779267439.1334772,2104,1247,9
1779267439.135921,1924,1666,9
1779267439.141236,1773,1771,9
1779267439.141537,2244,2233,9
1779267439.141727,2124,1925,9
1779267439.144939,1970,1615,9
1779267439.1451032,2066,1489,9
1779267439.1467872,2110,1743,9
1779267439.1494138,2059,1472,9
1779267439.1508322,2092,1632,9
1779267439.1698592,2130,1651,9
1779267439.170985,2067,2218,9
1779267439.171148,1947,2082,9
1779267439.1713479,1882,1720,9
1779267439.171581,1886,1590,9
1779267439.17177,1922,1825,9
1779267439.171981,2137,1637,9
1779267439.172116,1814,1505,9
1779267439.172246,1789,1660,9
1779267439.172529,2294,2047,9
1779267439.172621,2388,2286,9
1779267439.1838021,1979,1827,9
1779267439.184187,1608,1505,9
1779267439.1884348,1986,1615,9
1779267439.192527,2521,1777,9
1779267439.192856,2514,1381,9
1779267439.193346,1916,1726,9
1779267439.193727,1720,1962,9
1779267439.193974,1977,2454,9
1779267439.1942668,2202,2109,9
1779267439.1973171,2166,1777,9
1779267439.197418,2068,1690,9
1779267439.197504,2018,1907,9
1779267439.198873,1974,1599,9
1779267439.201312,1796,1717,9
1779267439.202702,2163,1835,9
1779267439.210465,2298,2362,9
1779267439.2129862,1998,2192,9
1779267439.213656,1797,1773,9
1779267439.2164328,2073,1655,9
1779267439.218292,2122,1911,9
1779267439.218527,2159,1728,9
1779267439.222443,2197,1572,9
1779267439.2227619,1719,1760,9
1779267439.2230358,2045,2259,9
1779267439.2234938,2029,2459,9
1779267439.226775,2015,1972,9
1779267439.226887,2188,1616,9
1779267439.235442,2066,1686,9
1779267439.2378821,1948,1843,9
1779267439.238486,2140,1526,9
1779267439.242812,1965,1793,9
1779267439.24307,2189,2094,9
1779267439.2466528,2068,2564,9
1779267439.2473652,2108,2111,9
1779267439.247704,2070,1735,9
1779267439.248271,2114,1727,9
1779267439.251084,2018,1938,9
1779267439.251508,1978,1631,9
1779267439.251646,2041,1769,9
1779267439.253002,2034,1901,9
1779267439.255627,1974,2507,9
1779267439.256978,1987,2254,9
1779267439.262896,2070,1855,9
1779267439.264194,1997,1697,9
1779267439.264513,1934,1947,9
1779267439.267405,2000,1886,9
1779267439.2694552,1910,1630,9
1779267439.271672,1999,1789,9
1779267439.275755,2306,2342,9
1779267439.276098,2152,2465,9
1779267439.276719,1880,1997,9
1779267439.2771158,1981,1780,9
1779267439.280232,2170,1827,9
1779267439.2815921,2187,1938,9
1779267439.289633,2079,1534,9
1779267439.291988,1951,1860,9
1779267439.2940621,2079,2158,9
1779267439.2962701,1937,2527,9
1779267439.300107,1956,2141,9
1779267439.3007722,2062,1798,9
1779267439.301153,2039,1756,9
1779267439.301623,1915,2015,9
1779267439.303948,2121,1749,9
1779267439.3049002,2070,1823,9
1779267439.3049831,2023,2037,9
1779267439.305142,2094,2583,9
1779267439.306706,2056,2351,9
1779267439.309387,1982,1895,9
1779267439.3107991,2119,1792,9
1779267439.31687,2098,1974,9
1779267439.3203928,2077,1846,9
1779267439.323485,2166,1688,9
1779267439.329091,2127,1850,9
1779267439.329626,1896,2478,9
1779267439.329925,1984,2514,9
1779267439.330461,2089,1957,9
1779267439.333054,2117,1692,9
1779267439.334031,1980,1944,9
1779267439.334381,1835,2010,9
1779267439.334476,2025,1571,9
1779267439.33453,1970,1884,9
1779267439.34301,1842,2276,9
1779267439.346306,1950,2750,9
1779267439.346598,1942,2254,9
1779267439.349559,2208,1871,9
1779267439.35151,2210,1885,9
1779267439.355655,2021,2131,9
1779267439.355953,2228,1898,9
1779267439.356599,2202,1962,9
1779267439.3569448,2451,2266,9
1779267439.357585,1948,2727,9
1779267439.360409,2069,2242,9
1779267439.360828,2172,1845,9
1779267439.3609228,1750,1939,9
1779267439.3635468,2354,2210,9
1779267439.364917,1872,2287,9
1779267439.3720262,1748,2008,9
1779267439.3729632,1869,2228,9
1779267439.3738391,2250,2750,9
1779267439.377176,1940,2732,9
1779267439.380255,1809,2240,9
1779267439.38226,2790,2016,9
1779267439.386444,2570,2054,9
1779267439.3869498,1660,2262,9
1779267439.387499,1478,2070,9
1779267439.3879628,2066,2206,9
1779267439.391168,2916,2798,9
1779267439.3913012,1883,3108,9
1779267439.391388,1692,2503,9
1779267439.392749,2071,2138,9
1779267439.401234,2032,2224,9
1779267439.403831,1518,2598,9
1779267439.408115,1918,2167,9
1779267439.41261,3318,2177,9
1779267439.416092,2197,2294,9
1779267439.416218,2559,3310,9
1779267439.41638,1431,2887,9
1779267439.4164832,1854,2333,9
1779267439.41662,2184,2257,9
1779267439.416756,2128,2556,9
1779267439.416855,2057,2550,9
1779267439.416974,1682,2383,9
1779267439.419623,2037,2700,9
1779267439.4210749,1691,3202,9
1779267439.42288,2353,3199,9
1779267439.428125,2477,2536,9
1779267439.428899,1981,2416,9
1779267439.432139,1861,2582,9
1779267439.43408,3567,3100,9
1779267439.4354298,1838,3038,9
1779267439.4371278,1264,3197,9
1779267439.437512,1964,3463,9
1779267439.4417531,2294,3609,9
1779267439.4421482,1864,2947,9
1779267439.445276,1708,2605,9
1779267439.44573,2227,2996,9
1779267439.447097,2083,3350,9
1779267439.4544709,2200,3277,9
1779267439.455154,2580,3315,9
1779267439.4576588,2063,3632,9
1779267439.459892,1475,3894,9
1779267439.460842,2472,3354,9
1779267439.4662662,2539,2840,9
1779267439.4665751,1939,2917,9
1779267439.467299,1460,3462,9
1779267439.4676979,2060,3641,9
1779267439.468161,2336,3653,9
1779267439.471172,1957,3960,9
1779267439.471304,1902,4095,9
1779267439.472657,2094,3778,9
1779267439.475262,1411,3213,9
1779267439.476665,2902,3148,9
1779267439.484334,2771,3537,9
1779267439.48643,1982,4095,9
1779267439.4909499,1520,4095,9
1779267439.495213,2251,4095,9
1779267439.4957252,1709,4095,9
1779267439.496033,2144,4092,9
1779267439.498633,1970,3647,9
1779267439.499651,2777,3467,9
1779267439.499755,1722,3603,9
1779267439.499841,1743,3946,9
1779267439.499913,1929,4095,9
1779267439.5013351,2039,4095,9
1779267439.507909,2078,4095,9
1779267439.511091,1455,4095,9
1779267439.5116181,2711,3911,9
1779267439.514053,1911,3727,9
1779267439.519607,1500,3643,9
1779267439.5198982,2385,3879,9
1779267439.520592,2030,3973,9
1779267439.5238478,1963,3963,9
1779267439.5241878,1672,3976,9
1779267439.524249,1793,3854,9
1779267439.5243678,3047,3793,9
1779267439.5245261,1949,3754,9
1779267439.527287,1881,3507,9
1779267439.5287502,1855,3510,9
1779267439.535572,1233,3903,9
1779267439.536782,2345,3926,9
1779267439.539496,2735,3947,9
1779267439.539905,1945,3900,9
1779267439.542625,1786,3720,9
1779267439.544321,1817,3515,9
1779267439.544801,1212,3397,9
1779267439.548843,2121,3269,9
1779267439.5491478,3202,3379,9
1779267439.549682,1609,3598,9
1779267439.552298,1642,3443,9
1779267439.553735,1661,3271,9
1779267439.555089,2671,3184,9
1779267439.561279,2248,3108,9
1779267439.562461,1059,3231,9
1779267439.565262,2423,3025,9
1779267439.5749462,2602,3080,9
1779267439.57535,2374,3215,9
1779267439.575796,2257,3430,9
1779267439.5761092,1364,3441,9
1779267439.576481,1254,3197,9
1779267439.57691,2818,3051,9
1779267439.577302,2113,2942,9
1779267439.580006,2032,2765,9
1779267439.580908,2155,2964,9
1779267439.5810418,1213,2821,9
1779267439.5837939,2683,3322,9
1779267439.585214,1548,3135,9
1779267439.586624,1182,2757,9
1779267439.592777,3809,2740,9
1779267439.594102,2700,2810,9
1779267439.594841,1053,2817,9
1779267439.5969548,1617,2715,9
1779267439.599228,1309,2630,9
1779267439.601516,3080,2800,9
1779267439.602058,2549,2771,9
1779267439.6067898,1621,2587,9
1779267439.607446,2099,2605,9
1779267439.607872,2035,2435,9
1779267439.610913,2058,2474,9
1779267439.612084,2321,2368,9
1779267439.613448,1254,2589,9
1779267439.6149518,2706,2551,9
1779267439.62195,1984,2682,9
1779267439.622954,1310,2428,9
1779267439.6258628,2005,2601,9
1779267439.6265001,2665,2238,9
1779267439.6290119,1362,2614,9
1779267439.630048,2535,2481,9
1779267439.630292,1852,2212,9
1779267439.632284,2886,2417,9
1779267439.637439,1864,2501,9
1779267439.637909,1621,2446,9
1779267439.638398,1915,2158,9
1779267439.6386392,1566,1815,9
1779267439.641506,2780,2342,9
1779267439.642879,2841,2661,9
1779267439.644522,1349,2167,9
1779267439.6471722,1413,2080,9
1779267439.6485288,2478,1942,9
1779267439.65649,1997,2429,9
1779267439.65672,2599,2488,9
1779267439.658106,2557,1877,9
1779267439.6611772,647,2165,9
1779267439.661515,3156,2232,9
1779267439.663999,2872,2408,9
1779267439.671535,1563,2004,9
1779267439.6751082,2281,2016,9
1779267439.676539,2122,2733,9
1779267439.676661,1650,2171,9
1779267439.6767302,2433,1913,9
1779267439.676793,1957,1708,9
1779267439.6768541,2179,1777,9
1779267439.676914,1286,2112,9
1779267439.685297,2815,2031,9
1779267439.687445,3603,2192,9
1779267439.689623,1149,2312,9
1779267439.690052,1912,2071,9
1779267439.690513,2273,2061,9
1779267439.690717,2769,2022,9
1779267439.692968,2108,2242,9
1779267439.7008,1698,2438,9
1779267439.7014441,2096,2503,9
1779267439.7018461,2026,1978,9
1779267439.70572,2054,2194,9
1779267439.705825,1528,2203,9
1779267439.7059,4095,2048,9
1779267439.706147,2635,2189,9
1779267439.707872,1038,2154,9
1779267439.709172,2211,2182,9
1779267439.710526,2396,2357,9
1779267439.7195551,1804,2371,9
1779267439.720884,2168,2548,9
1779267439.727117,1835,2453,9
1779267439.729185,3014,2656,9
1779267439.734741,1783,2174,9
1779267439.7352588,1891,2357,9
1779267439.735671,2344,2485,9
1779267439.7360342,2908,2550,9
1779267439.736575,2415,2463,9
1779267439.739938,1777,2331,9
1779267439.740273,1961,2532,9
1779267439.74074,2097,2396,9
1779267439.74082,1695,2404,9
1779267439.7408981,2070,1829,9
1779267439.7410429,3059,2445,9
1779267439.749888,1132,2224,9
1779267439.754495,816,2244,9
1779267439.755,2257,2267,9
1779267439.75784,2401,2549,9
1779267439.758699,3407,2505,9
1779267439.758873,1068,2335,9
1779267439.760704,1376,2174,9
1779267439.761154,2030,2393,9
1779267439.766628,1992,2523,9
1779267439.766973,2062,2444,9
1779267439.767262,1908,2509,9
1779267439.767582,1503,2387,9
1779267439.768203,1986,2407,9
1779267439.7718332,1881,2149,9
1779267439.771919,1512,2054,9
1779267439.773323,2464,1964,9
1779267439.7748978,3671,2355,9
1779267439.7774222,988,2323,9
1779267439.779078,1692,1974,9
1779267439.784672,2149,1988,9
1779267439.789532,2267,1958,9
1779267439.789993,1763,2038,9
1779267439.7923808,1328,1714,9
1779267439.795316,2035,1879,9
1779267439.80084,2862,1719,9
1779267439.801248,2085,1917,9
1779267439.801815,2689,1920,9
1779267439.8021948,1572,2071,9
1779267439.8029592,2275,1963,9
1779267439.80318,2553,1958,9
1779267439.80692,1509,1836,9
1779267439.807158,2150,1904,9
1779267439.807245,1678,2014,9
1779267439.8086112,1590,1903,9
1779267439.816851,2471,2087,9
1779267439.818208,1687,2135,9
1779267439.8205209,2205,2069,9
1779267439.820868,2499,2027,9
1779267439.823348,1603,2047,9
1779267439.82427,2342,2142,9
1779267439.826247,2524,2046,9
1779267439.8266828,1909,2381,9
1779267439.8321111,1706,2400,9
1779267439.8324869,1848,2088,9
1779267439.836093,2649,2135,9
1779267439.8365939,2737,2162,9
1779267439.836788,1800,2494,9
1779267439.836885,1456,2330,9
1779267439.83973,1668,2090,9
1779267439.841156,1781,2228,9
1779267439.842519,3120,2444,9
1779267439.8503098,1290,2549,9
1779267439.8506188,2201,2518,9
1779267439.851632,1635,2791,9
1779267439.85372,1876,2614,9
1779267439.856374,3354,2661,9
1779267439.856748,1722,2290,9
1779267439.857033,1814,2505,9
1779267439.859606,2072,2725,9
1779267439.862344,2051,2669,9
1779267439.8681679,1921,2673,9
1779267439.868706,2084,2589,9
1779267439.8725262,2480,2514,9
1779267439.873024,993,2679,9
1779267439.8732102,2450,2164,9
1779267439.87329,2536,2773,9
1779267439.8746839,2015,2215,9
1779267439.881857,2235,2537,9
1779267439.883349,1347,2248,9
1779267439.8842292,2175,2496,9
1779267439.886545,2127,2635,9
1779267439.889687,2302,2515,9
1779267439.891809,1578,2235,9
1779267439.891978,2535,2174,9
1779267439.8983018,2096,2322,9
1779267439.898944,2005,2482,9
1779267439.8992908,1805,2330,9
1779267439.902642,2508,2398,9
1779267439.903075,1798,2624,9
1779267439.903151,2269,2548,9
1779267439.903223,1898,2347,9
1779267439.904625,1721,2028,9
1779267439.907679,2179,2111,9
1779267439.90908,1160,2455,9
1779267439.910605,1798,2320,9
1779267439.9155042,3213,2170,9
1779267439.91648,1967,2457,9
1779267439.917193,1351,2368,9
1779267439.921535,1887,2044,9
1779267439.922216,3050,2079,9
1779267439.9278321,2096,2324,9
1779267439.928223,1754,2474,9
1779267439.928546,2005,2383,9
1779267439.928895,2044,1949,9
1779267439.935877,1940,2058,9
1779267439.936605,2252,2204,9
1779267439.9371269,1539,2508,9
1779267439.940816,2112,2136,9
1779267439.941866,2452,1865,9
1779267439.942355,1903,2091,9
1779267439.942527,2159,2226,9
1779267439.945319,2040,2246,9
1779267439.9514391,2031,2016,9
1779267439.952966,2216,2240,9
1779267439.9540212,2023,2345,9
1779267439.958347,1907,1877,9
1779267439.958667,1839,1908,9
1779267439.958953,1889,1932,9
1779267439.959145,1985,2090,9
1779267439.9618912,2260,2145,9
1779267439.965048,1972,2289,9
1779267439.972239,2819,2215,9
1779267439.972642,1754,2400,9
1779267439.973033,2071,2139,9
1779267439.973712,2121,1940,9
1779267439.9742432,1911,2053,9
1779267439.9784598,2206,2253,9
1779267439.9789,1855,2327,9
1779267439.9790561,2043,2301,9
1779267439.980483,2490,2191,9
1779267439.983135,1898,2359,9
1779267439.9844968,1742,2268,9
1779267439.987206,2186,2002,9
1779267439.996594,2329,2122,9
1779267439.99837,1916,2188,9
1779267440.0016289,1713,2193,9
1779267440.004846,2412,2331,9
1779267440.005942,1732,2253,9
1779267440.008588,2229,2258,9
1779267440.0090182,2143,2399,9
1779267440.009269,1551,1918,9
1779267440.016455,2384,1852,9
1779267440.0171158,2517,2233,9
1779267440.017408,1880,2215,9
1779267440.0177941,1731,2263,9
1779267440.018076,2178,2148,9
1779267440.0183501,3070,2409,9
1779267440.0187478,1832,2235,9
1779267440.0219982,1749,2222,9
1779267440.0229492,1546,2096,9
1779267440.023356,2414,1920,9
1779267440.0247092,2444,2206,9
1779267440.027447,2046,2371,9
1779267440.0348978,2285,2172,9
1779267440.0352,1738,2143,9
1779267440.037631,2156,2224,9
1779267440.040535,1704,2262,9
1779267440.041229,2056,1877,9
1779267440.0449321,2158,1772,9
1779267440.047553,2236,2209,9
1779267440.048023,2063,2120,9
1779267440.048306,1857,2124,9
1779267440.055439,1505,2016,9
1779267440.056005,2587,2262,9
1779267440.0565178,2457,2177,9
1779267440.0568352,2151,2028,9
1779267440.063045,1837,1751,9
1779267440.0632,2128,2087,9
1779267440.063274,2150,2037,9
1779267440.063343,1947,2203,9
1779267440.063412,2091,2139,9
1779267440.064854,1911,2223,9
1779267440.06794,1756,2220,9
1779267440.0695791,2224,2181,9
1779267440.0757482,2030,1900,9
1779267440.0860422,2184,1905,9
1779267440.0864708,2064,2026,9
1779267440.086793,2061,2150,9
1779267440.095041,1958,2077,9
1779267440.099168,2015,2000,9
1779267440.0996742,2032,2195,9
1779267440.099791,1796,2264,9
1779267440.099911,1627,2023,9
1779267440.099985,2082,2019,9
1779267440.1001332,2340,2176,9
1779267440.100205,2101,2335,9
1779267440.1002681,2045,2258,9
1779267440.1003299,2076,2100,9
1779267440.100391,2063,2287,9
1779267440.100487,2023,2255,9
1779267440.103424,1944,1905,9
1779267440.111595,2071,1736,9
1779267440.113827,2063,2021,9
1779267440.116981,1682,2232,9
1779267440.117733,2208,2186,9
1779267440.1206772,2641,2184,9
1779267440.120877,1831,2089,9
1779267440.123987,2110,2184,9
1779267440.124237,1911,2243,9
1779267440.1245959,2124,2024,9
1779267440.1247349,2443,2114,9
1779267440.131829,1760,2180,9
1779267440.132155,2080,2184,9
1779267440.132524,2036,2081,9
1779267440.1328619,2273,2160,9
1779267440.133186,1588,2067,9
1779267440.137635,2272,2079,9
1779267440.1377962,1929,1906,9
1779267440.139179,1983,1890,9
1779267440.140523,1965,2169,9
1779267440.1432772,1888,2226,9
1779267440.144682,2157,2148,9
1779267440.153502,2754,2247,9
1779267440.156233,2051,2558,9
1779267440.160204,1682,2300,9
1779267440.163448,2361,2044,9
1779267440.165832,2056,1983,9
1779267440.172103,2044,2266,9
1779267440.172524,2028,2362,9
1779267440.173035,1917,2430,9
1779267440.176884,1894,2346,9
1779267440.177366,1885,2364,9
1779267440.1775842,2104,2413,9
1779267440.177671,1952,2300,9
1779267440.17774,1957,2220,9
1779267440.177832,2184,2071,9
1779267440.17795,2029,2426,9
1779267440.1780338,2242,2554,9
1779267440.179426,1851,2248,9
1779267440.188677,2043,2443,9
1779267440.19404,1851,2556,9
1779267440.202044,2403,2390,9
1779267440.206796,2248,2325,9
1779267440.2077491,1830,2341,9
1779267440.208016,1943,2697,9
1779267440.208107,2155,2851,9
1779267440.208202,2174,2821,9
1779267440.208276,1956,2684,9
1779267440.208382,2037,2730,9
1779267440.2084448,2086,2789,9
1779267440.208509,1694,2591,9
1779267440.208572,2051,2362,9
1779267440.209214,2105,2603,9
1779267440.209298,2157,2699,9
1779267440.2116458,2539,2855,9
1779267440.215298,1735,2730,9
1779267440.2158139,1676,2771,9
1779267440.224301,2229,2691,9
1779267440.2288792,2607,2461,9
1779267440.229472,2184,2455,9
1779267440.229722,1883,2457,9
1779267440.232252,1939,2517,9
1779267440.23492,2028,2550,9
1779267440.24109,2005,2349,9
1779267440.241497,1983,2414,9
1779267440.2424252,1903,2490,9
1779267440.242692,1814,2303,9
1779267440.246853,2106,2136,9
1779267440.2469618,2261,2161,9
1779267440.2470431,1973,2238,9
1779267440.2471108,2032,2316,9
1779267440.247285,1926,2131,9
1779267440.247351,2424,2031,9
1779267440.248768,2319,2343,9
1779267440.257913,1343,2233,9
1779267440.260833,2049,1956,9
1779267440.261312,2438,1892,9
1779267440.2638102,2295,2054,9
1779267440.266201,1802,2244,9
1779267440.266552,1799,2213,9
1779267440.2725089,2111,2072,9
1779267440.273325,2122,2137,9
1779267440.27372,2085,2135,9
1779267440.276534,1904,1937,9
1779267440.27733,1828,1829,9
1779267440.277719,1756,1998,9
1779267440.277846,2592,2201,9
1779267440.277911,1968,2191,9
1779267440.279246,1924,2037,9
1779267440.280576,2034,2175,9
1779267440.283087,2000,2140,9
1779267440.28445,2062,1963,9
1779267440.290857,2029,1800,9
1779267440.2919302,1960,1796,9
1779267440.2927082,1906,1941,9
1779267440.293513,2327,1911,9
1779267440.2959511,1933,2048,9
1779267440.299215,1950,1920,9
1779267440.3011358,2143,1919,9
1779267440.306946,2214,1963,9
1779267440.307283,2034,1872,9
1779267440.307623,1985,1878,9
1779267440.307919,2019,2051,9
1779267440.31182,2018,2035,9
1779267440.311904,2026,2035,9
1779267440.313272,2019,1975,9
1779267440.314785,2036,2060,9
1779267440.322669,2031,2059,9
1779267440.3250802,2015,2046,9
1779267440.3252969,2036,1870,9
1779267440.328334,2042,1995,9
1779267440.330315,2038,2183,9
1779267440.3306031,1793,2244,9
1779267440.336185,2113,2132,9
1779267440.3365371,2400,2171,9
1779267440.3369029,2198,2142,9
1779267440.33757,2239,2139,9
1779267440.3404338,1605,2068,9
1779267440.3416169,1670,2045,9
1779267440.3417192,2254,2192,9
1779267440.343053,2223,2245,9
1779267440.344415,1907,2133,9
1779267440.346984,1879,2028,9
1779267440.353036,1964,2067,9
1779267440.354256,1856,2025,9
1779267440.356724,1886,1763,9
1779267440.3568661,2400,1685,9
1779267440.357056,2589,1790,9
1779267440.3595798,1914,1820,9
1779267440.36114,1738,1893,9
1779267440.36604,2039,1728,9
1779267440.3662589,2071,1641,9
1779267440.3694348,2022,1540,9
1779267440.369698,1988,1512,9
1779267440.371104,1989,1362,9
1779267440.377738,2030,1473,9
1779267440.378906,2014,1645,9
1779267440.380616,1998,1671,9
1779267440.380789,1955,1542,9
1779267440.3809578,2072,1692,9
1779267440.384904,1967,1669,9
1779267440.389833,1913,1512,9
1779267440.390164,2422,1468,9
1779267440.3903801,2052,1626,9
1779267440.39064,1806,1853,9
1779267440.393736,2098,1829,9
1779267440.395065,2036,1880,9
1779267440.396405,2040,1780,9
1779267440.398995,2145,1814,9
1779267440.40671,1996,1842,9
1779267440.407349,1895,1772,9
1779267440.409337,1991,1760,9
1779267440.4096158,2059,1841,9
1779267440.413619,2108,1968,9
1779267440.413887,2039,1932,9
1779267440.418667,2083,1906,9
1779267440.418883,2087,2009,9
1779267440.419258,2032,2016,9
1779267440.419698,2037,1910,9
1779267440.422693,2214,1893,9
1779267440.4227798,2040,1928,9
1779267440.429878,2046,2125,9
1779267440.431477,2064,2184,9
1779267440.433831,2045,1986,9
1779267440.4342358,2110,1864,9
1779267440.434473,2018,1873,9
1779267440.437195,1982,1804,9
1779267440.443617,2094,1812,9
1779267440.4438531,2103,1870,9
1779267440.444192,2045,1921,9
1779267440.44451,2059,1938,9
1779267440.4447758,2067,1954,9
1779267440.4476008,2071,1960,9
1779267440.448936,2062,1951,9
1779267440.451523,2041,1956,9
1779267440.452875,2038,1920,9
1779267440.458325,2044,1951,9
1779267440.4606001,2095,2025,9
1779267440.4625762,2034,2040,9
1779267440.465248,2035,2025,9
1779267440.4719958,2151,2058,9
1779267440.475329,2084,1960,9
1779267440.4754949,2080,1921,9
1779267440.475608,2023,1879,9
1779267440.475719,2065,1905,9
1779267440.475827,2135,2078,9
1779267440.4759219,2025,2060,9
1779267440.477281,2014,1997,9
1779267440.486188,2040,2152,9
1779267440.4886231,2074,2190,9
1779267440.491633,2051,2059,9
1779267440.493642,2017,2120,9
1779267440.498421,2032,2111,9
1779267440.498982,2037,2162,9
1779267440.499323,2042,2406,9
1779267440.499899,2053,2369,9
1779267440.502631,2041,2327,9
1779267440.503003,2102,2269,9
1779267440.5031,2077,2163,9
1779267440.5032902,2052,2125,9
1779267440.5033479,2024,2146,9
1779267440.504822,2049,2107,9
1779267440.507636,2099,2121,9
1779267440.509022,2075,2058,9
1779267440.516035,2011,2012,9
1779267440.516835,1978,1936,9
1779267440.519506,1809,1816,9
1779267440.5198731,1963,1882,9
1779267440.522196,2124,1943,9
1779267440.5244539,1962,1957,9
1779267440.5250208,1998,2145,9
1779267440.529664,2017,2108,9
1779267440.529949,1827,1893,9
1779267440.5303721,2344,1751,9
1779267440.5307798,2541,1823,9
1779267440.5337029,2248,1751,9
1779267440.535151,2103,1684,9
1779267440.540519,1922,1646,9
1779267440.542442,1969,2008,9
1779267440.543137,1908,1909,9
1779267440.543838,1867,1836,9
1779267440.5460842,2135,1892,9
1779267440.550326,2328,2132,9
1779267440.555378,2036,2280,9
1779267440.555854,1997,2249,9
1779267440.5562398,1928,2186,9
1779267440.5565639,1922,2288,9
1779267440.556777,2119,2365,9
1779267440.55983,2263,2559,9
1779267440.5612931,2124,2595,9
1779267440.5627131,2077,2321,9
1779267440.5654058,2304,2226,9
1779267440.572264,2018,1976,9
1779267440.573596,1964,2048,9
1779267440.575722,2045,2071,9
1779267440.578099,2149,2117,9
1779267440.580365,2148,2056,9
1779267440.584926,1973,1977,9
1779267440.585359,1945,1893,9
1779267440.585866,2084,1675,9
1779267440.586334,2159,1329,9
1779267440.586563,2088,1407,9
1779267440.589216,1836,1611,9
1779267440.590122,1905,1668,9
1779267440.5915048,2142,1418,9
1779267440.592861,2684,1530,9
1779267440.601184,2309,2022,9
1779267440.6016798,1432,1589,9
1779267440.604579,1485,1262,9
1779267440.6066601,2257,1123,9
1779267440.6114812,2116,1545,9
1779267440.6119208,2406,1643,9
1779267440.612166,1875,1694,9
1779267440.612563,2016,1569,9
1779267440.612929,2295,1467,9
1779267440.6134,2204,1488,9
1779267440.6165912,2222,1419,9
1779267440.6167731,2065,1220,9
1779267440.619431,2056,1232,9
1779267440.620787,2258,1534,9
1779267440.628854,2072,1722,9
1779267440.63025,1913,1718,9
1779267440.632395,2067,1517,9
1779267440.632865,1505,1511,9
1779267440.63444,2033,1323,9
1779267440.635809,2102,1260,9
1779267440.637537,2145,1440,9
1779267440.642276,2029,1595,9
1779267440.6426501,2144,1562,9
1779267440.643028,2298,1426,9
1779267440.6433861,2230,1370,9
1779267440.6466298,1939,1337,9
1779267440.646801,2064,1163,9
1779267440.653855,2074,1023,9
1779267440.6562161,1999,1116,9
1779267440.658302,2175,1295,9
1779267440.6587589,2016,1327,9
1779267440.661312,1780,1164,9
1779267440.6630368,2030,1037,9
1779267440.663384,2114,1407,9
1779267440.667884,2011,1353,9
1779267440.668213,1985,875,9
1779267440.668674,2190,854,9
1779267440.6691651,2027,1076,9
1779267440.672469,1968,1284,9
1779267440.672565,2334,1014,9
1779267440.67495,2339,853,9
1779267440.6774762,1888,765,9
1779267440.684212,1658,732,9
1779267440.6872902,2043,594,9
1779267440.68976,2085,652,9
1779267440.6907861,2257,708,9
1779267440.690994,1557,925,9
1779267440.697333,2059,1290,9
1779267440.6980171,2329,1153,9
1779267440.6986399,2238,1013,9
1779267440.6989849,2360,940,9
1779267440.699572,1887,777,9
1779267440.703136,1778,693,9
1779267440.703218,2071,848,9
1779267440.703365,1951,1006,9
1779267440.704776,1936,1272,9
1779267440.712805,2205,1008,9
1779267440.715012,2155,880,9
1779267440.715337,2068,847,9
1779267440.715754,1930,1047,9
1779267440.717993,1462,735,9
1779267440.718884,2274,878,9
1779267440.720618,2420,796,9
1779267440.725253,2239,1141,9
1779267440.725606,1902,1080,9
1779267440.72608,1992,1016,9
1779267440.7294521,2190,941,9
1779267440.729553,2125,955,9
1779267440.730913,2343,684,9
1779267440.733629,1970,887,9
1779267440.735009,1998,885,9
1779267440.744713,2028,1066,9
1779267440.744992,1798,1266,9
1779267440.74737,1962,1185,9
1779267440.748118,2047,1033,9
1779267440.754258,1949,1059,9
1779267440.754632,2159,921,9
1779267440.754861,2132,834,9
1779267440.75527,2007,1028,9
1779267440.755616,2106,974,9
1779267440.755946,1980,1487,9
1779267440.7590568,1841,1268,9
1779267440.7591412,1751,997,9
1779267440.7606049,2020,1004,9
1779267440.766887,2155,1027,9
1779267440.767788,2321,726,9
1779267440.770188,1815,1091,9
1779267440.770416,1917,993,9
1779267440.770808,1989,1515,9
1779267440.77568,2229,1407,9
1779267440.7799501,1971,1125,9
1779267440.780294,1704,1046,9
1779267440.7808828,2187,1084,9
1779267440.781316,2202,727,9
1779267440.784414,2199,1104,9
1779267440.7848802,1980,1044,9
1779267440.7875168,2011,1384,9
1779267440.788875,2156,1587,9
1779267440.797267,2073,1312,9
1779267440.798052,2128,1228,9
1779267440.8006122,2131,1329,9
1779267440.800944,1970,1167,9
1779267440.802815,1961,1043,9
1779267440.809758,1856,1223,9
1779267440.810377,1850,1230,9
1779267440.8108978,2084,1696,9
1779267440.8111942,2219,1505,9
1779267440.8115368,2035,1311,9
1779267440.8138182,1908,1314,9
1779267440.814982,2099,1357,9
1779267440.81508,1957,950,9
1779267440.816426,1909,1330,9
1779267440.823575,1873,1374,9
1779267440.8261409,1975,1932,9
1779267440.826645,2306,1765,9
1779267440.8269088,2334,1519,9
1779267440.829437,1996,1481,9
1779267440.831208,1968,1597,9
1779267440.831437,1972,1295,9
1779267440.835585,1926,1344,9
1779267440.835841,2287,1365,9
1779267440.839395,2035,1910,9
1779267440.839494,2104,1966,9
1779267440.840907,1897,1584,9
1779267440.843524,2031,1482,9
1779267440.844906,1903,1502,9
1779267440.850873,1971,1483,9
1779267440.854205,2041,1250,9
1779267440.856669,2137,1468,9
1779267440.857514,1946,1705,9
1779267440.859175,1979,2003,9
1779267440.8635688,2152,1648,9
1779267440.863931,2006,1385,9
1779267440.864207,1722,1386,9
1779267440.864734,1999,1505,9
1779267440.865087,1972,1146,9
1779267440.8687701,2309,1515,9
1779267440.8688462,2065,1463,9
1779267440.8779478,1886,2053,9
1779267440.8786051,1881,1735,9
1779267440.88099,2158,1391,9
1779267440.88149,2184,1376,9
1779267440.881794,1994,1546,9
1779267440.884269,1996,1284,9
1779267440.88995,1955,1456,9
1779267440.890527,2028,1386,9
1779267440.891048,1943,2060,9
1779267440.891715,1986,2065,9
1779267440.89204,1954,1673,9
1779267440.8954089,1949,1469,9
1779267440.895494,1911,1570,9
1779267440.896841,2136,1451,9
1779267440.8995829,2136,1366,9
1779267440.9009762,2018,1555,9
1779267440.907059,1987,1683,9
1779267440.9084978,1965,1998,9
1779267440.909918,2078,1686,9
1779267440.9135869,2078,1509,9
1779267440.916754,2023,1563,9
1779267440.917186,1963,1665,9
1779267440.922188,2043,1203,9
1779267440.922472,1953,1634,9
1779267440.922891,2015,1668,9
1779267440.923153,1997,2229,9
1779267440.925909,1919,1959,9
1779267440.926837,2084,1648,9
1779267440.926941,2045,1529,9
1779267440.928448,2070,1672,9
1779267440.937648,2035,1456,9
1779267440.9384189,2071,1592,9
1779267440.94109,2019,1566,9
1779267440.94154,1940,2128,9
1779267440.9437408,1994,2118,9
1779267440.9509299,2287,1743,9
1779267440.951327,2220,1535,9
1779267440.9515321,1751,1701,9
1779267440.951863,1885,1560,9
1779267440.952322,2195,1455,9
1779267440.952561,1984,1675,9
1779267440.952937,1892,2074,9
1779267440.9566941,1978,2339,9
1779267440.956799,1899,1898,9
1779267440.959446,1772,1661,9
1779267440.9608681,1781,1728,9
1779267440.963847,1821,1731,9
1779267440.9692311,2413,1283,9
1779267440.970051,2213,1764,9
1779267440.974386,2037,1836,9
1779267440.975023,2056,2381,9
1779267440.975272,2154,2125,9
1779267440.97999,2240,1698,9
1779267440.984732,2125,1557,9
1779267440.985047,2015,1803,9
1779267440.9856691,2079,1646,9
1779267440.9859998,1956,1707,9
1779267440.9863749,1840,1698,9
1779267440.98693,1804,2321,9
1779267440.9908092,2079,2188,9
1779267440.990973,1896,1803,9
1779267440.9926012,1946,1510,9
1779267441.005314,2203,1658,9
1779267441.006886,2053,1576,9
1779267441.013241,2104,1559,9
1779267441.013543,1970,1725,9
1779267441.013918,1933,1920,9
