timestamp,ch1,ch2,label
1778660428.648745,2307,0,5
1778660428.648777,2148,0,5
1778660428.651892,2130,0,5
1778660428.652357,2344,0,5
1778660428.657706,2484,0,5
1778660428.659599,2302,0,5
1778660428.6606138,2164,0,5
1778660428.660817,2158,0,5
1778660428.662776,2218,0,5
1778660428.6641479,2182,0,5
1778660428.6667771,2069,0,5
1778660428.668299,2224,0,5
1778660428.670733,2391,0,5
1778660428.6721869,2428,0,5
1778660428.678667,2234,0,5
1778660428.681619,2163,0,5
1778660428.684134,2198,0,5
1778660428.68509,2193,0,5
1778660428.685332,2122,0,5
1778660428.685545,2129,0,5
1778660428.687368,2240,0,5
1778660428.68874,2494,0,5
1778660428.6900659,2261,0,5
1778660428.692683,2152,0,5
1778660428.6940181,2165,0,5
1778660428.699936,2245,0,5
1778660428.7004108,2106,0,5
1778660428.701668,2111,0,5
1778660428.7055612,2243,0,5
1778660428.7057338,2429,0,5
1778660428.709036,2251,0,5
1778660428.7092102,2157,0,5
1778660428.71245,2104,0,5
1778660428.712519,2205,0,5
1778660428.7139452,2143,0,5
1778660428.7165818,2048,0,5
1778660428.717943,2131,0,5
1778660428.724443,2312,0,5
1778660428.724627,2330,0,5
1778660428.7258198,2223,0,5
1778660428.730467,2149,0,5
1778660428.730973,2138,0,5
1778660428.7311082,2154,0,5
1778660428.733422,2016,0,5
1778660428.7354329,2088,0,5
1778660428.736812,2248,0,5
1778660428.7381709,2360,0,5
1778660428.7408,2148,0,5
1778660428.742199,2063,0,5
1778660428.7488089,2073,0,5
1778660428.749685,2148,0,5
1778660428.753493,2038,0,5
1778660428.753679,2010,0,5
1778660428.754574,2151,0,5
1778660428.755019,2376,0,5
1778660428.7574341,2204,0,5
1778660428.7602382,2082,0,5
1778660428.760606,2026,0,5
1778660428.7620108,2149,0,5
1778660428.764648,2130,0,5
1778660428.7659829,2028,0,5
1778660428.7685912,2090,0,5
1778660428.7733529,2256,0,5
1778660428.774629,2301,0,5
1778660428.776489,2113,0,5
1778660428.7788951,2006,0,5
1778660428.780101,2051,0,5
1778660428.780683,2121,0,5
1778660428.782434,2023,0,5
1778660428.785447,2074,0,5
1778660428.786829,2228,0,5
1778660428.788159,2328,0,5
1778660428.798142,2170,0,5
1778660428.798594,2088,0,5
1778660428.7991319,2059,0,5
1778660428.8006752,2149,0,5
1778660428.801244,2044,0,5
1778660428.802652,1967,0,5
1778660428.802848,2116,0,5
1778660428.805974,2293,0,5
1778660428.8060422,2198,0,5
1778660428.808702,2103,0,5
1778660428.810076,2063,0,5
1778660428.812493,2128,0,5
1778660428.8140879,2073,0,5
1778660428.8224058,1945,0,5
1778660428.8225431,2014,0,5
1778660428.829076,2232,0,5
1778660428.8293078,2258,0,5
1778660428.82947,2089,0,5
1778660428.829796,1994,0,5
1778660428.829972,2076,0,5
1778660428.830417,2129,0,5
1778660428.832469,1952,0,5
1778660428.83511,1930,0,5
1778660428.8366022,2092,0,5
1778660428.841127,2240,0,5
1778660428.842253,2074,0,5
1778660428.844117,1993,0,5
1778660428.844376,1991,0,5
1778660428.8479092,2101,0,5
1778660428.849969,2060,0,5
1778660428.850204,1998,0,5
1778660428.853621,2141,0,5
1778660428.854961,2328,0,5
1778660428.8563452,2198,0,5
1778660428.858999,2061,0,5
1778660428.860359,1962,0,5
1778660428.8629901,2018,0,5
1778660428.8696609,1954,0,5
1778660428.870225,1867,0,5
1778660428.871596,2005,0,5
1778660428.8734798,2173,0,5
1778660428.874088,2063,0,5
1778660428.874917,2003,0,5
1778660428.879223,2037,0,5
1778660428.8796191,2028,0,5
1778660428.88181,1896,0,5
1778660428.8820648,1835,0,5
1778660428.88467,2009,0,5
1778660428.886005,2274,0,5
1778660428.892025,2348,0,5
1778660428.8922281,2151,0,5
1778660428.8940969,2041,0,5
1778660428.8944561,2010,0,5
1778660428.8961978,2091,0,5
1778660428.8988428,1980,0,5
1778660428.9006011,1876,0,5
1778660428.9036531,2006,0,5
1778660428.905134,2188,0,5
1778660428.906463,2069,0,5
1778660428.907912,1967,0,5
1778660428.9105458,1942,0,5
1778660428.911926,2032,0,5
1778660428.9203598,1973,0,5
1778660428.922422,1828,0,5
1778660428.92658,1901,0,5
1778660428.92821,2064,0,5
1778660428.931231,2143,0,5
1778660428.934079,2040,0,5
1778660428.934162,1946,0,5
1778660428.9342139,2026,0,5
1778660428.934263,2110,0,5
1778660428.93431,1897,0,5
1778660428.934361,1844,0,5
1778660428.937104,2130,0,5
1778660428.938714,2285,0,5
1778660428.944285,2075,0,5
1778660428.946673,1927,0,5
1778660428.947131,1893,0,5
1778660428.949101,1973,0,5
1778660428.9496489,1922,0,5
1778660428.951194,1932,0,5
1778660428.953303,2071,0,5
1778660428.955049,2246,0,5
1778660428.957128,2141,0,5
1778660428.958427,2083,0,5
1778660428.959905,2027,0,5
1778660428.962585,2020,0,5
1778660428.963935,1958,0,5
1778660428.9666061,1872,0,5
1778660428.973193,2019,0,5
1778660428.9751182,2164,0,5
1778660428.977015,2189,0,5
1778660428.97712,2038,0,5
1778660428.979918,1944,0,5
1778660428.981751,1980,0,5
1778660428.98239,2040,0,5
1778660428.9844632,1910,0,5
1778660428.984573,1916,0,5
1778660428.98633,2082,0,5
1778660428.9887009,2216,0,5
1778660428.990023,2021,0,5
1778660428.992584,1935,0,5
1778660428.997514,1917,0,5
1778660428.9980102,2034,0,5
1778660428.998508,1930,0,5
1778660429.0006132,1858,0,5
1778660429.002293,2108,0,5
1778660429.0061052,2257,0,5
1778660429.007391,2136,0,5
1778660429.009668,2011,0,5
1778660429.0109692,1963,0,5
1778660429.0122628,2062,0,5
1778660429.014836,2024,0,5
1778660429.01615,1899,0,5
1778660429.0186949,1990,0,5
1778660429.020075,2141,0,5
1778660429.0283022,2171,0,5
1778660429.033341,1993,0,5
1778660429.034801,1912,0,5
1778660429.0365582,1922,0,5
1778660429.0366678,2093,0,5
1778660429.038186,1953,0,5
1778660429.038569,1915,0,5
1778660429.038892,2079,0,5
1778660429.039095,2243,0,5
1778660429.041229,2099,0,5
1778660429.0425951,2029,0,5
1778660429.043933,2012,0,5
1778660429.053618,2038,0,5
1778660429.05381,1955,0,5
1778660429.054135,1906,0,5
1778660429.054263,1997,0,5
1778660429.0566049,2186,0,5
1778660429.0572631,2070,0,5
1778660429.060929,2061,0,5
1778660429.061109,1984,0,5
1778660429.064994,2000,0,5
1778660429.065075,2066,0,5
1778660429.066428,1964,0,5
1778660429.0689201,1990,0,5
1778660429.070267,2167,0,5
1778660429.0728252,2245,0,5
1778660429.074167,2096,0,5
1778660429.081376,2032,0,5
1778660429.0819998,2024,0,5
1778660429.083053,2060,0,5
1778660429.084741,1945,0,5
1778660429.086365,1935,0,5
1778660429.087635,2107,0,5
1778660429.0892138,2274,0,5
1778660429.0912268,2115,0,5
1778660429.0931451,2009,0,5
1778660429.095375,1922,0,5
1778660429.096729,2005,0,5
1778660429.098092,1944,0,5
1778660429.104906,1902,0,5
1778660429.105515,2044,0,5
1778660429.106179,2192,0,5
1778660429.108056,2244,0,5
1778660429.108395,2127,0,5
1778660429.1118588,1974,0,5
1778660429.11283,2057,0,5
1778660429.114819,2073,0,5
1778660429.116377,1984,0,5
1778660429.118931,2033,0,5
1778660429.120302,2191,0,5
1778660429.122926,2260,0,5
1778660429.1242602,2101,0,5
1778660429.1268978,1994,0,5
1778660429.128342,1986,0,5
1778660429.133892,2069,0,5
1778660429.134955,1957,0,5
1778660429.137107,1900,0,5
1778660429.138935,2099,0,5
1778660429.139148,2234,0,5
1778660429.1407008,2064,0,5
1778660429.143494,1997,0,5
1778660429.145173,2009,0,5
1778660429.1476438,2123,0,5
1778660429.149035,2028,0,5
1778660429.150195,1951,0,5
1778660429.159636,2080,0,5
1778660429.161569,2269,0,5
1778660429.162956,2204,0,5
1778660429.163968,2071,0,5
1778660429.1665988,1986,0,5
1778660429.1684859,2013,0,5
1778660429.170749,2053,0,5
1778660429.17106,1888,0,5
1778660429.171115,1991,0,5
1778660429.1711621,2201,0,5
1778660429.172498,2280,0,5
1778660429.173861,2096,0,5
1778660429.1764631,2005,0,5
1778660429.1778078,2018,0,5
1778660429.180397,2067,0,5
1778660429.186372,1933,0,5
1778660429.1865861,1923,0,5
1778660429.188063,2077,0,5
1778660429.189887,2246,0,5
1778660429.1927612,2081,0,5
1778660429.193732,1970,0,5
1778660429.1984022,1935,0,5
1778660429.198943,2055,0,5
1778660429.1991522,2007,0,5
1778660429.201764,1982,0,5
1778660429.201847,2055,0,5
1778660429.204462,2218,0,5
1778660429.2059252,2145,0,5
1778660429.2129269,2046,0,5
1778660429.217082,1961,0,5
1778660429.218082,2025,0,5
1778660429.218781,1992,0,5
1778660429.219789,1891,0,5
1778660429.220444,1960,0,5
1778660429.222355,2107,0,5
1778660429.2241988,2263,0,5
1778660429.224472,2071,0,5
1778660429.227125,1981,0,5
1778660429.228493,1950,0,5
1778660429.2298281,2005,0,5
1778660429.2324202,1893,0,5
1778660429.233776,1901,0,5
1778660429.236392,2065,0,5
1778660429.2433112,2267,0,5
1778660429.244338,2111,0,5
1778660429.246778,2009,0,5
1778660429.247036,1965,0,5
1778660429.247328,2083,0,5
1778660429.2492669,1986,0,5
1778660429.250864,1898,0,5
1778660429.25566,2043,0,5
1778660429.255925,2183,0,5
1778660429.2562282,2172,0,5
1778660429.258351,2059,0,5
1778660429.26065,1962,0,5
1778660429.261985,2021,0,5
1778660429.269141,2018,0,5
1778660429.270157,1899,0,5
1778660429.270331,1945,0,5
1778660429.272371,2150,0,5
1778660429.274837,2231,0,5
1778660429.2751539,2072,0,5
1778660429.277618,1980,0,5
1778660429.27948,1939,0,5
1778660429.281613,1986,0,5
1778660429.282167,1917,0,5
1778660429.284367,1947,0,5
1778660429.286925,2110,0,5
1778660429.288256,2230,0,5
1778660429.290856,2075,0,5
1778660429.2921898,1991,0,5
1778660429.294794,1882,0,5
1778660429.300585,1945,0,5
1778660429.302021,2045,0,5
1778660429.303539,1891,0,5
1778660429.303823,2020,0,5
1778660429.304239,2179,0,5
1778660429.306528,2189,0,5
1778660429.308751,2041,0,5
1778660429.312912,1984,0,5
1778660429.313132,2063,0,5
1778660429.315957,2036,0,5
1778660429.3160682,1851,0,5
1778660429.3187299,1868,0,5
1778660429.3201349,2101,0,5
1778660429.325311,2258,0,5
1778660429.326946,2075,0,5
1778660429.327931,2008,0,5
1778660429.328126,1977,0,5
1778660429.332032,2061,0,5
1778660429.333058,1958,0,5
1778660429.336352,1926,0,5
1778660429.336488,2010,0,5
1778660429.338735,2129,0,5
1778660429.341398,2098,0,5
1778660429.342731,2039,0,5
1778660429.344051,1945,0,5
1778660429.34686,2009,0,5
1778660429.348214,1931,0,5
1778660429.351151,1989,0,5
1778660429.357922,2175,0,5
1778660429.358559,2285,0,5
1778660429.361026,2091,0,5
1778660429.361367,1905,0,5
1778660429.361611,1961,0,5
1778660429.365262,2077,0,5
1778660429.365459,1944,0,5
1778660429.368403,1804,0,5
1778660429.370642,1978,0,5
1778660429.370929,2228,0,5
1778660429.3730319,2314,0,5
1778660429.374391,2097,0,5
1778660429.3757172,1981,0,5
1778660429.378528,1992,0,5
1778660429.3838642,2063,0,5
1778660429.385076,1952,0,5
1778660429.38574,1856,0,5
1778660429.387653,2018,0,5
1778660429.390435,2222,0,5
1778660429.391541,2127,0,5
1778660429.3964381,2042,0,5
1778660429.396806,1981,0,5
1778660429.396982,2065,0,5
1778660429.399588,1995,0,5
1778660429.4010031,1668,0,5
1778660429.402475,1862,0,5
1778660429.403975,2086,0,5
1778660429.406622,2154,0,5
1778660429.40802,2091,0,5
1778660429.410701,2078,0,5
1778660429.4185421,1891,0,5
1778660429.419111,2076,0,5
1778660429.420712,2056,0,5
1778660429.420884,2003,0,5
1778660429.421407,2041,0,5
1778660429.42339,1758,0,5
1778660429.4253461,1794,0,5
1778660429.427886,2195,0,5
1778660429.429868,1935,0,5
1778660429.429975,2176,0,5
1778660429.432331,1842,0,5
1778660429.434901,1215,0,5
1778660429.436216,2161,0,5
1778660429.441804,2985,0,5
1778660429.442368,2543,0,5
1778660429.442456,2026,0,5
1778660429.445036,1879,0,5
1778660429.447317,2031,0,5
1778660429.4492958,2090,0,5
1778660429.451336,1998,0,5
1778660429.453592,2129,0,5
1778660429.4564521,2200,0,5
1778660429.456529,2069,0,5
1778660429.459164,1873,0,5
1778660429.460565,1580,0,5
1778660429.461695,1706,0,5
1778660429.464401,1638,0,5
1778660429.466913,1422,0,5
1778660429.474151,1953,0,5
1778660429.476707,2218,0,5
1778660429.476943,2548,0,5
1778660429.4793742,2149,0,5
1778660429.483698,2094,0,5
1778660429.486285,2111,0,5
1778660429.486505,2283,0,5
1778660429.486749,2072,0,5
1778660429.487045,2023,0,5
1778660429.487301,2121,0,5
1778660429.489799,2166,0,5
1778660429.490201,1895,0,5
1778660429.491675,1795,0,5
1778660429.536654,1744,0,5
1778660429.536814,1987,0,5
1778660429.536868,2122,0,5
1778660429.537038,2120,0,5
1778660429.5371678,1988,0,5
1778660429.5372329,2113,0,5
1778660429.537285,2044,0,5
1778660429.537334,1925,0,5
1778660429.537382,1771,0,5
1778660429.537434,2034,0,5
1778660429.537482,2061,0,5
1778660429.5375319,1829,0,5
1778660429.537579,1917,0,5
1778660429.537642,2102,0,5
1778660429.537674,2084,0,5
1778660429.5377018,2050,0,5
1778660429.53773,2140,0,5
1778660429.537757,1915,0,5
1778660429.537784,2051,0,5
1778660429.537811,2054,0,5
1778660429.537838,1794,0,5
1778660429.537864,1967,0,5
1778660429.5378911,2143,0,5
1778660429.540555,1917,0,5
1778660429.541949,2024,0,5
1778660429.544905,1888,0,5
1778660429.5463,2059,0,5
1778660429.54771,2047,0,5
1778660429.550518,1884,0,5
1778660429.5577788,1953,0,5
1778660429.559455,2062,0,5
1778660429.559843,1975,0,5
1778660429.562446,2074,0,5
1778660429.5639958,2107,0,5
1778660429.565002,1767,0,5
1778660429.565242,1859,0,5
1778660429.5700579,1989,0,5
1778660429.570679,1896,0,5
1778660429.573382,2063,0,5
1778660429.573511,2115,0,5
1778660429.573626,1845,0,5
1778660429.5762718,1881,0,5
1778660429.578818,1877,0,5
1778660429.5846322,1737,0,5
1778660429.585289,1595,0,5
1778660429.587608,1640,0,5
1778660429.58796,2122,0,5
1778660429.588331,2292,0,5
1778660429.590639,1899,0,5
1778660429.592531,1870,0,5
1778660429.594557,1805,0,5
1778660429.5987809,2077,0,5
1778660429.599387,1738,0,5
1778660429.60075,1605,0,5
1778660429.602104,1472,0,5
1778660429.6047082,1771,0,5
1778660429.606061,1888,0,5
1778660429.608748,1909,0,5
1778660429.6101592,1941,0,5
1778660429.617963,1814,0,5
1778660429.618133,2151,0,5
1778660429.620964,1640,0,5
1778660429.6215081,1681,0,5
1778660429.622119,1839,0,5
1778660429.622985,2003,0,5
1778660429.6249359,2000,0,5
1778660429.627502,1823,0,5
1778660429.627896,2218,0,5
1778660429.6306639,1325,0,5
1778660429.632101,1420,0,5
1778660429.6388538,2200,0,5
1778660429.639849,2234,0,5
1778660429.6426518,2272,0,5
1778660429.642879,1956,0,5
1778660429.645157,1980,0,5
1778660429.646522,1299,0,5
1778660429.6466591,1474,0,5
1778660429.649291,1934,0,5
1778660429.651774,2107,0,5
1778660429.6519392,1356,0,5
1778660429.653876,1420,0,5
1778660429.656499,1759,0,5
1778660429.657899,2142,0,5
1778660429.6605399,1988,0,5
1778660429.6619232,1982,0,5
1778660429.664426,2446,0,5
1778660429.6697001,2010,0,5
1778660429.6723971,1905,0,5
1778660429.6726348,2038,0,5
1778660429.6728342,2198,0,5
1778660429.675704,2196,0,5
1778660429.675877,1518,0,5
1778660429.6787798,1605,0,5
1778660429.681888,1773,0,5
1778660429.682143,1736,0,5
1778660429.684436,1903,0,5
1778660429.6858392,1792,0,5
1778660429.6885161,2187,0,5
1778660429.694001,2224,0,5
1778660429.694915,1914,0,5
1778660429.695433,1699,0,5
1778660429.697163,1700,0,5
1778660429.699371,1750,0,5
1778660429.700854,2056,0,5
1778660429.703271,2012,0,5
1778660429.7056482,2021,0,5
1778660429.7060428,2228,0,5
1778660429.708371,2055,0,5
1778660429.7097752,1911,0,5
1778660429.712519,2070,0,5
1778660429.713898,1843,0,5
1778660429.7166662,1777,0,5
1778660429.7180889,1513,0,5
1778660429.723408,1888,0,5
1778660429.7259982,2082,0,5
1778660429.726157,1884,0,5
1778660429.72641,1794,0,5
1778660429.729447,1709,0,5
1778660429.732447,1756,0,5
1778660429.7349691,2026,0,5
1778660429.735095,1830,0,5
1778660429.737556,2097,0,5
1778660429.737671,2232,0,5
1778660429.7402399,2384,0,5
1778660429.741666,2166,0,5
1778660429.7467039,1960,0,5
1778660429.747275,1767,0,5
1778660429.75004,1907,0,5
1778660429.752436,1836,0,5
1778660429.753061,1822,0,5
1778660429.756316,1819,0,5
1778660429.756515,1804,0,5
1778660429.759027,1889,0,5
1778660429.7615921,1706,0,5
1778660429.761688,1661,0,5
1778660429.7642822,1847,0,5
1778660429.765654,1843,0,5
1778660429.768287,1831,0,5
1778660429.7696168,1813,0,5
1778660429.772251,1848,0,5
1778660429.779753,1957,0,5
1778660429.781558,1963,0,5
1778660429.781755,1814,0,5
1778660429.782047,1938,0,5
1778660429.7844648,1693,0,5
1778660429.784975,1731,0,5
1778660429.787055,2083,0,5
1778660429.7888372,1856,0,5
1778660429.7919118,1924,0,5
1778660429.7924962,2198,0,5
1778660429.795135,2045,0,5
1778660429.796543,2061,0,5
1778660429.797882,2052,0,5
1778660429.805093,1807,0,5
1778660429.806133,1800,0,5
1778660429.808285,2006,0,5
1778660429.810393,2074,0,5
1778660429.8125482,2017,0,5
1778660429.813212,1652,0,5
1778660429.814313,1896,0,5
1778660429.818615,1925,0,5
1778660429.819007,1696,0,5
1778660429.819228,1740,0,5
1778660429.8214881,2070,0,5
1778660429.8217258,2268,0,5
1778660429.8243709,1912,0,5
1778660429.8257148,1868,0,5
1778660429.828463,1620,0,5
1778660429.8298292,1879,0,5
1778660429.83283,2011,0,5
1778660429.8391669,2048,0,5
1778660429.83977,2079,0,5
1778660429.843312,2182,0,5
1778660429.8442922,2022,0,5
1778660429.84489,1645,0,5
1778660429.8454988,1444,0,5
1778660429.846554,1891,0,5
1778660429.848753,2120,0,5
1778660429.851778,2035,0,5
1778660429.8521202,1847,0,5
1778660429.85467,1950,0,5
1778660429.856063,2432,0,5
1778660429.8585489,2381,0,5
1778660429.865494,2155,0,5
1778660429.8677602,1866,0,5
1778660429.869586,1504,0,5
1778660429.869782,1490,0,5
1778660429.870389,1646,0,5
1778660429.8708858,2029,0,5
1778660429.8745742,1299,0,5
1778660429.877391,1725,0,5
1778660429.877604,2143,0,5
1778660429.877923,2517,0,5
1778660429.880401,2458,0,5
1778660429.882147,2177,0,5
1778660429.883575,1881,0,5
1778660429.886177,1736,0,5
1778660429.8875442,2386,0,5
1778660429.8905091,2596,0,5
1778660429.897881,2248,0,5
1778660429.8998039,1704,0,5
1778660429.8999941,1686,0,5
1778660429.900426,1891,0,5
1778660429.90117,1590,0,5
1778660429.903578,1286,0,5
1778660429.904684,1727,0,5
1778660429.908054,1572,0,5
1778660429.9081979,1825,0,5
1778660429.911019,2454,0,5
1778660429.9131038,2431,0,5
1778660429.91429,2272,0,5
1778660429.915776,2084,0,5
1778660429.9186509,2209,0,5
1778660429.923386,2309,0,5
1778660429.923991,1608,0,5
1778660429.925112,1587,0,5
1778660429.92698,1757,0,5
1778660429.929479,683,0,5
1778660429.9310899,1436,0,5
1778660429.9367812,1599,0,5
1778660429.937131,1803,0,5
1778660429.937239,2588,0,5
1778660429.9397812,2594,0,5
1778660429.939849,3046,0,5
1778660429.9424682,2631,0,5
1778660429.943882,1989,0,5
1778660429.946499,1344,0,5
1778660429.947886,1114,0,5
1778660429.95561,1164,0,5
1778660429.956368,2193,0,5
1778660429.95698,1842,0,5
1778660429.959305,1307,0,5
1778660429.959417,1816,0,5
1778660429.962323,1887,0,5
1778660429.963263,2791,0,5
1778660429.96875,2810,0,5
1778660429.968983,2268,0,5
1778660429.969311,1881,0,5
1778660429.971838,2091,0,5
1778660429.97213,2924,0,5
1778660429.973577,2051,0,5
1778660429.976205,1616,0,5
1778660429.982867,1463,0,5
1778660429.985228,1651,0,5
1778660429.985526,2175,0,5
1778660429.98585,1950,0,5
1778660429.987421,2056,0,5
1778660429.987901,2377,0,5
1778660429.990399,2814,0,5
1778660429.9924622,2735,0,5
1778660429.995369,2234,0,5
1778660429.995611,1716,0,5
1778660429.9976692,2471,0,5
1778660430.000318,2896,0,5
1778660430.001684,1902,0,5
1778660430.004315,1476,0,5
1778660430.0056498,2852,0,5
1778660430.008252,1841,0,5
1778660430.014475,2411,0,5
1778660430.01554,3357,0,5
1778660430.018024,3263,0,5
1778660430.018311,2474,0,5
1778660430.0185118,2534,0,5
1778660430.022909,2110,0,5
1778660430.023521,2519,0,5
1778660430.023699,2947,0,5
1778660430.028357,2896,0,5
1778660430.030956,2751,0,5
1778660430.0310369,2535,0,5
1778660430.032533,2226,0,5
1778660430.033875,2567,0,5
1778660430.04147,3061,0,5
1778660430.0435572,2524,0,5
1778660430.046114,2600,0,5
1778660430.0466309,3071,0,5
1778660430.0471628,2181,0,5
1778660430.047298,2241,0,5
1778660430.048943,2722,0,5
1778660430.0505211,2690,0,5
1778660430.0536509,2584,0,5
1778660430.053768,2752,0,5
1778660430.056374,2775,0,5
1778660430.057774,2290,0,5
1778660430.06048,2160,0,5
1778660430.061902,2077,0,5
1778660430.0644832,2126,0,5
1778660430.06583,2020,0,5
1778660430.07309,2055,0,5
1778660430.074188,2253,0,5
1778660430.074879,2650,0,5
1778660430.075525,2533,0,5
1778660430.077257,2222,0,5
1778660430.080547,1937,0,5
1778660430.082043,2243,0,5
1778660430.084171,2124,0,5
1778660430.084351,2098,0,5
1778660430.0876732,2133,0,5
1778660430.088165,2212,0,5
1778660430.0907142,2449,0,5
1778660430.0920472,2523,0,5
1778660430.093461,2212,0,5
1778660430.102473,2155,0,5
1778660430.104453,2162,0,5
1778660430.104612,2095,0,5
1778660430.10483,2086,0,5
1778660430.106671,2353,0,5
1778660430.106839,2283,0,5
1778660430.109545,2122,0,5
1778660430.1102238,2089,0,5
1778660430.112043,2102,0,5
1778660430.115645,2087,0,5
1778660430.115813,1964,0,5
1778660430.1180868,1933,0,5
1778660430.119423,2158,0,5
1778660430.122127,2396,0,5
1778660430.123463,2177,0,5
1778660430.126091,2141,0,5
1778660430.127452,1735,0,5
1778660430.135707,1604,0,5
1778660430.136225,2420,0,5
1778660430.137804,2534,0,5
1778660430.138218,2238,0,5
1778660430.140683,1868,0,5
1778660430.142339,2173,0,5
1778660430.143063,2330,0,5
1778660430.1491709,1882,0,5
1778660430.149652,2165,0,5
1778660430.151794,2251,0,5
1778660430.15245,1998,0,5
1778660430.152736,1827,0,5
1778660430.154123,1938,0,5
1778660430.155484,2158,0,5
1778660430.163129,2066,0,5
1778660430.164629,1840,0,5
1778660430.1663659,1872,0,5
1778660430.169006,1771,0,5
1778660430.1706939,1387,0,5
1778660430.1716511,1886,0,5
1778660430.172151,2312,0,5
1778660430.1738932,2190,0,5
1778660430.1769931,1929,0,5
1778660430.1771462,2220,0,5
1778660430.1796422,2152,0,5
1778660430.179877,2067,0,5
1778660430.182454,1710,0,5
1778660430.18376,1451,0,5
1778660430.186103,1691,0,5
1778660430.187417,1911,0,5
1778660430.189986,1830,0,5
1778660430.195128,1683,0,5
1778660430.1951869,1698,0,5
1778660430.197255,1720,0,5
1778660430.198903,1884,0,5
1778660430.201925,1593,0,5
1778660430.201992,1465,0,5
1778660430.206023,1858,0,5
1778660430.209651,2286,0,5
1778660430.21001,2012,0,5
1778660430.212374,1812,0,5
1778660430.212502,1820,0,5
1778660430.213887,1763,0,5
1778660430.216473,1968,0,5
1778660430.223989,1993,0,5
1778660430.226188,2091,0,5
1778660430.226608,1851,0,5
1778660430.2295308,1901,0,5
1778660430.231453,1978,0,5
1778660430.2317178,2134,0,5
1778660430.2340748,1715,0,5
1778660430.237695,1709,0,5
1778660430.238112,2166,0,5
1778660430.238444,2116,0,5
1778660430.238878,2280,0,5
1778660430.241524,2216,0,5
1778660430.241605,1997,0,5
1778660430.243979,1999,0,5
1778660430.2465549,2108,0,5
1778660430.2478988,2319,0,5
1778660430.250516,1641,0,5
1778660430.251868,1664,0,5
1778660430.259213,1998,0,5
1778660430.260694,2549,0,5
1778660430.263055,1973,0,5
1778660430.265842,1760,0,5
1778660430.267073,2186,0,5
1778660430.267988,2345,0,5
1778660430.268138,1742,0,5
1778660430.273761,1863,0,5
1778660430.2740638,1861,0,5
1778660430.274274,2097,0,5
1778660430.2762399,2127,0,5
1778660430.2771149,2063,0,5
1778660430.278482,1847,0,5
1778660430.279876,1703,0,5
1778660430.287741,1777,0,5
1778660430.288289,2058,0,5
1778660430.288482,2034,0,5
1778660430.290526,2179,0,5
1778660430.2909791,2407,0,5
1778660430.2929611,2099,0,5
1778660430.295572,1845,0,5
1778660430.297622,1661,0,5
1778660430.300952,1808,0,5
1778660430.3014321,1775,0,5
1778660430.301785,1812,0,5
1778660430.304338,1973,0,5
1778660430.305717,1978,0,5
1778660430.308358,1792,0,5
1778660430.309728,1745,0,5
1778660430.312425,1769,0,5
1778660430.313771,1739,0,5
1778660430.321504,1929,0,5
1778660430.3235378,1730,0,5
1778660430.325556,1697,0,5
1778660430.326248,1834,0,5
1778660430.326827,1852,0,5
1778660430.32696,1680,0,5
1778660430.329149,1539,0,5
1778660430.3310158,1726,0,5
1778660430.334613,1559,0,5
1778660430.334773,1381,0,5
1778660430.337353,1785,0,5
1778660430.3374321,1871,0,5
1778660430.340072,1839,0,5
1778660430.341463,1707,0,5
1778660430.348702,1630,0,5
1778660430.350754,1766,0,5
1778660430.350932,1986,0,5
1778660430.353909,1449,0,5
1778660430.3547242,1586,0,5
1778660430.354851,1895,0,5
1778660430.3565068,2228,0,5
1778660430.3582668,2077,0,5
1778660430.361693,1824,0,5
1778660430.3621519,1669,0,5
1778660430.364823,1756,0,5
1778660430.366242,1816,0,5
1778660430.367599,1736,0,5
1778660430.370146,1787,0,5
1778660430.371521,1831,0,5
1778660430.374145,1730,0,5
1778660430.375476,1621,0,5
1778660430.382889,1731,0,5
1778660430.384593,2033,0,5
1778660430.386729,1962,0,5
1778660430.387282,1628,0,5
1778660430.388435,1746,0,5
1778660430.389801,1910,0,5
1778660430.392139,1990,0,5
1778660430.392349,1836,0,5
1778660430.3956459,1802,0,5
1778660430.396009,1870,0,5
1778660430.398582,1915,0,5
1778660430.4001422,1738,0,5
1778660430.401522,1698,0,5
1778660430.409208,1919,0,5
1778660430.40973,2152,0,5
1778660430.4098701,2179,0,5
1778660430.410485,2197,0,5
1778660430.41206,1720,0,5
1778660430.41398,1649,0,5
1778660430.415561,2149,0,5
1778660430.418325,2347,0,5
1778660430.421621,1737,0,5
1778660430.421813,1974,0,5
1778660430.4239638,2057,0,5
1778660430.425303,2060,0,5
1778660430.427904,1878,0,5
1778660430.4293172,2114,0,5
1778660430.431874,1983,0,5
1778660430.438704,1875,0,5
1778660430.439239,2009,0,5
1778660430.4405398,2187,0,5
1778660430.441948,2168,0,5
1778660430.4420302,2008,0,5
1778660430.4441931,2077,0,5
1778660430.445645,2213,0,5
1778660430.447854,1933,0,5
1778660430.4508731,1413,0,5
1778660430.453172,1816,0,5
1778660430.45336,2071,0,5
1778660430.455921,2376,0,5
1778660430.457271,2124,0,5
1778660430.461897,1894,0,5
1778660430.4627461,1930,0,5
1778660430.4648829,2181,0,5
1778660430.466635,1934,0,5
1778660430.4680068,2019,0,5
1778660430.470502,2117,0,5
1778660430.4734578,2265,0,5
1778660430.473879,2092,0,5
1778660430.47595,1917,0,5
1778660430.477298,2076,0,5
1778660430.4798799,1871,0,5
1778660430.481251,1886,0,5
1778660430.483812,1787,0,5
1778660430.486579,2026,0,5
1778660430.491861,2159,0,5
1778660430.49277,2184,0,5
1778660430.49421,1949,0,5
1778660430.494275,1877,0,5
1778660430.4964302,1872,0,5
1778660430.498222,2125,0,5
1778660430.502851,1947,0,5
1778660430.503106,1839,0,5
1778660430.503387,2281,0,5
1778660430.50631,2227,0,5
1778660430.5076082,2127,0,5
1778660430.514213,2069,0,5
1778660430.5154428,1942,0,5
1778660430.51716,1946,0,5
1778660430.517492,2009,0,5
1778660430.5191302,1981,0,5
1778660430.520833,2089,0,5
1778660430.523048,2356,0,5
1778660430.525907,2223,0,5
1778660430.5263202,2212,0,5
1778660430.5285661,1928,0,5
1778660430.529902,1867,0,5
1778660430.5312798,2050,0,5
1778660430.5338361,1825,0,5
1778660430.536397,2073,0,5
1778660430.537704,2216,0,5
1778660430.5437381,2105,0,5
1778660430.545058,1933,0,5
1778660430.546377,2037,0,5
1778660430.546411,2251,0,5
1778660430.548671,2147,0,5
1778660430.5508401,2020,0,5
1778660430.552415,1944,0,5
1778660430.555509,2190,0,5
1778660430.5556412,2414,0,5
1778660430.557821,2081,0,5
1778660430.5603762,1931,0,5
1778660430.5617,2021,0,5
1778660430.566122,2197,0,5
1778660430.567457,1935,0,5
1778660430.5675452,1906,0,5
1778660430.570946,2173,0,5
1778660430.5734909,2320,0,5
1778660430.575101,2277,0,5
1778660430.580225,2074,0,5
1778660430.580298,1938,0,5
1778660430.580329,2104,0,5
1778660430.581623,2090,0,5
1778660430.584176,1992,0,5
1778660430.585597,1997,0,5
1778660430.588192,2160,0,5
1778660430.589488,2232,0,5
1778660430.596638,2070,0,5
1778660430.599427,2031,0,5
1778660430.5996742,2028,0,5
1778660430.601595,2105,0,5
1778660430.6017869,1996,0,5
1778660430.6028779,1963,0,5
1778660430.6046562,2102,0,5
1778660430.610294,2244,0,5
1778660430.610475,2155,0,5
1778660430.610605,2087,0,5
1778660430.613003,2061,0,5
1778660430.61454,2134,0,5
1778660430.615922,2093,0,5
1778660430.6172988,2019,0,5
1778660430.622551,2136,0,5
1778660430.6235561,2321,0,5
1778660430.624425,2259,0,5
1778660430.627543,2108,0,5
1778660430.628108,2061,0,5
1778660430.6301062,2157,0,5
1778660430.632061,2149,0,5
1778660430.635083,2030,0,5
1778660430.637429,2087,0,5
1778660430.637697,2281,0,5
1778660430.6403892,2314,0,5
1778660430.64176,2180,0,5
1778660430.643307,2115,0,5
1778660430.646157,2137,0,5
1778660430.647545,2192,0,5
1778660430.653077,2054,0,5
1778660430.655772,2057,0,5
1778660430.657263,2208,0,5
1778660430.6580238,2346,0,5
1778660430.65945,2207,0,5
1778660430.6600032,2063,0,5
1778660430.662257,2063,0,5
1778660430.665359,2178,0,5
1778660430.6657212,2116,0,5
1778660430.667992,2026,0,5
1778660430.669388,2125,0,5
1778660430.67204,2330,0,5
1778660430.679071,2286,0,5
1778660430.68056,2161,0,5
1778660430.683299,2085,0,5
1778660430.683779,2093,0,5
1778660430.683928,2062,0,5
1778660430.6851509,1959,0,5
1778660430.685621,2002,0,5
1778660430.6902678,2196,0,5
1778660430.690617,2222,0,5
1778660430.692965,2077,0,5
1778660430.694515,2006,0,5
1778660430.695853,2046,0,5
1778660430.6972458,2095,0,5
1778660430.699842,1958,0,5
1778660430.7024572,1975,0,5
1778660430.704014,2124,0,5
1778660430.709576,2286,0,5
1778660430.710623,2135,0,5
1778660430.712194,2026,0,5
1778660430.712534,1986,0,5
1778660430.71561,2054,0,5
1778660430.716686,2017,0,5
1778660430.719347,1972,0,5
1778660430.7224069,2063,0,5
1778660430.72262,2203,0,5
1778660430.725138,2124,0,5
1778660430.725255,2101,0,5
1778660430.727788,1963,0,5
1778660430.729388,2097,0,5
1778660430.7338822,2007,0,5
1778660430.7358289,1867,0,5
1778660430.7374122,1973,0,5
1778660430.7377229,2135,0,5
1778660430.740714,2232,0,5
1778660430.743881,2081,0,5
1778660430.746753,2036,0,5
1778660430.747104,2017,0,5
1778660430.747443,2059,0,5
1778660430.749662,1910,0,5
1778660430.752287,1857,0,5
1778660430.753641,2076,0,5
1778660430.756236,2263,0,5
1778660430.7580612,2154,0,5
1778660430.759417,2025,0,5
1778660430.765229,1932,0,5
1778660430.767476,2041,0,5
1778660430.7680042,1907,0,5
1778660430.768217,1882,0,5
1778660430.770357,2036,0,5
1778660430.774379,2276,0,5
1778660430.774695,2156,0,5
1778660430.778194,1996,0,5
1778660430.778506,1975,0,5
1778660430.781018,2048,0,5
1778660430.781172,2010,0,5
1778660430.7838259,1853,0,5
1778660430.785234,1916,0,5
1778660430.79006,2096,0,5
1778660430.791921,2186,0,5
1778660430.793503,2024,0,5
1778660430.7956522,2020,0,5
1778660430.79673,2054,0,5
1778660430.79981,1997,0,5
1778660430.8000371,1879,0,5
1778660430.803276,1904,0,5
1778660430.8036191,2090,0,5
1778660430.806004,2283,0,5
1778660430.8074088,2088,0,5
1778660430.810111,1910,0,5
1778660430.811557,1840,0,5
1778660430.814087,2027,0,5
1778660430.815486,2021,0,5
1778660430.824468,1902,0,5
1778660430.8247218,2035,0,5
1778660430.8274062,2224,0,5
1778660430.828383,2173,0,5
1778660430.829712,2008,0,5
1778660430.834172,1946,0,5
1778660430.834492,2031,0,5
1778660430.834696,1938,0,5
1778660430.8349922,1815,0,5
1778660430.836977,1921,0,5
1778660430.83759,2120,0,5
1778660430.8402932,2132,0,5
1778660430.841683,2013,0,5
1778660430.847614,1970,0,5
1778660430.850162,1983,0,5
1778660430.850564,2086,0,5
1778660430.852706,1916,0,5
1778660430.85328,1891,0,5
1778660430.853805,2052,0,5
1778660430.856815,2249,0,5
1778660430.859949,2102,0,5
1778660430.860269,2013,0,5
1778660430.862577,1926,0,5
1778660430.8639832,1982,0,5
1778660430.86533,1929,0,5
1778660430.8685088,1870,0,5
1778660430.869824,2061,0,5
1778660430.8713,2178,0,5
1778660430.877406,2113,0,5
1778660430.878468,2033,0,5
1778660430.879474,2017,0,5
1778660430.8809621,2049,0,5
1778660430.8832908,2008,0,5
1778660430.883472,1899,0,5
1778660430.887268,2005,0,5
1778660430.890296,2176,0,5
1778660430.8905978,2317,0,5
1778660430.89291,2027,0,5
1778660430.89429,2000,0,5
1778660430.8956878,2031,0,5
1778660430.8971279,2161,0,5
1778660430.902144,1945,0,5
1778660430.9034061,1802,0,5
1778660430.904715,1955,0,5
1778660430.9073138,2070,0,5
1778660430.907847,2175,0,5
1778660430.9109812,2119,0,5
1778660430.913924,2024,0,5
1778660430.9140182,2089,0,5
1778660430.916341,1920,0,5
1778660430.917705,1980,0,5
1778660430.920335,2133,0,5
1778660430.9216828,2087,0,5
1778660430.924321,2313,0,5
1778660430.925737,2178,0,5
1778660430.93217,1795,0,5
1778660430.932957,1889,0,5
1778660430.933625,2017,0,5
1778660430.933697,1845,0,5
1778660430.935377,1872,0,5
1778660430.939024,2009,0,5
1778660430.9395,2141,0,5
1778660430.941246,2010,0,5
1778660430.943954,1976,0,5
1778660430.946215,1983,0,5
1778660430.947527,1985,0,5
1778660430.950083,2000,0,5
1778660430.953989,2010,0,5
1778660430.954435,2122,0,5
1778660430.956982,2183,0,5
1778660430.959012,2100,0,5
1778660430.9594922,2003,0,5
1778660430.961164,1971,0,5
1778660430.965021,2035,0,5
1778660430.965208,1971,0,5
1778660430.968239,1946,0,5
1778660430.969423,2021,0,5
1778660430.9719849,2132,0,5
1778660430.9732878,2249,0,5
1778660430.9758441,2027,0,5
1778660430.9771352,1977,0,5
1778660430.981591,1980,0,5
1778660430.982076,2029,0,5
1778660430.9843688,1854,0,5
1778660430.986463,1892,0,5
1778660430.987861,2127,0,5
1778660430.989941,2188,0,5
1778660430.992696,2097,0,5
1778660430.9944232,1994,0,5
1778660430.995724,1949,0,5
1778660430.9984,1979,0,5
1778660431.003061,1845,0,5
1778660431.0035279,1897,0,5
1778660431.003983,2203,0,5
1778660431.005866,2354,0,5
1778660431.0079901,2195,0,5
1778660431.00982,2157,0,5
1778660431.011704,2039,0,5
1778660431.0142772,1942,0,5
1778660431.016601,1948,0,5
1778660431.0179148,1822,0,5
1778660431.0192158,1983,0,5
1778660431.021771,2088,0,5
1778660431.023062,2103,0,5
1778660431.025619,1995,0,5
1778660431.03147,1799,0,5
1778660431.03156,1982,0,5
1778660431.031636,2186,0,5
1778660431.034063,1988,0,5
1778660431.0360498,1939,0,5
1778660431.037985,2088,0,5
1778660431.039391,2214,0,5
1778660431.04174,2028,0,5
1778660431.0439732,1943,0,5
1778660431.045268,1961,0,5
1778660431.047817,2026,0,5
1778660431.052077,1937,0,5
1778660431.0528462,1867,0,5
1778660431.054724,2008,0,5
1778660431.056546,2240,0,5
1778660431.05851,2146,0,5
1778660431.059885,1987,0,5
1778660431.0621388,1801,0,5
1778660431.0641549,2037,0,5
1778660431.06546,2039,0,5
1778660431.0696099,1816,0,5
1778660431.06964,1986,0,5
1778660431.07219,2282,0,5
1778660431.07348,2178,0,5
1778660431.0762172,2020,0,5
1778660431.080884,1917,0,5
1778660431.0816388,1990,0,5
1778660431.082845,2015,0,5
1778660431.0847292,1870,0,5
1778660431.0863621,1938,0,5
1778660431.088135,2068,0,5
1778660431.090343,2214,0,5
1778660431.092316,2064,0,5
1778660431.093612,1950,0,5
1778660431.096125,2008,0,5
1778660431.0974238,2084,0,5
1778660431.0999758,1966,0,5
1778660431.101295,1882,0,5
1778660431.105433,1992,0,5
1778660431.105928,2209,0,5
1778660431.108038,2116,0,5
1778660431.1095161,2025,0,5
1778660431.111431,1975,0,5
1778660431.113101,2069,0,5
1778660431.1153028,1991,0,5
1778660431.1182342,1904,0,5
1778660431.119532,1953,0,5
1778660431.122088,2172,0,5
1778660431.126657,2239,0,5
1778660431.1274571,2044,0,5
1778660431.127823,1949,0,5
1778660431.130775,1985,0,5
1778660431.132819,2031,0,5
1778660431.136307,1934,0,5
1778660431.136477,1947,0,5
1778660431.138359,2094,0,5
1778660431.1396532,2266,0,5
1778660431.1410718,2090,0,5
1778660431.143617,2006,0,5
1778660431.1461918,2039,0,5
1778660431.147485,2037,0,5
1778660431.151496,1948,0,5
1778660431.151988,1854,0,5
1778660431.154007,2179,0,5
1778660431.1561081,2282,0,5
1778660431.158922,2084,0,5
1778660431.159102,2098,0,5
1778660431.162977,2016,0,5
1778660431.163197,2084,0,5
1778660431.165751,2044,0,5
1778660431.167047,1861,0,5
1778660431.169606,1896,0,5
1778660431.175528,2112,0,5
1778660431.175591,2259,0,5
1778660431.176091,2138,0,5
1778660431.178252,1969,0,5
1778660431.179625,1838,0,5
1778660431.181772,2250,0,5
1778660431.184986,1953,0,5
1778660431.185164,2080,0,5
1778660431.1879401,2177,0,5
1778660431.189228,2264,0,5
1778660431.195478,2125,0,5
1778660431.195505,2015,0,5
1778660431.195529,1960,0,5
1778660431.2002099,2049,0,5
1778660431.2012439,1980,0,5
1778660431.20242,1931,0,5
1778660431.204163,2084,0,5
1778660431.207226,2280,0,5
1778660431.207336,2175,0,5
1778660431.2095628,2031,0,5
1778660431.211097,2026,0,5
1778660431.213651,2077,0,5
1778660431.2150028,1947,0,5
1778660431.2175539,1937,0,5
1778660431.220055,1999,0,5
1778660431.2247438,2149,0,5
1778660431.226597,2178,0,5
1778660431.22675,2094,0,5
1778660431.2285519,2088,0,5
1778660431.230078,2150,0,5
1778660431.231661,2120,0,5
1778660431.233788,1859,0,5
1778660431.235743,2016,0,5
1778660431.237041,2174,0,5
1778660431.239593,2239,0,5
1778660431.242149,2046,0,5
1778660431.243437,1970,0,5
1778660431.249208,1998,0,5
1778660431.249634,2070,0,5
1778660431.250379,1863,0,5
1778660431.251717,1914,0,5
1778660431.253511,2017,0,5
1778660431.2565491,2268,0,5
1778660431.258558,2141,0,5
1778660431.260161,2036,0,5
1778660431.2614532,1967,0,5
1778660431.263999,2052,0,5
1778660431.265305,2040,0,5
1778660431.267858,1946,0,5
1778660431.269145,2021,0,5
1778660431.274028,2165,0,5
1778660431.274762,2238,0,5
1778660431.276206,2046,0,5
1778660431.27761,1976,0,5
1778660431.279438,1986,0,5
1778660431.283145,2022,0,5
1778660431.2832909,1922,0,5
1778660431.28529,1970,0,5
1778660431.287882,2109,0,5
1778660431.289185,2189,0,5
1778660431.291732,2107,0,5
1778660431.293018,2008,0,5
1778660431.2985332,1924,0,5
1778660431.2990038,2073,0,5
1778660431.299816,1931,0,5
1778660431.302746,1932,0,5
1778660431.3045561,2031,0,5
1778660431.307777,2229,0,5
1778660431.307917,2153,0,5
1778660431.3094301,2010,0,5
1778660431.311984,1969,0,5
1778660431.313271,2016,0,5
1778660431.3158169,1970,0,5
1778660431.317101,1910,0,5
1778660431.322561,2008,0,5
1778660431.3226812,2184,0,5
1778660431.324886,2152,0,5
1778660431.32512,2020,0,5
1778660431.327929,2015,0,5
1778660431.329859,2004,0,5
1778660431.331836,2077,0,5
1778660431.333686,1824,0,5
1778660431.334978,1836,0,5
1778660431.337539,2070,0,5
1778660431.340086,2364,0,5
1778660431.3413692,2143,0,5
1778660431.34597,1930,0,5
1778660431.3463738,1896,0,5
1778660431.348342,2012,0,5
1778660431.349733,1920,0,5
1778660431.351406,1888,0,5
1778660431.354649,1981,0,5
1778660431.3565152,2105,0,5
1778660431.357806,2057,0,5
1778660431.359092,1979,0,5
1778660431.361664,1944,0,5
1778660431.364216,2029,0,5
1778660431.36927,2021,0,5
1778660431.3699489,1784,0,5
1778660431.37111,1877,0,5
1778660431.372561,2107,0,5
1778660431.3739378,2259,0,5
1778660431.3758311,2002,0,5
1778660431.3776882,1920,0,5
1778660431.379564,1953,0,5
1778660431.381034,2051,0,5
1778660431.383352,1870,0,5
1778660431.3858938,1853,0,5
1778660431.387177,2067,0,5
1778660431.3918579,2229,0,5
1778660431.391902,2070,0,5
1778660431.394059,1970,0,5
1778660431.395385,1927,0,5
1778660431.397098,2009,0,5
1778660431.4004018,1959,0,5
1778660431.401941,1877,0,5
1778660431.4032378,1996,0,5
1778660431.405783,2205,0,5
1778660431.4070778,2130,0,5
1778660431.4094248,2023,0,5
1778660431.415345,1929,0,5
1778660431.415543,1941,0,5
1778660431.416557,1955,0,5
1778660431.4192052,1853,0,5
1778660431.419602,1944,0,5
1778660431.422105,2090,0,5
1778660431.4240031,2158,0,5
1778660431.425471,2119,0,5
1778660431.427063,2023,0,5
1778660431.429587,1957,0,5
1778660431.430927,1961,0,5
1778660431.43347,1928,0,5
1778660431.43837,1904,0,5
1778660431.439094,2054,0,5
1778660431.439189,2224,0,5
1778660431.4420218,2025,0,5
1778660431.444919,1920,0,5
1778660431.4450262,1936,0,5
1778660431.448834,2036,0,5
1778660431.4489212,2002,0,5
1778660431.452759,1960,0,5
1778660431.4528892,1997,0,5
1778660431.455439,2234,0,5
1778660431.458026,2163,0,5
1778660431.4594371,2066,0,5
1778660431.462253,1952,0,5
1778660431.4695292,1976,0,5
1778660431.469614,2016,0,5
1778660431.471582,1937,0,5
1778660431.4718468,1950,0,5
1778660431.4720168,2108,0,5
1778660431.473752,2271,0,5
1778660431.48259,2140,0,5
1778660431.484951,1975,0,5
1778660431.485024,1997,0,5
1778660431.487082,2128,0,5
1778660431.487135,1992,0,5
1778660431.487185,1998,0,5
1778660431.495929,2100,0,5
1778660431.498302,2239,0,5
1778660431.499764,2147,0,5
1778660431.502007,2014,0,5
1778660431.504372,1969,0,5
1778660431.504767,2053,0,5
1778660431.506778,2002,0,5
1778660431.506958,1941,0,5
1778660431.507061,2047,0,5
1778660431.507261,2250,0,5
1778660431.507328,2179,0,5
1778660431.5097861,2068,0,5
1778660431.511334,1964,0,5
1778660431.515989,2021,0,5
1778660431.5171578,2016,0,5
1778660431.520318,1924,0,5
1778660431.521384,1931,0,5
1778660431.524398,2133,0,5
1778660431.524557,2182,0,5
1778660431.5271628,2065,0,5
1778660431.527423,2001,0,5
1778660431.5292501,1998,0,5
1778660431.532322,1984,0,5
1778660431.5337431,1930,0,5
1778660431.535155,1945,0,5
1778660431.537685,2104,0,5
1778660431.545181,2279,0,5
1778660431.54531,2076,0,5
1778660431.545419,2022,0,5
1778660431.5469482,2009,0,5
1778660431.54797,2063,0,5
1778660431.552672,1975,0,5
1778660431.5549152,1828,0,5
1778660431.5550349,1918,0,5
1778660431.5551841,2116,0,5
1778660431.557873,2094,0,5
1778660431.559228,1931,0,5
1778660431.561474,1821,0,5
1778660431.563873,1914,0,5
1778660431.568356,2017,0,5
1778660431.57075,1997,0,5
1778660431.5709498,1982,0,5
1778660431.572992,2077,0,5
1778660431.5743418,2229,0,5
1778660431.577905,2117,0,5
1778660431.578028,2023,0,5
1778660431.579882,1958,0,5
1778660431.581302,1986,0,5
1778660431.58372,1839,0,5
1778660431.591018,1829,0,5
1778660431.592243,2069,0,5
1778660431.592603,2194,0,5
1778660431.593001,2045,0,5
1778660431.5933702,1892,0,5
1778660431.601263,1866,0,5
1778660431.601393,1903,0,5
1778660431.60148,1820,0,5
1778660431.60164,1814,0,5
1778660431.6034439,1888,0,5
1778660431.606009,1979,0,5
1778660431.607302,2123,0,5
1778660431.609847,1933,0,5
1778660431.611161,1927,0,5
1778660431.617022,1802,0,5
1778660431.617404,1882,0,5
1778660431.617868,1706,0,5
1778660431.619647,1793,0,5
1778660431.630399,1979,0,5
1778660431.630971,2106,0,5
1778660431.631031,1785,0,5
1778660431.63109,1772,0,5
1778660431.6311512,1937,0,5
1778660431.631189,2065,0,5
1778660431.633912,1839,0,5
1778660431.6357849,1787,0,5
1778660431.637304,2045,0,5
1778660431.639824,2108,0,5
1778660431.6494951,1897,0,5
1778660431.6515589,1872,0,5
1778660431.657771,1765,0,5
1778660431.6578188,1831,0,5
1778660431.657891,1701,0,5
1778660431.6580238,1929,0,5
1778660431.658132,1562,0,5
1778660431.658156,1843,0,5
1778660431.658179,2167,0,5
1778660431.6594281,2145,0,5
1778660431.6684248,1688,0,5
1778660431.681447,1942,0,5
1778660431.6815512,2000,0,5
1778660431.728899,1608,0,5
1778660431.729556,2092,0,5
1778660431.734408,2381,0,5
1778660431.734547,2257,0,5
1778660431.734586,2007,0,5
1778660431.7346141,1606,0,5
1778660431.735046,2305,0,5
1778660431.7353852,2193,0,5
1778660431.736545,1976,0,5
1778660431.736574,1930,0,5
1778660431.7366002,2054,0,5
1778660431.7575748,2147,0,5
1778660431.7623591,2050,0,5
1778660431.762592,1960,0,5
1778660431.762621,2081,0,5
1778660431.762648,1952,0,5
1778660431.762673,2032,0,5
1778660431.762697,1783,0,5
1778660431.76272,1955,0,5
1778660431.7627468,1857,0,5
1778660431.76277,2139,0,5
1778660431.762793,2251,0,5
1778660431.762816,1812,0,5
1778660431.7628381,1672,0,5
1778660431.762861,1835,0,5
1778660431.7628841,1615,0,5
1778660431.762906,1866,0,5
1778660431.762929,1960,0,5
1778660431.762951,2191,0,5
1778660431.762974,1975,0,5
1778660431.762998,2060,0,5
1778660431.763021,1896,0,5
1778660431.7630432,2240,0,5
1778660431.763065,1918,0,5
1778660431.763088,1706,0,5
1778660431.76311,1989,0,5
1778660431.7631319,2253,0,5
1778660431.763155,2144,0,5
1778660431.763177,1986,0,5
1778660431.763199,2011,0,5
1778660431.763223,2020,0,5
1778660431.763247,1808,0,5
1778660431.763498,1633,0,5
1778660431.765453,1843,0,5
1778660431.765482,1872,0,5
1778660431.773988,1842,0,5
1778660431.777359,2007,0,5
1778660431.7777731,1835,0,5
1778660431.77794,1682,0,5
1778660431.7801201,1918,0,5
1778660431.782272,1782,0,5
1778660431.7824209,2033,0,5
1778660431.7827399,2012,0,5
1778660431.782772,2064,0,5
1778660431.7828422,2069,0,5
1778660431.782869,1728,0,5
1778660431.782893,1782,0,5
1778660431.78292,1980,0,5
1778660431.782944,1745,0,5
1778660431.786169,2135,0,5
1778660431.788121,2202,0,5
1778660431.7895098,2387,0,5
1778660431.7911072,2232,0,5
1778660431.795305,2213,0,5
1778660431.795338,2312,0,5
1778660431.8047109,2256,0,5
1778660431.808485,2181,0,5
1778660431.810978,2115,0,5
1778660431.813144,2331,0,5
1778660431.813216,2077,0,5
1778660431.8133,2150,0,5
1778660431.8133671,2166,0,5
1778660431.813612,2184,0,5
1778660431.813639,2461,0,5
1778660431.815265,1756,0,5
1778660431.818017,1715,0,5
1778660431.825554,2304,0,5
1778660431.83283,2097,0,5
1778660431.833078,2524,0,5
1778660431.833308,2273,0,5
1778660431.8334348,1971,0,5
1778660431.8348641,1578,0,5
1778660431.8354409,2219,0,5
1778660431.835474,2032,0,5
1778660431.835548,1826,0,5
1778660431.836853,2045,0,5
1778660431.83939,2171,0,5
1778660431.84082,2024,0,5
1778660431.843107,2091,0,5
1778660431.845797,1975,0,5
1778660431.850413,2123,0,5
1778660431.8509288,2229,0,5
1778660431.851691,2167,0,5
1778660431.855996,2251,0,5
1778660431.857044,2457,0,5
1778660431.857126,2765,0,5
1778660431.863203,2398,0,5
1778660431.863324,2283,0,5
1778660431.8633559,2555,0,5
1778660431.866017,2519,0,5
1778660431.867498,2347,0,5
1778660431.871629,2200,0,5
1778660431.8728309,2565,0,5
1778660431.873239,2701,0,5
1778660431.8764448,2626,0,5
1778660431.879637,2484,0,5
1778660431.879812,2353,0,5
1778660431.883839,2396,0,5
1778660431.8842611,2013,0,5
1778660431.885686,1979,0,5
1778660431.8871439,2403,0,5
1778660431.889927,2155,0,5
1778660431.8912919,2023,0,5
1778660431.8939872,1567,0,5
1778660431.899322,2066,0,5
1778660431.89942,2033,0,5
1778660431.8998568,2208,0,5
1778660431.902497,2173,0,5
1778660431.904851,2064,0,5
1778660431.908864,2387,0,5
1778660431.91071,2331,0,5
1778660431.910909,1978,0,5
1778660431.910963,2018,0,5
1778660431.913527,1773,0,5
1778660431.914948,2021,0,5
1778660431.9218502,2053,0,5
1778660431.923176,2173,0,5
1778660431.923371,1951,0,5
1778660431.925693,1921,0,5
1778660431.926186,1789,0,5
1778660431.931013,1996,0,5
1778660431.9310458,2172,0,5
1778660431.931072,2195,0,5
1778660431.9410071,1963,0,5
1778660431.9621592,1767,0,5
1778660431.9624362,1749,0,5
1778660431.9625149,1605,0,5
1778660431.962571,1821,0,5
1778660431.962625,1642,0,5
1778660431.962723,1247,0,5
1778660431.9627872,1589,0,5
1778660431.9628391,2488,0,5
1778660431.962888,2481,0,5
1778660431.9629362,2397,0,5
1778660431.962989,2605,0,5
1778660431.963037,2269,0,5
1778660431.9630852,2152,0,5
1778660431.963132,1555,0,5
1778660431.9631848,1315,0,5
1778660431.9662862,2280,0,5
1778660431.9808059,1750,0,5
1778660431.981329,1680,0,5
1778660431.983551,1881,0,5
1778660431.983685,3103,0,5
1778660431.983781,2755,0,5
1778660431.983888,2487,0,5
1778660431.983944,2541,0,5
1778660431.983968,2528,0,5
1778660431.9840121,2163,0,5
1778660431.985439,1678,0,5
1778660431.986815,1645,0,5
1778660431.989252,1647,0,5
1778660431.99162,2104,0,5
1778660431.9929228,1872,0,5
1778660431.999854,1320,0,5
1778660432.0003278,1492,0,5
1778660432.002379,798,0,5
1778660432.003875,1560,0,5
1778660432.006294,1743,0,5
1778660432.009919,1860,0,5
1778660432.010165,1999,0,5
1778660432.010429,1937,0,5
1778660432.012467,1610,0,5
1778660432.014048,1536,0,5
1778660432.015483,1798,0,5
1778660432.0171561,1749,0,5
1778660432.022163,1220,0,5
1778660432.0229151,407,0,5
1778660432.024458,1813,0,5
1778660432.026429,2354,0,5
1778660432.029788,1809,0,5
1778660432.032593,1109,0,5
1778660432.034546,1079,0,5
1778660432.035081,1486,0,5
1778660432.035114,1311,0,5
1778660432.037659,609,0,5
1778660432.038965,1235,0,5
1778660432.041365,1541,0,5
1778660432.0426571,1303,0,5
1778660432.048067,968,0,5
1778660432.048136,1355,0,5
1778660432.0504441,1326,0,5
1778660432.052306,1108,0,5
1778660432.054115,1234,0,5
1778660432.0555038,1016,0,5
1778660432.057715,1153,0,5
1778660432.0595992,1115,0,5
1778660432.0607202,1102,0,5
1778660432.063266,977,0,5
1778660432.0658329,1247,0,5
1778660432.0671208,910,0,5
1778660432.072582,1122,0,5
1778660432.0726871,1701,0,5
1778660432.073356,1759,0,5
1778660432.07521,1423,0,5
1778660432.076988,1391,0,5
1778660432.078774,1333,0,5
1778660432.082229,1646,0,5
1778660432.084216,1613,0,5
1778660432.085523,1628,0,5
1778660432.086813,1673,0,5
1778660432.08937,1943,0,5
1778660432.090697,1816,0,5
1778660432.096771,1617,0,5
1778660432.096883,1706,0,5
1778660432.0973709,1898,0,5
1778660432.099406,1975,0,5
1778660432.100872,1788,0,5
1778660432.104156,1545,0,5
1778660432.106533,2076,0,5
1778660432.108611,2168,0,5
1778660432.1088471,2066,0,5
1778660432.1113238,2277,0,5
1778660432.112631,2200,0,5
1778660432.117537,2208,0,5
1778660432.1176152,2067,0,5
1778660432.1198888,2290,0,5
1778660432.121821,2367,0,5
1778660432.124876,2512,0,5
1778660432.12719,2223,0,5
1778660432.127379,1989,0,5
1778660432.129236,2212,0,5
1778660432.1318028,2281,0,5
1778660432.1330938,2227,0,5
1778660432.135647,2175,0,5
1778660432.1369338,2118,0,5
1778660432.142735,2202,0,5
1778660432.143177,2494,0,5
1778660432.144246,2558,0,5
1778660432.145659,2378,0,5
1778660432.147048,2373,0,5
1778660432.14878,2489,0,5
1778660432.150954,2358,0,5
1778660432.153732,2472,0,5
1778660432.155018,2582,0,5
1778660432.157352,2698,0,5
1778660432.158635,2524,0,5
1778660432.16127,2288,0,5
1778660432.1644979,2269,0,5
1778660432.1659079,2301,0,5
1778660432.168912,2249,0,5
1778660432.16901,2101,0,5
1778660432.1737301,2485,0,5
1778660432.1739619,2835,0,5
1778660432.1757178,2514,0,5
1778660432.177022,2351,0,5
1778660432.179583,2134,0,5
1778660432.180879,2684,0,5
1778660432.1832588,2518,0,5
1778660432.188996,2382,0,5
1778660432.189056,2518,0,5
1778660432.1897779,2690,0,5
1778660432.192798,2490,0,5
1778660432.192872,2380,0,5
1778660432.1954079,2315,0,5
1778660432.1975958,2409,0,5
1778660432.1991491,2334,0,5
1778660432.201704,2298,0,5
1778660432.203004,2355,0,5
1778660432.205552,2518,0,5
1778660432.2068381,2489,0,5
1778660432.2124412,2320,0,5
1778660432.2127922,2345,0,5
1778660432.212864,2441,0,5
1778660432.214775,2565,0,5
1778660432.217752,2357,0,5
1778660432.2214122,2394,0,5
1778660432.221636,2656,0,5
1778660432.223105,2677,0,5
1778660432.2247648,2377,0,5
1778660432.227318,2354,0,5
1778660432.228611,2278,0,5
1778660432.231173,2409,0,5
1778660432.2363908,2341,0,5
1778660432.236477,2211,0,5
1778660432.238288,2333,0,5
1778660432.23996,2606,0,5
1778660432.24142,2461,0,5
1778660432.242969,2308,0,5
1778660432.245077,2253,0,5
1778660432.247658,2343,0,5
1778660432.248985,2123,0,5
1778660432.25153,2096,0,5
1778660432.252814,2329,0,5
1778660432.255299,2381,0,5
1778660432.258765,2763,0,5
1778660432.258849,2480,0,5
1778660432.260978,2100,0,5
1778660432.264423,2303,0,5
1778660432.267633,2461,0,5
1778660432.26789,2255,0,5
1778660432.269601,2021,0,5
1778660432.2708921,2170,0,5
1778660432.273448,2558,0,5
1778660432.274741,2361,0,5
1778660432.2772858,2063,0,5
1778660432.278571,2050,0,5
1778660432.2841222,2162,0,5
1778660432.2848058,2206,0,5
1778660432.284885,2235,0,5
1778660432.28801,2049,0,5
1778660432.28973,2297,0,5
1778660432.2929862,2276,0,5
1778660432.293073,2228,0,5
1778660432.294899,2368,0,5
1778660432.297454,2330,0,5
1778660432.298739,1918,0,5
1778660432.301281,1937,0,5
1778660432.3025632,2207,0,5
1778660432.3074062,1982,0,5
1778660432.3081758,2155,0,5
1778660432.310807,2259,0,5
1778660432.311519,2190,0,5
1778660432.313838,2086,0,5
1778660432.3159811,2196,0,5
1778660432.3177989,1993,0,5
1778660432.319107,2029,0,5
1778660432.321651,2273,0,5
1778660432.322936,2200,0,5
1778660432.325475,2087,0,5
1778660432.330251,2085,0,5
1778660432.330946,2152,0,5
1778660432.331323,2250,0,5
1778660432.334016,2131,0,5
1778660432.3354108,2096,0,5
1778660432.3392398,2175,0,5
1778660432.3393862,2313,0,5
1778660432.34129,2132,0,5
1778660432.342582,2171,0,5
1778660432.345123,1847,0,5
1778660432.347671,1987,0,5
1778660432.3489542,2100,0,5
1778660432.353565,1672,0,5
1778660432.353893,1920,0,5
1778660432.355797,2213,0,5
1778660432.357453,2473,0,5
1778660432.3589592,2021,0,5
1778660432.362518,1819,0,5
1778660432.362592,1805,0,5
1778660432.365335,2246,0,5
1778660432.366621,2206,0,5
1778660432.369174,2028,0,5
1778660432.370553,2121,0,5
1778660432.373098,2225,0,5
1778660432.376627,2250,0,5
1778660432.377646,2147,0,5
1778660432.3793762,1948,0,5
1778660432.380977,2197,0,5
1778660432.383778,2270,0,5
1778660432.3860009,1967,0,5
1778660432.3879528,2228,0,5
1778660432.389243,2036,0,5
1778660432.390591,2076,0,5
1778660432.393136,2121,0,5
1778660432.3957078,2332,0,5
1778660432.4001422,2147,0,5
1778660432.400529,1836,0,5
1778660432.401289,1695,0,5
1778660432.4026291,1878,0,5
1778660432.405642,2009,0,5
1778660432.4088268,2514,0,5
1778660432.4089222,2245,0,5
1778660432.411384,2281,0,5
1778660432.41267,2119,0,5
1778660432.415217,2181,0,5
1778660432.416558,1832,0,5
1778660432.4220228,1726,0,5
1778660432.42297,2106,0,5
1778660432.424244,2528,0,5
1778660432.425642,2100,0,5
1778660432.426719,1675,0,5
1778660432.428572,1884,0,5
1778660432.43068,1867,0,5
1778660432.433407,2033,0,5
1778660432.4346921,1927,0,5
1778660432.437231,2006,0,5
1778660432.438549,2049,0,5
1778660432.444253,2378,0,5
1778660432.444308,2033,0,5
1778660432.4462368,1882,0,5
1778660432.448382,2145,0,5
1778660432.4507542,2043,0,5
1778660432.450784,1998,0,5
1778660432.4531,2163,0,5
1778660432.455014,1697,0,5
1778660432.457568,1945,0,5
1778660432.4588559,2083,0,5
1778660432.461407,1812,0,5
1778660432.462694,2076,0,5
1778660432.466611,1791,0,5
1778660432.467277,1709,0,5
1778660432.469117,1903,0,5
1778660432.470943,2043,0,5
1778660432.4756858,2245,0,5
1778660432.475778,2299,0,5
1778660432.4775958,1915,0,5
1778660432.478893,1921,0,5
1778660432.4814458,1972,0,5
1778660432.482733,1933,0,5
1778660432.485288,1880,0,5
1778660432.4890938,2053,0,5
1778660432.489467,2224,0,5
1778660432.4912388,2138,0,5
1778660432.493077,2043,0,5
1778660432.495647,2016,0,5
1778660432.497877,2160,0,5
1778660432.4995651,2162,0,5
1778660432.500866,1673,0,5
1778660432.503289,2018,0,5
1778660432.504577,2699,0,5
1778660432.5071292,2196,0,5
1778660432.511113,1806,0,5
1778660432.5117362,2057,0,5
1778660432.51365,2057,0,5
1778660432.515149,2036,0,5
1778660432.516663,1983,0,5
1778660432.520295,1855,0,5
1778660432.522031,2017,0,5
1778660432.52333,2312,0,5
1778660432.5246139,2246,0,5
1778660432.527152,2148,0,5
1778660432.528438,2087,0,5
1778660432.5341,2170,0,5
1778660432.5344708,2186,0,5
1778660432.535115,2013,0,5
1778660432.537704,2011,0,5
1778660432.5393422,2255,0,5
1778660432.5425699,2265,0,5
1778660432.542651,2137,0,5
1778660432.5453382,2023,0,5
1778660432.546622,2091,0,5
1778660432.549172,2162,0,5
1778660432.550465,1969,0,5
1778660432.553094,2032,0,5
1778660432.5579112,2362,0,5
1778660432.559177,2325,0,5
1778660432.5630772,2061,0,5
1778660432.563273,1996,0,5
1778660432.564165,2020,0,5
1778660432.565794,2186,0,5
1778660432.5683541,2054,0,5
1778660432.5701702,1990,0,5
1778660432.571475,2090,0,5
1778660432.572869,2316,0,5
1778660432.578347,2204,0,5
1778660432.579102,2097,0,5
1778660432.580645,2079,0,5
1778660432.580967,2157,0,5
1778660432.582978,2081,0,5
1778660432.588237,1981,0,5
1778660432.5885272,2081,0,5
1778660432.58863,2238,0,5
1778660432.59059,2239,0,5
1778660432.593301,2127,0,5
1778660432.5952609,2056,0,5
1778660432.5967739,2077,0,5
1778660432.599607,2126,0,5
1778660432.606543,2038,0,5
1778660432.6088161,2030,0,5
1778660432.6089149,2164,0,5
1778660432.614526,2333,0,5
1778660432.616738,2178,0,5
1778660432.617037,2087,0,5
1778660432.617122,2016,0,5
1778660432.6172569,2126,0,5
1778660432.617357,2006,0,5
1778660432.618738,1948,0,5
1778660432.628431,2043,0,5
1778660432.6302872,2191,0,5
1778660432.631169,2110,0,5
1778660432.6354308,2081,0,5
1778660432.6360378,2019,0,5
1778660432.636433,2085,0,5
1778660432.637933,2071,0,5
1778660432.638463,1952,0,5
1778660432.638556,1917,0,5
1778660432.638636,1993,0,5
1778660432.6412532,2008,0,5
1778660432.642577,1862,0,5
1778660432.6452281,1707,0,5
1778660432.646573,1757,0,5
1778660432.653654,1792,0,5
1778660432.658829,1740,0,5
1778660432.663856,1781,0,5
1778660432.671254,2000,0,5
1778660432.6714292,2173,0,5
1778660432.680498,2042,0,5
1778660432.680537,1922,0,5
1778660432.684155,1874,0,5
1778660432.6864982,1930,0,5
1778660432.690806,1817,0,5
1778660432.693216,1789,0,5
1778660432.693254,1950,0,5
1778660432.693279,2151,0,5
1778660432.693303,2045,0,5
1778660432.6933272,1965,0,5
1778660432.693352,1938,0,5
1778660432.693376,2034,0,5
1778660432.6934001,1940,0,5
1778660432.693423,1857,0,5
1778660432.693542,1964,0,5
1778660432.6938,2119,0,5
1778660432.693826,2219,0,5
1778660432.693922,2082,0,5
1778660432.6952808,1963,0,5
1778660432.69667,1997,0,5
1778660432.699286,1995,0,5
1778660432.7006469,1777,0,5
1778660432.7032151,1880,0,5
1778660432.712835,2076,0,5
1778660432.7141278,2265,0,5
1778660432.714947,2074,0,5
1778660432.719559,1974,0,5
1778660432.720204,1973,0,5
1778660432.722195,2039,0,5
1778660432.7224388,1947,0,5
1778660432.722498,1853,0,5
1778660432.722547,1960,0,5
1778660432.7225978,2138,0,5
1778660432.7252202,2109,0,5
1778660432.726579,1967,0,5
1778660432.7310631,1944,0,5
1778660432.735908,2041,0,5
1778660432.737561,1955,0,5
1778660432.737767,1785,0,5
1778660432.739695,1893,0,5
1778660432.742321,2137,0,5
1778660432.742589,2221,0,5
1778660432.742938,2075,0,5
1778660432.744929,1940,0,5
1778660432.7475898,1875,0,5
1778660432.7510169,1945,0,5
1778660432.7513971,1886,0,5
1778660432.752885,1904,0,5
1778660432.755507,2129,0,5
1778660432.7570822,2212,0,5
1778660432.765174,1963,0,5
1778660432.769141,1868,0,5
1778660432.773751,1945,0,5
1778660432.775606,2088,0,5
1778660432.77629,1933,0,5
1778660432.7763672,1828,0,5
1778660432.776434,1855,0,5
1778660432.776521,2241,0,5
1778660432.7766452,2104,0,5
1778660432.776702,2035,0,5
1778660432.779341,1942,0,5
1778660432.789518,1926,0,5
1778660432.790035,1868,0,5
1778660432.792843,1828,0,5
1778660432.7930582,1936,0,5
1778660432.795962,2111,0,5
1778660432.7963488,2239,0,5
1778660432.798433,1958,0,5
1778660432.7985191,1808,0,5
1778660432.798607,1906,0,5
1778660432.798665,2046,0,5
1778660432.8015108,2019,0,5
1778660432.802867,2090,0,5
1778660432.80576,2180,0,5
1778660432.8069482,2134,0,5
1778660432.814801,1942,0,5
1778660432.814977,1913,0,5
1778660432.81682,1901,0,5
1778660432.819155,1912,0,5
1778660432.823516,1911,0,5
1778660432.824105,1884,0,5
1778660432.8258402,1790,0,5
1778660432.8266501,2009,0,5
1778660432.826748,2104,0,5
1778660432.826785,2099,0,5
1778660432.829789,1961,0,5
1778660432.8313391,2050,0,5
1778660432.8368409,2072,0,5
1778660432.838766,1777,0,5
1778660432.838838,1872,0,5
1778660432.839165,2169,0,5
1778660432.84228,2169,0,5
1778660432.8449228,2021,0,5
1778660432.8476548,1957,0,5
1778660432.84796,1926,0,5
1778660432.850143,2029,0,5
1778660432.851508,1852,0,5
1778660432.852861,1871,0,5
1778660432.85552,1999,0,5
1778660432.856897,2198,0,5
1778660432.8583648,2076,0,5
1778660432.8656352,1900,0,5
1778660432.867937,2007,0,5
1778660432.8682518,1986,0,5
1778660432.869586,1923,0,5
1778660432.871199,1889,0,5
1778660432.871763,1985,0,5
1778660432.8743732,2229,0,5
1778660432.8769972,2087,0,5
1778660432.8775208,1989,0,5
1778660432.881921,1889,0,5
1778660432.882011,1826,0,5
1778660432.883456,1862,0,5
1778660432.891438,1972,0,5
1778660432.8947961,2088,0,5
1778660432.895715,2197,0,5
1778660432.8958771,2125,0,5
1778660432.902157,2061,0,5
1778660432.902314,1947,0,5
1778660432.902386,1992,0,5
1778660432.902438,2011,0,5
1778660432.902512,1861,0,5
1778660432.9025972,1721,0,5
1778660432.905272,2046,0,5
1778660432.906643,2394,0,5
1778660432.909285,1922,0,5
1778660432.910702,1953,0,5
1778660432.9212642,2026,0,5
1778660432.921792,2104,0,5
1778660432.922865,1888,0,5
1778660432.923042,1873,0,5
1778660432.924033,1984,0,5
1778660432.928523,2174,0,5
1778660432.9310699,2118,0,5
1778660432.931233,2042,0,5
1778660432.931332,1857,0,5
1778660432.931422,1943,0,5
1778660432.93311,1968,0,5
1778660432.934473,1914,0,5
1778660432.94384,1991,0,5
1778660432.9441931,2000,0,5
1778660432.9461892,2153,0,5
1778660432.946629,1971,0,5
1778660432.946731,2010,0,5
1778660432.9475589,2116,0,5
1778660432.952673,1995,0,5
1778660432.9529788,1847,0,5
1778660432.955002,1829,0,5
1778660432.9551082,1874,0,5
1778660432.95649,2221,0,5
1778660432.959141,2122,0,5
1778660432.9604611,2031,0,5
1778660432.963125,1914,0,5
1778660432.9645162,2175,0,5
1778660432.970697,2113,0,5
1778660432.97168,1735,0,5
1778660432.975469,2006,0,5
1778660432.976607,2218,0,5
1778660432.977609,2247,0,5
1778660432.9781709,1923,0,5
1778660432.980107,1818,0,5
1778660432.984798,1979,0,5
1778660432.9850628,1970,0,5
1778660432.985157,2053,0,5
1778660432.9865139,1930,0,5
1778660432.988519,2047,0,5
1778660432.994433,2125,0,5
1778660432.995499,2073,0,5
1778660433.000414,2003,0,5
1778660433.0038311,1952,0,5
1778660433.00631,1930,0,5
1778660433.006867,1807,0,5
1778660433.007196,1921,0,5
1778660433.007493,2077,0,5
1778660433.007701,2185,0,5
1778660433.009899,2105,0,5
1778660433.011282,2015,0,5
1778660433.01262,1946,0,5
1778660433.015288,1961,0,5
1778660433.017328,1887,0,5
1778660433.018711,1839,0,5
1778660433.026015,2089,0,5
1778660433.0275,2120,0,5
1778660433.029113,1952,0,5
1778660433.029709,2095,0,5
1778660433.0310988,2090,0,5
1778660433.0317152,1966,0,5
1778660433.034668,1931,0,5
1778660433.0395288,1941,0,5
1778660433.0399208,1983,0,5
1778660433.040035,2138,0,5
1778660433.041388,2219,0,5
1778660433.0425239,2012,0,5
1778660433.0516648,1926,0,5
1778660433.0537212,1955,0,5
1778660433.0549078,1886,0,5
1778660433.055973,1897,0,5
1778660433.056271,1951,0,5
1778660433.057654,2126,0,5
1778660433.05936,2280,0,5
1778660433.062034,2072,0,5
1778660433.0645099,2032,0,5
1778660433.064821,1957,0,5
1778660433.064906,1997,0,5
1778660433.0665128,1919,0,5
1778660433.069103,1841,0,5
1778660433.070465,1979,0,5
1778660433.073098,2190,0,5
1778660433.074513,2158,0,5
1778660433.0813298,1969,0,5
1778660433.081981,1890,0,5
1778660433.088539,2064,0,5
1778660433.0911732,2084,0,5
1778660433.093781,1814,0,5
1778660433.096392,1897,0,5
1778660433.0965052,2099,0,5
1778660433.096543,2202,0,5
1778660433.096576,2137,0,5
1778660433.0966039,1981,0,5
1778660433.0966349,1958,0,5
1778660433.099683,2039,0,5
1778660433.10703,1908,0,5
1778660433.108851,1876,0,5
1778660433.111986,2027,0,5
1778660433.112536,2249,0,5
1778660433.1154869,2087,0,5
1778660433.117941,1992,0,5
1778660433.120568,1898,0,5
1778660433.120665,2036,0,5
1778660433.1207721,2008,0,5
1778660433.120809,1913,0,5
1778660433.120899,2021,0,5
1778660433.1223412,2171,0,5
1778660433.124992,2174,0,5
1778660433.127296,2027,0,5
1778660433.128656,1963,0,5
1778660433.136244,2028,0,5
1778660433.137165,2012,0,5
1778660433.138826,1880,0,5
1778660433.141106,1946,0,5
1778660433.142627,2152,0,5
1778660433.143164,2220,0,5
1778660433.145644,2057,0,5
1778660433.1458719,1939,0,5
1778660433.148465,1953,0,5
1778660433.148764,2024,0,5
1778660433.151228,1925,0,5
1778660433.152577,1900,0,5
1778660433.1552389,2051,0,5
1778660433.1608262,2188,0,5
1778660433.161847,2110,0,5
1778660433.163758,2020,0,5
1778660433.164223,2073,0,5
1778660433.16675,2006,0,5
1778660433.1674109,1925,0,5
1778660433.1707368,1859,0,5
1778660433.173245,2017,0,5
1778660433.1738508,2188,0,5
1778660433.176129,2149,0,5
1778660433.17647,2029,0,5
1778660433.179113,1940,0,5
1778660433.180484,1950,0,5
1778660433.1831932,2030,0,5
1778660433.1845171,1940,0,5
1778660433.187126,1942,0,5
1778660433.1933591,2136,0,5
1778660433.195225,2228,0,5
1778660433.195404,2082,0,5
1778660433.197325,1977,0,5
1778660433.1978471,1912,0,5
1778660433.200264,1955,0,5
1778660433.202003,1944,0,5
1778660433.204884,1919,0,5
1778660433.205102,2043,0,5
1778660433.207484,2290,0,5
1778660433.2089689,2139,0,5
1778660433.210338,2037,0,5
1778660433.217697,1957,0,5
1778660433.219668,2048,0,5
1778660433.2199218,1976,0,5
1778660433.222527,1903,0,5
1778660433.2243478,1961,0,5
1778660433.226641,2200,0,5
1778660433.22936,2149,0,5
1778660433.22975,2021,0,5
1778660433.230134,1964,0,5
1778660433.2322829,2000,0,5
1778660433.232401,2074,0,5
1778660433.235061,1947,0,5
1778660433.23651,1910,0,5
1778660433.239352,2045,0,5
1778660433.240761,2144,0,5
1778660433.248231,2027,0,5
1778660433.2502441,2008,0,5
1778660433.250497,1978,0,5
1778660433.2505898,2083,0,5
1778660433.250925,1901,0,5
1778660433.252982,1884,0,5
1778660433.2549498,2093,0,5
1778660433.259431,2335,0,5
1778660433.259824,2116,0,5
1778660433.261578,2005,0,5
1778660433.2629912,1939,0,5
1778660433.264381,2005,0,5
1778660433.2722182,2018,0,5
1778660433.273658,1942,0,5
1778660433.273844,2053,0,5
1778660433.27404,2177,0,5
1778660433.2764869,2165,0,5
1778660433.27732,2078,0,5
1778660433.279995,1938,0,5
1778660433.282506,1988,0,5
1778660433.282942,2034,0,5
1778660433.284915,1886,0,5
1778660433.287434,1899,0,5
1778660433.288764,2128,0,5
1778660433.291429,2214,0,5
1778660433.2927601,1975,0,5
1778660433.299812,1946,0,5
1778660433.303757,2004,0,5
1778660433.3054552,2044,0,5
1778660433.306968,1928,0,5
1778660433.3084328,1886,0,5
1778660433.309485,2031,0,5
1778660433.314018,2206,0,5
1778660433.314086,2072,0,5
1778660433.314121,1989,0,5
1778660433.314186,1924,0,5
1778660433.316442,1962,0,5
1778660433.3164842,1937,0,5
1778660433.319214,1868,0,5
1778660433.3206458,1979,0,5
1778660433.3264792,2160,0,5
1778660433.331056,2216,0,5
1778660433.331748,2057,0,5
1778660433.332923,1972,0,5
1778660433.33393,1981,0,5
1778660433.3345,1964,0,5
1778660433.338391,1744,0,5
1778660433.33905,1710,0,5
1778660433.3395278,2030,0,5
1778660433.341762,2263,0,5
1778660433.343147,2071,0,5
1778660433.3445828,1957,0,5
1778660433.347183,1946,0,5
1778660433.3486469,2030,0,5
1778660433.35104,2022,0,5
1778660433.3576162,2073,0,5
1778660433.3598871,2013,0,5
1778660433.360121,1973,0,5
1778660433.360424,1974,0,5
1778660433.362783,1977,0,5
1778660433.363816,2057,0,5
1778660433.369163,1996,0,5
1778660433.369782,1943,0,5
1778660433.370006,1911,0,5
1778660433.372233,2124,0,5
1778660433.372373,2287,0,5
1778660433.37502,2199,0,5
1778660433.376368,1717,0,5
1778660433.3827221,1895,0,5
1778660433.383198,1784,0,5
1778660433.386472,1860,0,5
1778660433.3880541,1762,0,5
1778660433.389076,1829,0,5
1778660433.3920262,2143,0,5
1778660433.394887,2417,0,5
1778660433.395187,2362,0,5
1778660433.395421,2154,0,5
1778660433.397208,2056,0,5
1778660433.398911,2102,0,5
1778660433.400257,1955,0,5
1778660433.402699,1896,0,5
1778660433.4055302,1988,0,5
1778660433.406683,2122,0,5
1778660433.4127638,2003,0,5
1778660433.414637,1901,0,5
1778660433.416151,1890,0,5
1778660433.416332,1968,0,5
1778660433.418308,1991,0,5
1778660433.418777,1915,0,5
1778660433.42068,1937,0,5
1778660433.4226718,2085,0,5
1778660433.4272451,2052,0,5
1778660433.4275231,2045,0,5
1778660433.42892,2043,0,5
1778660433.430269,1927,0,5
1778660433.436846,1905,0,5
1778660433.438375,1911,0,5
1778660433.440348,1943,0,5
1778660433.4405918,2111,0,5
1778660433.442265,2204,0,5
1778660433.443651,2052,0,5
1778660433.4457011,1915,0,5
1778660433.4473689,1877,0,5
1778660433.4499478,1962,0,5
1778660433.4523442,1969,0,5
1778660433.45238,1981,0,5
1778660433.4582322,2025,0,5
1778660433.458316,2063,0,5
1778660433.458352,2092,0,5
1778660433.461195,2005,0,5
1778660433.4625568,1908,0,5
1778660433.4700391,2033,0,5
1778660433.471997,1921,0,5
1778660433.472436,1887,0,5
1778660433.474456,2051,0,5
1778660433.4754,2143,0,5
1778660433.475608,2051,0,5
1778660433.4809878,1844,0,5
1778660433.48131,1930,0,5
1778660433.481704,2136,0,5
1778660433.484315,2136,0,5
1778660433.4845922,1828,0,5
1778660433.4872189,1881,0,5
1778660433.4886148,2096,0,5
1778660433.49504,2323,0,5
1778660433.495904,1988,0,5
1778660433.49774,1901,0,5
1778660433.497962,1947,0,5
1778660433.4983191,2182,0,5
1778660433.5017118,1916,0,5
1778660433.503927,1740,0,5
1778660433.506568,1816,0,5
1778660433.506975,2043,0,5
1778660433.5094411,2150,0,5
1778660433.510798,2396,0,5
1778660433.513267,1956,0,5
1778660433.514577,1985,0,5
1778660433.5170162,2010,0,5
1778660433.518462,1590,0,5
1778660433.521037,1740,0,5
1778660433.5288808,2120,0,5
1778660433.529106,2186,0,5
1778660433.531397,2143,0,5
1778660433.532046,1903,0,5
1778660433.533629,1909,0,5
1778660433.534604,2095,0,5
1778660433.536736,2119,0,5
1778660433.536959,1854,0,5
1778660433.539608,2159,0,5
1778660433.542321,2368,0,5
1778660433.542426,2021,0,5
1778660433.5449312,1881,0,5
1778660433.546286,1668,0,5
1778660433.553057,2114,0,5
1778660433.554115,2124,0,5
1778660433.554569,1975,0,5
1778660433.556361,2156,0,5
1778660433.556671,2564,0,5
1778660433.5599139,2084,0,5
1778660433.5624871,2087,0,5
1778660433.564806,1706,0,5
1778660433.5650089,1853,0,5
1778660433.567585,1982,0,5
1778660433.569035,1841,0,5
1778660433.5703712,1740,0,5
1778660433.572897,2120,0,5
1778660433.574166,2188,0,5
1778660433.5770502,2184,0,5
1778660433.582937,2027,0,5
1778660433.584478,1913,0,5
1778660433.587147,2049,0,5
1778660433.589411,1979,0,5
1778660433.590038,1928,0,5
1778660433.591462,1944,0,5
1778660433.592447,2381,0,5
1778660433.594274,1888,0,5
1778660433.594697,1842,0,5
1778660433.597276,1923,0,5
1778660433.599828,1928,0,5
1778660433.601224,1643,0,5
1778660433.6025531,1822,0,5
1778660433.609521,1975,0,5
1778660433.6110048,2103,0,5
1778660433.612467,1915,0,5
1778660433.612669,1891,0,5
1778660433.6155672,2016,0,5
1778660433.616659,1898,0,5
1778660433.622092,1975,0,5
1778660433.622493,1966,0,5
1778660433.622696,1875,0,5
1778660433.622894,1771,0,5
1778660433.624955,2349,0,5
1778660433.6262982,2205,0,5
1778660433.629038,2057,0,5
1778660433.631802,2116,0,5
1778660433.633348,2493,0,5
1778660433.6348858,2332,0,5
1778660433.63633,2986,0,5
1778660433.64337,2914,0,5
1778660433.6444612,3295,0,5
1778660433.644623,3257,0,5
1778660433.6465201,2785,0,5
1778660433.6493819,2657,0,5
1778660433.651389,2690,0,5
1778660433.652094,2478,0,5
1778660433.6540911,2551,0,5
1778660433.656629,2479,0,5
1778660433.656885,2401,0,5
1778660433.6594949,2415,0,5
1778660433.660956,2345,0,5
1778660433.662282,2115,0,5
1778660433.6707242,2457,0,5
1778660433.672508,2316,0,5
1778660433.6741838,1957,0,5
1778660433.675051,1981,0,5
1778660433.676887,2032,0,5
1778660433.677879,2174,0,5
1778660433.679668,2155,0,5
1778660433.6822379,1950,0,5
1778660433.682981,1982,0,5
1778660433.683367,2119,0,5
1778660433.685615,1966,0,5
1778660433.687088,1930,0,5
1778660433.688421,2120,0,5
1778660433.6910222,2329,0,5
1778660433.692346,2208,0,5
1778660433.6950788,1979,0,5
1778660433.696492,1849,0,5
1778660433.7030342,2043,0,5
1778660433.703593,1967,0,5
1778660433.703799,1997,0,5
1778660433.70559,2115,0,5
1778660433.707874,2112,0,5
1778660433.7098858,2243,0,5
1778660433.71214,2061,0,5
1778660433.714926,1968,0,5
1778660433.715391,2147,0,5
1778660433.717931,2084,0,5
1778660433.718066,1778,0,5
1778660433.720714,1920,0,5
1778660433.7221582,2242,0,5
1778660433.728558,2414,0,5
1778660433.7291899,2022,0,5
1778660433.729781,1691,0,5
1778660433.733669,2096,0,5
1778660433.7363,2307,0,5
1778660433.740774,2178,0,5
1778660433.741056,2063,0,5
1778660433.741353,2078,0,5
1778660433.7414908,2156,0,5
1778660433.744102,2183,0,5
1778660433.74417,2049,0,5
1778660433.746788,1990,0,5
1778660433.7491798,1779,0,5
1778660433.7505448,1981,0,5
1778660433.753164,2035,0,5
1778660433.754485,2048,0,5
1778660433.761436,2036,0,5
1778660433.761955,2069,0,5
1778660433.762552,2088,0,5
1778660433.764019,2033,0,5
1778660433.7642,2103,0,5
1778660433.767245,2082,0,5
1778660433.7688498,1950,0,5
1778660433.7730508,1921,0,5
1778660433.7732952,2102,0,5
1778660433.775914,2337,0,5
1778660433.776087,2094,0,5
1778660433.7787259,2000,0,5
1778660433.780082,2087,0,5
1778660433.7862668,1958,0,5
1778660433.787422,1838,0,5
1778660433.78799,1831,0,5
1778660433.790263,2109,0,5
1778660433.792466,2193,0,5
1778660433.794133,2138,0,5
1778660433.795211,2011,0,5
1778660433.797909,1991,0,5
1778660433.800522,2146,0,5
1778660433.800704,1949,0,5
1778660433.8033888,1804,0,5
1778660433.80475,2101,0,5
1778660433.8060968,2216,0,5
1778660433.808738,2024,0,5
1778660433.8100748,2036,0,5
1778660433.8126779,2071,0,5
1778660433.814062,1844,0,5
1778660433.821517,1872,0,5
1778660433.8236532,1989,0,5
1778660433.8288362,2323,0,5
1778660433.8331149,2307,0,5
1778660433.833545,1870,0,5
1778660433.833794,1705,0,5
1778660433.83405,1987,0,5
1778660433.834209,2202,0,5
1778660433.8344698,2162,0,5
1778660433.836627,1901,0,5
1778660433.836881,1882,0,5
1778660433.8382661,2052,0,5
1778660433.840965,2235,0,5
1778660433.847788,2202,0,5
1778660433.8498712,2152,0,5
1778660433.850213,1377,0,5
1778660433.850421,1498,0,5
1778660433.852381,1940,0,5
1778660433.853454,1853,0,5
1778660433.855105,2204,0,5
1778660433.857311,1885,0,5
1778660433.860559,1922,0,5
1778660433.8609831,2381,0,5
1778660433.8638852,2206,0,5
1778660433.86523,2279,0,5
1778660433.866577,2354,0,5
1778660433.8693042,1941,0,5
1778660433.870686,1666,0,5
1778660433.8720598,1545,0,5
1778660433.874707,1950,0,5
1778660433.8760629,1079,0,5
1778660433.8855739,1755,0,5
1778660433.8859441,2339,0,5
1778660433.88867,1965,0,5
1778660433.889516,1795,0,5
1778660433.890222,1828,0,5
1778660433.891298,1974,0,5
1778660433.89231,2749,0,5
1778660433.89752,2624,0,5
1778660433.898149,2129,0,5
1778660433.900149,1809,0,5
1778660433.900751,1722,0,5
1778660433.900863,1727,0,5
1778660433.902217,1405,0,5
1778660433.904785,1616,0,5
1778660433.906095,2205,0,5
1778660433.912273,1967,0,5
1778660433.9123998,1697,0,5
1778660433.912936,1599,0,5
1778660433.9146922,1604,0,5
1778660433.916215,1304,0,5
1778660433.9191968,1418,0,5
1778660433.920887,1241,0,5
1778660433.9235241,1264,0,5
1778660433.92542,2216,0,5
1778660433.926733,2384,0,5
1778660433.9280791,2053,0,5
1778660433.930644,1669,0,5
1778660433.9320698,1685,0,5
1778660433.934637,892,0,5
1778660433.936049,2335,0,5
1778660433.941995,2420,0,5
1778660433.943543,2326,0,5
1778660433.9458408,1237,0,5
1778660433.948738,366,0,5
1778660433.950975,2411,0,5
1778660433.9557261,3471,0,5
1778660433.956061,2761,0,5
1778660433.956398,2016,0,5
1778660433.9567559,2262,0,5
1778660433.957037,2663,0,5
1778660433.959402,2362,0,5
1778660433.960791,2043,0,5
1778660433.9621131,1970,0,5
1778660433.971066,1901,0,5
1778660433.972704,1795,0,5
1778660433.972901,1237,0,5
1778660433.973312,1326,0,5
1778660433.974904,2305,0,5
1778660433.9754748,2436,0,5
1778660433.977675,1972,0,5
1778660433.983167,1915,0,5
1778660433.9838479,1884,0,5
1778660433.984013,2014,0,5
1778660433.9843788,1966,0,5
1778660433.986847,1971,0,5
1778660433.988215,2142,0,5
1778660433.99071,2292,0,5
1778660433.9920661,2010,0,5
1778660433.994727,1956,0,5
1778660433.996159,2000,0,5
1778660434.003096,1990,0,5
1778660434.004768,1966,0,5
1778660434.005837,1926,0,5
1778660434.0077,2163,0,5
1778660434.007905,2270,0,5
1778660434.0096152,2177,0,5
1778660434.011698,2034,0,5
1778660434.014813,2140,0,5
1778660434.0179489,2234,0,5
1778660434.018417,1909,0,5
1778660434.01865,1628,0,5
1778660434.02142,2151,0,5
1778660434.022835,2481,0,5
1778660434.024193,2479,0,5
1778660434.031296,2277,0,5
1778660434.032313,2283,0,5
1778660434.033356,2330,0,5
1778660434.0367858,2318,0,5
1778660434.036887,2145,0,5
1778660434.038152,2119,0,5
1778660434.038388,2130,0,5
1778660434.0446122,2212,0,5
1778660434.04513,1986,0,5
1778660434.047576,2107,0,5
1778660434.047889,2337,0,5
1778660434.049336,2322,0,5
1778660434.050719,2309,0,5
1778660434.052094,2051,0,5
1778660434.0546188,2298,0,5
1778660434.056054,2512,0,5
1778660434.0587368,2334,0,5
1778660434.06794,2190,0,5
1778660434.068255,1892,0,5
1778660434.0701702,1980,0,5
1778660434.0708008,2074,0,5
1778660434.072911,1707,0,5
1778660434.075777,2193,0,5
1778660434.075969,2446,0,5
1778660434.078791,2439,0,5
1778660434.0790982,2294,0,5
1778660434.079456,2314,0,5
1778660434.0813031,2269,0,5
1778660434.082624,2371,0,5
1778660434.083999,2261,0,5
1778660434.091991,2110,0,5
1778660434.0921972,2171,0,5
1778660434.0945148,2159,0,5
1778660434.094811,2148,0,5
1778660434.0951,2098,0,5
1778660434.097913,2157,0,5
1778660434.098073,2374,0,5
1778660434.10189,2241,0,5
1778660434.102101,2154,0,5
1778660434.104907,2224,0,5
1778660434.1074429,1937,0,5
1778660434.1087942,2025,0,5
1778660434.110126,2494,0,5
1778660434.112767,2433,0,5
1778660434.1141691,2170,0,5
1778660434.116703,2042,0,5
1778660434.11803,2094,0,5
1778660434.127035,2344,0,5
1778660434.127497,2570,0,5
1778660434.127685,2478,0,5
1778660434.1278899,2303,0,5
1778660434.130286,2145,0,5
1778660434.132328,2214,0,5
1778660434.1325681,2095,0,5
1778660434.1349812,2028,0,5
1778660434.1381829,1998,0,5
1778660434.1384761,2277,0,5
1778660434.1410701,2471,0,5
1778660434.1424341,2262,0,5
1778660434.1453922,2054,0,5
1778660434.146791,2033,0,5
1778660434.154512,2132,0,5
1778660434.1563761,1932,0,5
1778660434.1564841,1939,0,5
1778660434.158785,2256,0,5
1778660434.158975,2435,0,5
1778660434.160054,2319,0,5
1778660434.161112,2174,0,5
1778660434.163584,2116,0,5
1778660434.16675,2180,0,5
1778660434.167058,2237,0,5
1778660434.169533,2173,0,5
1778660434.17329,2179,0,5
1778660434.173436,2349,0,5
1778660434.174922,2330,0,5
1778660434.1766012,2137,0,5
1778660434.1779652,2150,0,5
1778660434.180593,2187,0,5
1778660434.185712,2085,0,5
1778660434.1858351,2003,0,5
1778660434.185934,1997,0,5
1778660434.1894588,2117,0,5
1778660434.191603,2329,0,5
1778660434.1933792,2172,0,5
1778660434.196295,2121,0,5
1778660434.199266,2116,0,5
1778660434.19958,2274,0,5
1778660434.202272,2259,0,5
1778660434.202343,2084,0,5
1778660434.20495,1973,0,5
1778660434.206281,2163,0,5
1778660434.213166,2284,0,5
1778660434.215071,2249,0,5
1778660434.215494,2032,0,5
1778660434.217464,2060,0,5
1778660434.218432,1991,0,5
1778660434.219093,2136,0,5
1778660434.222239,2107,0,5
1778660434.225399,2132,0,5
1778660434.225861,2255,0,5
1778660434.226103,2201,0,5
1778660434.2287412,2021,0,5
1778660434.230124,2225,0,5
1778660434.2327738,2155,0,5
1778660434.2340941,1960,0,5
1778660434.2375271,1853,0,5
1778660434.2389061,2208,0,5
1778660434.240324,2438,0,5
1778660434.249778,2243,0,5
1778660434.252585,2182,0,5
1778660434.2528,1927,0,5
1778660434.253821,2146,0,5
1778660434.25443,1958,0,5
1778660434.254955,2017,0,5
1778660434.2551198,2153,0,5
1778660434.257144,2290,0,5
1778660434.2603068,2385,0,5
1778660434.260708,2281,0,5
1778660434.263517,2182,0,5
1778660434.264874,2021,0,5
1778660434.2662249,1974,0,5
1778660434.268836,1991,0,5
1778660434.274591,1892,0,5
1778660434.2752829,1916,0,5
1778660434.275881,2355,0,5
1778660434.276034,2166,0,5
1778660434.278541,2168,0,5
1778660434.2812202,2146,0,5
1778660434.2836301,2555,0,5
1778660434.28615,1926,0,5
1778660434.2864351,1920,0,5
1778660434.2921522,2105,0,5
1778660434.292233,2450,0,5
1778660434.292285,2311,0,5
1778660434.294863,1976,0,5
1778660434.2962492,1845,0,5
1778660434.299063,2323,0,5
1778660434.300406,2375,0,5
1778660434.3030012,2294,0,5
1778660434.3085508,2291,0,5
1778660434.30921,1981,0,5
1778660434.31022,2151,0,5
1778660434.310379,2078,0,5
1778660434.3121989,2138,0,5
1778660434.3153028,1813,0,5
1778660434.3167949,1797,0,5
1778660434.31904,1901,0,5
1778660434.322176,1875,0,5
1778660434.322614,1975,0,5
1778660434.32531,2430,0,5
1778660434.326704,2380,0,5
1778660434.3280342,1958,0,5
1778660434.330806,2131,0,5
1778660434.340381,1994,0,5
1778660434.343791,1922,0,5
1778660434.3445199,1953,0,5
1778660434.350416,2203,0,5
1778660434.3508139,2522,0,5
1778660434.351021,2133,0,5
1778660434.353753,1741,0,5
1778660434.3538618,1839,0,5
1778660434.353956,1975,0,5
1778660434.354016,1850,0,5
1778660434.3540668,1616,0,5
1778660434.3541162,2332,0,5
1778660434.356757,2291,0,5
1778660434.358079,2443,0,5
1778660434.360707,2234,0,5
1778660434.362134,2284,0,5
1778660434.3647501,1969,0,5
1778660434.371677,1786,0,5
1778660434.375613,2009,0,5
1778660434.3759518,2082,0,5
1778660434.378829,2085,0,5
1778660434.3803751,2041,0,5
1778660434.386581,1902,0,5
1778660434.3875022,1729,0,5
1778660434.3878772,1842,0,5
1778660434.38798,2107,0,5
1778660434.390055,2225,0,5
1778660434.3909,1910,0,5
1778660434.390966,1879,0,5
1778660434.3910148,2250,0,5
1778660434.392376,2267,0,5
1778660434.393908,1968,0,5
1778660434.4011772,2137,0,5
1778660434.402087,2163,0,5
1778660434.402633,1976,0,5
1778660434.403127,1936,0,5
1778660434.404632,2063,0,5
1778660434.406847,2037,0,5
1778660434.4083378,2097,0,5
1778660434.410676,2140,0,5
1778660434.41361,2000,0,5
1778660434.416051,2072,0,5
1778660434.416249,2053,0,5
1778660434.418814,1932,0,5
1778660434.4201128,1972,0,5
1778660434.422684,2217,0,5
1778660434.423986,2154,0,5
1778660434.4265442,2121,0,5
1778660434.435842,2135,0,5
1778660434.43627,2128,0,5
1778660434.438316,1985,0,5
1778660434.43976,1932,0,5
1778660434.439997,2021,0,5
1778660434.440577,2035,0,5
1778660434.441226,2139,0,5
1778660434.443677,2135,0,5
1778660434.447262,2073,0,5
1778660434.449791,1907,0,5
1778660434.449934,2051,0,5
1778660434.450007,2135,0,5
1778660434.452804,2017,0,5
1778660434.453985,1987,0,5
1778660434.461021,2068,0,5
1778660434.461697,2078,0,5
1778660434.46397,2061,0,5
1778660434.464347,2011,0,5
1778660434.466642,1960,0,5
1778660434.468313,2034,0,5
1778660434.469023,1984,0,5
1778660434.474752,1983,0,5
1778660434.474984,2076,0,5
1778660434.475242,2204,0,5
1778660434.4778528,2133,0,5
1778660434.4780018,2054,0,5
1778660434.480622,1992,0,5
1778660434.4819741,2080,0,5
1778660434.4844959,1942,0,5
1778660434.487489,1935,0,5
1778660434.4940999,2032,0,5
1778660434.4956641,2253,0,5
1778660434.497248,2231,0,5
1778660434.497618,2104,0,5
1778660434.500198,2039,0,5
1778660434.5003881,2080,0,5
1778660434.50098,2063,0,5
1778660434.503179,1961,0,5
1778660434.507765,1979,0,5
1778660434.508032,2124,0,5
1778660434.508336,2254,0,5
1778660434.510905,2152,0,5
1778660434.512279,2023,0,5
1778660434.5148742,2008,0,5
1778660434.52102,2075,0,5
1778660434.5215712,1978,0,5
1778660434.5236218,2016,0,5
1778660434.523778,2114,0,5
1778660434.525772,2216,0,5
1778660434.527462,2127,0,5
1778660434.529068,2019,0,5
1778660434.530896,1989,0,5
1778660434.534003,2034,0,5
1778660434.5343091,1953,0,5
1778660434.536889,1966,0,5
1778660434.538365,1960,0,5
1778660434.539834,2152,0,5
1778660434.542464,2035,0,5
1778660434.5438669,1990,0,5
1778660434.546477,2003,0,5
1778660434.552576,2073,0,5
1778660434.553268,1986,0,5
1778660434.5539358,1877,0,5
1778660434.554946,2041,0,5
1778660434.5566561,2216,0,5
1778660434.559106,2380,0,5
1778660434.560777,2249,0,5
1778660434.5632389,2080,0,5
1778660434.566298,2070,0,5
1778660434.566704,2042,0,5
1778660434.5687602,1928,0,5
1778660434.570176,1841,0,5
1778660434.572874,2036,0,5
1778660434.574311,2157,0,5
1778660434.58223,2117,0,5
1778660434.584648,2002,0,5
1778660434.585221,1941,0,5
1778660434.585752,2087,0,5
1778660434.586733,1968,0,5
1778660434.587348,1972,0,5
1778660434.589538,2109,0,5
1778660434.592597,2285,0,5
1778660434.5932531,2069,0,5
1778660434.595579,1973,0,5
1778660434.596985,1860,0,5
1778660434.598436,1909,0,5
1778660434.599923,1814,0,5
1778660434.602581,1695,0,5
1778660434.6039739,1828,0,5
1778660434.610199,1958,0,5
1778660434.611817,2063,0,5
1778660434.6128352,2036,0,5
1778660434.61308,1989,0,5
1778660434.6150599,2008,0,5
1778660434.6175091,2028,0,5
1778660434.619572,1884,0,5
1778660434.6218,1936,0,5
1778660434.6247182,2109,0,5
1778660434.624884,2285,0,5
1778660434.62743,2186,0,5
1778660434.6287968,2069,0,5
1778660434.630207,1978,0,5
1778660434.6327128,2133,0,5
1778660434.638408,2050,0,5
1778660434.6409369,1900,0,5
1778660434.64123,2086,0,5
1778660434.641435,2363,0,5
1778660434.646288,2304,0,5
1778660434.6479979,1964,0,5
1778660434.6482408,2000,0,5
1778660434.648387,2042,0,5
1778660434.651566,1998,0,5
1778660434.653559,1962,0,5
1778660434.6549609,2021,0,5
1778660434.656352,2230,0,5
1778660434.6587882,2336,0,5
1778660434.6601222,2188,0,5
1778660434.662736,2006,0,5
1778660434.6639621,2004,0,5
1778660434.6701708,2057,0,5
1778660434.672408,1979,0,5
1778660434.675155,1899,0,5
1778660434.675304,2078,0,5
1778660434.6762712,2213,0,5
1778660434.676793,1951,0,5
1778660434.679296,2093,0,5
1778660434.682206,1985,0,5
1778660434.6828449,2138,0,5
1778660434.685205,2047,0,5
1778660434.686573,1979,0,5
1778660434.687975,2064,0,5
1778660434.6948118,2270,0,5
1778660434.695345,2187,0,5
1778660434.696745,2130,0,5
1778660434.6982021,2051,0,5
1778660434.698588,1931,0,5
1778660434.7008698,2053,0,5
1778660434.702516,1959,0,5
1778660434.7051048,2176,0,5
1778660434.708221,2135,0,5
1778660434.708488,2221,0,5
1778660434.711096,2175,0,5
1778660434.712456,2056,0,5
1778660434.713791,1894,0,5
1778660434.716456,2130,0,5
1778660434.717794,1912,0,5
1778660434.720639,1918,0,5
1778660434.7221,2159,0,5
1778660434.728011,2229,0,5
1778660434.72911,2070,0,5
1778660434.731127,2085,0,5
1778660434.731637,2027,0,5
1778660434.7335901,2071,0,5
1778660434.736325,2005,0,5
1778660434.736535,1889,0,5
1778660434.741648,2021,0,5
1778660434.7419121,2125,0,5
1778660434.7422562,2169,0,5
1778660434.744918,2019,0,5
1778660434.746392,1879,0,5
1778660434.7478158,1998,0,5
1778660434.754184,2045,0,5
1778660434.756017,1962,0,5
1778660434.757498,2008,0,5
1778660434.757754,2179,0,5
1778660434.760617,2201,0,5
1778660434.7615738,2014,0,5
1778660434.767092,1982,0,5
1778660434.767434,2083,0,5
1778660434.767835,2062,0,5
1778660434.768202,1853,0,5
1778660434.7706409,1791,0,5
1778660434.771989,1928,0,5
1778660434.774645,2152,0,5
1778660434.776362,2142,0,5
1778660434.778985,2013,0,5
1778660434.7803378,1974,0,5
1778660434.789278,2049,0,5
1778660434.792038,1951,0,5
1778660434.793139,1860,0,5
1778660434.7937899,2021,0,5
1778660434.794445,2211,0,5
1778660434.795043,2087,0,5
1778660434.7973812,1908,0,5
1778660434.79757,1878,0,5
1778660434.8006551,1951,0,5
1778660434.800907,1999,0,5
1778660434.803487,1645,0,5
1778660434.804846,1811,0,5
1778660434.806174,2032,0,5
1778660434.814665,2262,0,5
1778660434.816279,1998,0,5
1778660434.816521,1910,0,5
1778660434.8166442,1934,0,5
1778660434.818608,1998,0,5
1778660434.819666,1886,0,5
1778660434.8208158,1883,0,5
1778660434.826459,2015,0,5
1778660434.826897,2243,0,5
1778660434.827303,2098,0,5
1778660434.82988,1925,0,5
1778660434.829941,1900,0,5
1778660434.832557,1987,0,5
1778660434.8339,1888,0,5
1778660434.8365161,1956,0,5
1778660434.837898,2043,0,5
1778660434.840582,2083,0,5
1778660434.847093,2024,0,5
1778660434.848078,1959,0,5
1778660434.8496058,1917,0,5
1778660434.849823,1882,0,5
1778660434.849935,1968,0,5
1778660434.852928,1947,0,5
1778660434.859224,1919,0,5
1778660434.859645,2075,0,5
1778660434.859906,2357,0,5
1778660434.860275,2097,0,5
1778660434.8625522,1731,0,5
1778660434.863909,1904,0,5
1778660434.866528,2063,0,5
1778660434.872946,1755,0,5
1778660434.874035,1736,0,5
1778660434.8760378,2068,0,5
1778660434.878141,2128,0,5
1778660434.878291,1854,0,5
1778660434.8798568,1834,0,5
1778660434.880794,1959,0,5
1778660434.885969,2003,0,5
1778660434.886299,2021,0,5
1778660434.886632,1850,0,5
1778660434.889083,2023,0,5
1778660434.890421,2080,0,5
1778660434.891745,2114,0,5
1778660434.89439,2096,0,5
1778660434.8957188,1982,0,5
1778660434.898356,1933,0,5
1778660434.899746,1898,0,5
1778660434.906362,1592,0,5
1778660434.909361,1858,0,5
1778660434.90959,2052,0,5
1778660434.909908,2183,0,5
1778660434.913188,2076,0,5
1778660434.913831,1926,0,5
1778660434.914885,2013,0,5
1778660434.917079,2179,0,5
1778660434.919826,1952,0,5
1778660434.920234,1735,0,5
1778660434.92288,1769,0,5
1778660434.924233,2169,0,5
1778660434.925687,2092,0,5
1778660434.933455,2244,0,5
1778660434.935369,1905,0,5
1778660434.935578,1664,0,5
1778660434.935781,2075,0,5
1778660434.9361339,1818,0,5
1778660434.938455,2004,0,5
1778660434.940595,2232,0,5
1778660434.942851,2105,0,5
1778660434.9457831,1694,0,5
1778660434.9462268,1940,0,5
1778660434.94892,2137,0,5
1778660434.9502568,2073,0,5
1778660434.951721,2082,0,5
1778660434.9544241,2046,0,5
1778660434.955786,2134,0,5
1778660434.958432,2335,0,5
1778660434.95979,2151,0,5
1778660434.966214,1960,0,5
1778660434.967329,2005,0,5
1778660434.967991,2103,0,5
1778660434.969686,2014,0,5
1778660434.971421,2001,0,5
1778660434.973551,2101,0,5
1778660434.974622,2183,0,5
1778660434.976903,2138,0,5
1778660434.979745,2198,0,5
1778660434.980224,2040,0,5
1778660434.982613,1967,0,5
1778660434.983954,1923,0,5
1778660434.9865549,1929,0,5
1778660434.993001,2066,0,5
1778660434.994546,2245,0,5
1778660434.9960341,2218,0,5
1778660434.996235,2094,0,5
1778660434.996655,1998,0,5
1778660434.998911,2022,0,5
1778660435.001398,2033,0,5
1778660435.003189,1968,0,5
1778660435.0059369,1971,0,5
1778660435.00625,2115,0,5
1778660435.0088162,2280,0,5
1778660435.010505,2115,0,5
1778660435.012287,2010,0,5
1778660435.013681,2001,0,5
1778660435.01634,2037,0,5
1778660435.017718,1931,0,5
1778660435.020405,1906,0,5
1778660435.026697,1986,0,5
1778660435.0293682,2197,0,5
1778660435.029647,2145,0,5
1778660435.0314429,2018,0,5
1778660435.033688,1957,0,5
1778660435.034368,2040,0,5
1778660435.035004,2004,0,5
1778660435.038023,1893,0,5
1778660435.038155,1961,0,5
1778660435.041645,2124,0,5
1778660435.041843,2160,0,5
1778660435.0438452,2020,0,5
1778660435.046405,1978,0,5
1778660435.04777,1986,0,5
1778660435.0574012,1976,0,5
1778660435.058804,1834,0,5
1778660435.061135,1860,0,5
1778660435.06146,2078,0,5
1778660435.0616782,2173,0,5
1778660435.064939,2017,0,5
1778660435.065587,1961,0,5
1778660435.06611,1915,0,5
1778660435.067227,1997,0,5
1778660435.06899,1901,0,5
1778660435.071525,1851,0,5
1778660435.073535,2064,0,5
1778660435.075291,2222,0,5
1778660435.076606,2107,0,5
1778660435.077923,1985,0,5
1778660435.080441,1921,0,5
1778660435.0817358,1850,0,5
1778660435.084256,1977,0,5
1778660435.090369,1904,0,5
1778660435.091042,1997,0,5
1778660435.091993,2099,0,5
1778660435.09345,2156,0,5
1778660435.095697,2025,0,5
1778660435.095812,1965,0,5
1778660435.0997639,1974,0,5
1778660435.1024199,1993,0,5
1778660435.102955,1875,0,5
1778660435.105379,1942,0,5
1778660435.10671,2050,0,5
1778660435.107958,2248,0,5
1778660435.1164749,2083,0,5
1778660435.117145,1975,0,5
1778660435.1207721,1939,0,5
1778660435.121552,2066,0,5
1778660435.122672,2036,0,5
1778660435.122845,1867,0,5
1778660435.1234062,1969,0,5
1778660435.1265988,2215,0,5
1778660435.1297631,2123,0,5
1778660435.130154,2012,0,5
1778660435.130431,1867,0,5
1778660435.133025,1991,0,5
1778660435.134402,1969,0,5
1778660435.135783,1878,0,5
1778660435.1383948,1947,0,5
1778660435.139731,2085,0,5
1778660435.1423209,1975,0,5
1778660435.143662,1950,0,5
1778660435.150804,1831,0,5
1778660435.151854,1972,0,5
1778660435.153744,2132,0,5
1778660435.156845,1906,0,5
1778660435.1574988,1881,0,5
1778660435.157676,2070,0,5
1778660435.158891,2286,0,5
1778660435.16186,2124,0,5
1778660435.164625,1920,0,5
1778660435.164865,1767,0,5
1778660435.167475,2015,0,5
1778660435.1677408,2105,0,5
1778660435.170389,1938,0,5
1778660435.1717398,1531,0,5
1778660435.181416,1698,0,5
1778660435.181834,2162,0,5
1778660435.1841128,2456,0,5
1778660435.186228,2101,0,5
1778660435.186469,1599,0,5
1778660435.1875489,1692,0,5
1778660435.1920042,2416,0,5
1778660435.192533,1941,0,5
1778660435.192836,2304,0,5
1778660435.193269,2684,0,5
1778660435.1957278,2461,0,5
1778660435.195816,2093,0,5
1778660435.198439,1968,0,5
1778660435.199925,2028,0,5
1778660435.2025988,1993,0,5
1778660435.203819,1967,0,5
1778660435.206465,2059,0,5
1778660435.212499,2166,0,5
1778660435.2133062,1947,0,5
1778660435.2154481,1874,0,5
1778660435.215774,1849,0,5
1778660435.2158341,1963,0,5
1778660435.224349,1907,0,5
1778660435.224393,1752,0,5
1778660435.224498,1659,0,5
1778660435.224896,2030,0,5
1778660435.243229,2159,0,5
1778660435.2537642,2053,0,5
1778660435.269001,2020,0,5
1778660435.269115,2040,0,5
1778660435.2697642,2025,0,5
1778660435.2715762,1987,0,5
1778660435.272504,1995,0,5
1778660435.273293,2067,0,5
1778660435.27415,2161,0,5
1778660435.27422,2025,0,5
1778660435.274275,1825,0,5
1778660435.301945,1876,0,5
1778660435.358439,2008,0,5
1778660435.359187,1968,0,5
1778660435.359534,1989,0,5
1778660435.359606,2018,0,5
1778660435.3596601,2178,0,5
1778660435.359711,2018,0,5
1778660435.359763,1951,0,5
1778660435.3598132,1929,0,5
1778660435.359861,1920,0,5
1778660435.3599098,1861,0,5
1778660435.359961,1918,0,5
1778660435.360009,1976,0,5
1778660435.360062,2141,0,5
1778660435.36011,2140,0,5
1778660435.360211,1958,0,5
1778660435.360258,2028,0,5
1778660435.360317,2090,0,5
1778660435.36061,2106,0,5
1778660435.3607318,1851,0,5
1778660435.360842,1972,0,5
1778660435.360916,2086,0,5
1778660435.3609972,2262,0,5
1778660435.3648078,2149,0,5
1778660435.366299,2004,0,5
1778660435.3664372,1932,0,5
1778660435.366472,1871,0,5
1778660435.3665721,1888,0,5
1778660435.366624,1976,0,5
1778660435.3666549,2223,0,5
1778660435.366684,2270,0,5
1778660435.366713,1961,0,5
1778660435.366741,1731,0,5
1778660435.366816,1926,0,5
1778660435.3669498,2035,0,5
1778660435.367032,1909,0,5
1778660435.367112,1991,0,5
1778660435.367189,1796,0,5
1778660435.367423,2124,0,5
1778660435.3675652,2088,0,5
1778660435.3675961,2025,0,5
1778660435.367626,1931,0,5
1778660435.3677282,1740,0,5
1778660435.367799,1755,0,5
1778660435.367872,2175,0,5
1778660435.389985,2236,0,5
1778660435.390423,2420,0,5
1778660435.390503,2032,0,5
1778660435.390563,1805,0,5
1778660435.390836,1903,0,5
1778660435.390879,2032,0,5
1778660435.3910248,2025,0,5
1778660435.391055,2200,0,5
1778660435.391083,1777,0,5
1778660435.391111,1431,0,5
1778660435.391139,1913,0,5
1778660435.391166,1999,0,5
1778660435.391194,2192,0,5
1778660435.391221,2164,0,5
1778660435.391333,1983,0,5
1778660435.391401,1478,0,5
1778660435.391496,1501,0,5
1778660435.391555,1896,0,5
1778660435.391669,2279,0,5
1778660435.391716,2072,0,5
1778660435.3917482,1857,0,5
1778660435.3918889,1404,0,5
1778660435.3919191,1481,0,5
1778660435.3922648,1535,0,5
1778660435.392437,1921,0,5
1778660435.396278,2086,0,5
1778660435.439753,2209,0,5
1778660435.4401238,2214,0,5
1778660435.4403222,2348,0,5
1778660435.440493,2102,0,5
1778660435.443071,2002,0,5
1778660435.479458,2041,0,5
1778660435.507649,1953,0,5
1778660435.507778,1712,0,5
1778660435.508173,1929,0,5
1778660435.50822,1809,0,5
1778660435.527025,2068,0,5
1778660435.535517,2068,0,5
1778660435.535755,1923,0,5
1778660435.5360608,1852,0,5
1778660435.53616,1721,0,5
1778660435.536273,1738,0,5
1778660435.536337,2220,0,5
1778660435.5363688,2108,0,5
1778660435.536397,2141,0,5
1778660435.536424,2001,0,5
1778660435.5364501,1930,0,5
1778660435.536476,2061,0,5
1778660435.536501,2131,0,5
1778660435.5365272,2002,0,5
1778660435.536567,1923,0,5
1778660435.53663,1865,0,5
1778660435.536695,2000,0,5
1778660435.536723,1925,0,5
1778660435.53675,1809,0,5
1778660435.536777,2145,0,5
1778660435.5368052,2228,0,5
1778660435.536832,1953,0,5
1778660435.536871,1925,0,5
1778660435.536899,2100,0,5
1778660435.536927,2306,0,5
1778660435.5369542,2269,0,5
1778660435.537025,2154,0,5
1778660435.537054,1685,0,5
1778660435.537081,1925,0,5
1778660435.537108,1881,0,5
1778660435.5373492,1953,0,5
1778660435.537487,2028,0,5
1778660435.5375202,2158,0,5
1778660435.537685,2121,0,5
1778660435.53773,1998,0,5
1778660435.537807,1973,0,5
1778660435.5378711,2043,0,5
1778660435.5379012,2076,0,5
1778660435.5379279,1870,0,5
1778660435.537987,1941,0,5
1778660435.538017,2259,0,5
1778660435.538105,2166,0,5
1778660435.5381691,2156,0,5
1778660435.53822,2048,0,5
1778660435.538281,1973,0,5
1778660435.5383139,2261,0,5
1778660435.538342,2214,0,5
1778660435.53845,2065,0,5
1778660435.538501,2044,0,5
1778660435.538531,2353,0,5
1778660435.538561,2109,0,5
1778660435.538589,2023,0,5
1778660435.538618,1988,0,5
1778660435.538646,2043,0,5
1778660435.5386722,2091,0,5
1778660435.538733,2053,0,5
1778660435.538829,2016,0,5
1778660435.538904,2200,0,5
1778660435.538956,2453,0,5
1778660435.539006,2252,0,5
1778660435.539055,2090,0,5
1778660435.539146,1787,0,5
1778660435.539212,2051,0,5
1778660435.539553,2141,0,5
1778660435.539605,2082,0,5
1778660435.539881,2154,0,5
1778660435.5457659,2367,0,5
1778660435.549925,1965,0,5
1778660435.551174,1935,0,5
1778660435.5518699,2066,0,5
1778660435.5524049,2165,0,5
1778660435.557226,1926,0,5
1778660435.559894,2044,0,5
1778660435.560022,2005,0,5
1778660435.560092,2200,0,5
1778660435.560147,2035,0,5
1778660435.561538,2138,0,5
1778660435.563753,2216,0,5
1778660435.5663302,2165,0,5
1778660435.567632,1933,0,5
1778660435.57023,1812,0,5
1778660435.5783648,2073,0,5
1778660435.580384,2301,0,5
1778660435.58103,1986,0,5
1778660435.581623,2081,0,5
1778660435.583105,2136,0,5
1778660435.584197,1834,0,5
1778660435.585896,2018,0,5
1778660435.586151,1895,0,5
1778660435.58963,2169,0,5
1778660435.5896692,2098,0,5
1778660435.593122,1970,0,5
1778660435.594513,2048,0,5
1778660435.595853,2071,0,5
1778660435.598647,2068,0,5
1778660435.603254,2059,0,5
1778660435.6063402,2053,0,5
1778660435.606656,1872,0,5
1778660435.6068192,2041,0,5
1778660435.6099641,2362,0,5
1778660435.615327,2122,0,5
1778660435.615778,2122,0,5
1778660435.616051,2043,0,5
1778660435.616297,1975,0,5
1778660435.6186838,1896,0,5
1778660435.620775,1653,0,5
1778660435.622113,1866,0,5
1778660435.623444,2198,0,5
1778660435.626047,2395,0,5
1778660435.627607,2178,0,5
1778660435.633706,2181,0,5
1778660435.634659,2041,0,5
1778660435.637287,1495,0,5
1778660435.638782,1523,0,5
1778660435.639711,2028,0,5
1778660435.6418939,2351,0,5
1778660435.642095,2366,0,5
1778660435.646741,1830,0,5
1778660435.647093,1847,0,5
1778660435.6495879,2010,0,5
1778660435.649653,2329,0,5
1778660435.6522582,2190,0,5
1778660435.653594,1958,0,5
1778660435.6618571,1939,0,5
1778660435.664001,2212,0,5
1778660435.665023,2064,0,5
1778660435.666053,1986,0,5
1778660435.6689122,1627,0,5
1778660435.672051,1730,0,5
1778660435.672231,1666,0,5
1778660435.672884,1700,0,5
1778660435.675097,2302,0,5
1778660435.675395,2424,0,5
1778660435.67561,2004,0,5
1778660435.678256,1494,0,5
1778660435.679605,2019,0,5
1778660435.68221,2749,0,5
1778660435.6835442,2520,0,5
1778660435.686294,1997,0,5
1778660435.692469,1939,0,5
1778660435.6951182,2028,0,5
1778660435.6954901,2130,0,5
1778660435.697121,2014,0,5
1778660435.698546,1868,0,5
1778660435.700272,1677,0,5
1778660435.70256,1725,0,5
1778660435.7028039,1842,0,5
1778660435.705803,1864,0,5
1778660435.706112,1430,0,5
1778660435.708742,2069,0,5
1778660435.710081,2486,0,5
1778660435.711416,2198,0,5
1778660435.718412,1871,0,5
1778660435.719004,1924,0,5
1778660435.721308,1963,0,5
1778660435.721497,1538,0,5
1778660435.721708,1236,0,5
1778660435.728122,1549,0,5
1778660435.731211,2622,0,5
1778660435.731467,2444,0,5
1778660435.731904,1763,0,5
1778660435.732034,1653,0,5
1778660435.734505,1587,0,5
1778660435.735857,2334,0,5
1778660435.738556,2184,0,5
1778660435.7399528,2278,0,5
1778660435.742485,2195,0,5
1778660435.743867,1895,0,5
1778660435.751285,1622,0,5
1778660435.75202,1385,0,5
1778660435.752676,1430,0,5
1778660435.7551308,1636,0,5
1778660435.757914,1986,0,5
1778660435.758621,1888,0,5
1778660435.758864,2573,0,5
1778660435.762795,2522,0,5
1778660435.763038,2244,0,5
1778660435.765978,2095,0,5
1778660435.7662988,1643,0,5
1778660435.769048,2416,0,5
1778660435.7704031,2605,0,5
1778660435.771749,2330,0,5
1778660435.779826,2093,0,5
1778660435.7804632,1945,0,5
1778660435.782048,1834,0,5
1778660435.7822452,1919,0,5
1778660435.785735,2109,0,5
1778660435.7873778,2316,0,5
1778660435.787509,2143,0,5
1778660435.7897441,1872,0,5
1778660435.78991,1956,0,5
1778660435.793065,2178,0,5
1778660435.7950568,2038,0,5
1778660435.796406,1592,0,5
1778660435.7977479,1772,0,5
1778660435.800351,2484,0,5
1778660435.8016908,2523,0,5
1778660435.804298,2216,0,5
1778660435.805639,2141,0,5
1778660435.8122199,2298,0,5
1778660435.8128488,2271,0,5
1778660435.8134232,2226,0,5
1778660435.8154628,2038,0,5
1778660435.815661,2269,0,5
1778660435.8191721,2147,0,5
1778660435.822142,1917,0,5
1778660435.825102,1938,0,5
1778660435.825372,2164,0,5
1778660435.825578,2209,0,5
1778660435.8280509,2103,0,5
1778660435.829418,2041,0,5
1778660435.832101,2209,0,5
1778660435.838986,2242,0,5
1778660435.840249,1971,0,5
1778660435.842437,1966,0,5
1778660435.8426502,2087,0,5
1778660435.844784,2333,0,5
1778660435.845796,2320,0,5
1778660435.846472,2317,0,5
1778660435.850007,2269,0,5
1778660435.850252,2235,0,5
1778660435.853573,2041,0,5
1778660435.855815,2020,0,5
1778660435.8566248,2001,0,5
1778660435.85802,2185,0,5
1778660435.859343,2094,0,5
1778660435.8619149,2393,0,5
1778660435.866338,2334,0,5
1778660435.866684,2144,0,5
1778660435.86801,2111,0,5
1778660435.873541,2232,0,5
1778660435.8745542,2351,0,5
1778660435.874648,2423,0,5
1778660435.8769422,2396,0,5
1778660435.879084,2271,0,5
1778660435.881118,2169,0,5
1778660435.885932,2109,0,5
1778660435.8860722,2127,0,5
1778660435.886314,1995,0,5
1778660435.888672,2145,0,5
1778660435.890021,2290,0,5
1778660435.892376,2377,0,5
1778660435.8979998,2173,0,5
1778660435.898499,2154,0,5
1778660435.898623,2003,0,5
1778660435.901259,2152,0,5
1778660435.901431,2073,0,5
1778660435.9054122,1996,0,5
1778660435.906157,2214,0,5
1778660435.911148,2338,0,5
1778660435.9114509,2284,0,5
1778660435.9117582,2258,0,5
1778660435.914457,2180,0,5
1778660435.915884,2244,0,5
1778660435.917349,2138,0,5
1778660435.919884,2105,0,5
1778660435.9213839,2169,0,5
1778660435.923989,2364,0,5
1778660435.925405,2448,0,5
1778660435.9324281,2273,0,5
1778660435.932617,2153,0,5
1778660435.9332218,2100,0,5
1778660435.935113,2251,0,5
1778660435.938157,2121,0,5
1778660435.9401002,2138,0,5
1778660435.9424472,2221,0,5
1778660435.9456398,2366,0,5
1778660435.9458728,2188,0,5
1778660435.946243,2175,0,5
1778660435.948619,2186,0,5
1778660435.950173,2145,0,5
1778660435.951562,2138,0,5
1778660435.9541419,1948,0,5
1778660435.960851,2186,0,5
1778660435.961592,2407,0,5
1778660435.965547,2329,0,5
1778660435.9675038,2197,0,5
1778660435.972987,2031,0,5
1778660435.97542,2137,0,5
1778660435.975562,2119,0,5
1778660435.975682,2009,0,5
1778660435.975747,2129,0,5
1778660435.975826,2213,0,5
1778660435.975899,2307,0,5
1778660435.977501,2111,0,5
1778660435.980125,2065,0,5
1778660435.981507,2196,0,5
1778660435.9840798,2235,0,5
1778660435.9854689,2168,0,5
1778660435.993969,2097,0,5
1778660435.9954739,2330,0,5
1778660435.995691,2538,0,5
1778660435.996073,2301,0,5
1778660435.998162,2100,0,5
1778660435.9993181,2097,0,5
1778660436.0003169,2193,0,5
1778660436.006078,2088,0,5
1778660436.006239,2072,0,5
1778660436.006408,2187,0,5
1778660436.011534,2317,0,5
1778660436.011573,2247,0,5
1778660436.0117602,1978,0,5
1778660436.0144372,2088,0,5
1778660436.015829,2257,0,5
1778660436.022662,2106,0,5
1778660436.023733,1913,0,5
1778660436.023793,2020,0,5
1778660436.0254521,2212,0,5
1778660436.0275211,2351,0,5
1778660436.030166,2267,0,5
1778660436.03251,2039,0,5
1778660436.035434,2180,0,5
1778660436.036085,2276,0,5
1778660436.036431,2247,0,5
1778660436.03861,1948,0,5
1778660436.039964,2086,0,5
1778660436.04146,2313,0,5
1778660436.044283,2312,0,5
1778660436.045683,2225,0,5
1778660436.048352,2119,0,5
1778660436.0494819,2136,0,5
1778660436.058851,2093,0,5
1778660436.063537,2123,0,5
1778660436.068759,2209,0,5
1778660436.069238,2354,0,5
1778660436.069516,2157,0,5
1778660436.073633,2178,0,5
1778660436.073676,2187,0,5
1778660436.073837,2290,0,5
1778660436.073952,2053,0,5
1778660436.074021,1953,0,5
1778660436.0741389,2030,0,5
1778660436.0745192,2325,0,5
1778660436.076111,2463,0,5
1778660436.081713,2192,0,5
1778660436.084516,2176,0,5
1778660436.084768,2172,0,5
1778660436.086407,2218,0,5
1778660436.086941,2186,0,5
1778660436.089376,2074,0,5
1778660436.094223,2267,0,5
1778660436.094692,2354,0,5
1778660436.0948968,2183,0,5
1778660436.09731,2196,0,5
1778660436.097607,2294,0,5
1778660436.100262,2069,0,5
1778660436.1016588,1956,0,5
1778660436.104316,2130,0,5
1778660436.105696,2139,0,5
1778660436.113549,2184,0,5
1778660436.113695,2315,0,5
1778660436.115247,2313,0,5
1778660436.1173701,2177,0,5
1778660436.117811,2169,0,5
1778660436.1200929,2156,0,5
1778660436.121066,2087,0,5
1778660436.122754,2100,0,5
1778660436.1245341,2405,0,5
1778660436.127558,2452,0,5
1778660436.1278322,2093,0,5
1778660436.1301801,1957,0,5
1778660436.131522,1947,0,5
1778660436.134191,2098,0,5
1778660436.1385002,2149,0,5
1778660436.139864,2155,0,5
1778660436.140306,2370,0,5
1778660436.141946,2549,0,5
1778660436.144536,2120,0,5
1778660436.145909,2142,0,5
1778660436.1477902,1897,0,5
1778660436.150534,1960,0,5
1778660436.152373,1984,0,5
1778660436.1536808,1872,0,5
1778660436.156244,1860,0,5
1778660436.1575491,2007,0,5
1778660436.160107,2308,0,5
1778660436.161397,2329,0,5
1778660436.169127,2038,0,5
1778660436.1714911,2107,0,5
1778660436.171985,2065,0,5
1778660436.1741261,2042,0,5
1778660436.174597,2158,0,5
1778660436.1747231,2108,0,5
1778660436.176264,2262,0,5
1778660436.178124,2293,0,5
1778660436.180883,2082,0,5
1778660436.183127,2182,0,5
1778660436.184454,2108,0,5
1778660436.185777,1818,0,5
1778660436.1922472,2156,0,5
1778660436.192698,2095,0,5
1778660436.1931672,2129,0,5
1778660436.193978,2033,0,5
1778660436.1965902,1804,0,5
1778660436.198327,2033,0,5
1778660436.2007701,2289,0,5
1778660436.203295,2153,0,5
1778660436.2036538,1960,0,5
1778660436.205704,2292,0,5
1778660436.208289,2289,0,5
1778660436.2094002,2165,0,5
1778660436.212086,2107,0,5
1778660436.213383,2047,0,5
1778660436.2161138,2166,0,5
1778660436.220363,2043,0,5
1778660436.220546,2042,0,5
1778660436.223445,2239,0,5
1778660436.2236211,2147,0,5
1778660436.2256489,2115,0,5
1778660436.229192,2215,0,5
1778660436.229643,1972,0,5
1778660436.232337,2035,0,5
1778660436.234872,2108,0,5
1778660436.2362728,1935,0,5
1778660436.237607,1940,0,5
1778660436.244968,1996,0,5
1778660436.245472,2263,0,5
1778660436.247333,2340,0,5
1778660436.247482,2064,0,5
1778660436.2476091,1982,0,5
1778660436.251488,2139,0,5
1778660436.252414,1991,0,5
1778660436.256333,1982,0,5
1778660436.256656,2163,0,5
1778660436.2584052,2315,0,5
1778660436.259707,2225,0,5
1778660436.262262,2290,0,5
1778660436.263707,2210,0,5
1778660436.266261,1920,0,5
1778660436.267553,1948,0,5
1778660436.270145,1864,0,5
1778660436.275424,2094,0,5
1778660436.276273,2286,0,5
1778660436.277587,2371,0,5
1778660436.277747,2103,0,5
1778660436.280236,1823,0,5
1778660436.282105,1986,0,5
1778660436.286128,2237,0,5
1778660436.2864158,2108,0,5
1778660436.288618,1986,0,5
1778660436.289919,2092,0,5
1778660436.29121,2207,0,5
1778660436.2937632,2179,0,5
1778660436.298261,2011,0,5
1778660436.299107,2060,0,5
1778660436.2995808,2036,0,5
1778660436.3015091,2080,0,5
1778660436.304557,1873,0,5
1778660436.307065,1948,0,5
1778660436.309681,2205,0,5
1778660436.309817,2157,0,5
1778660436.311636,2153,0,5
1778660436.314259,2167,0,5
1778660436.315555,2221,0,5
1778660436.3181272,2116,0,5
1778660436.319479,1859,0,5
1778660436.322003,1923,0,5
1778660436.328068,2225,0,5
1778660436.329185,2369,0,5
1778660436.329769,2094,0,5
1778660436.3313348,1995,0,5
1778660436.331747,1917,0,5
1778660436.3342028,2118,0,5
1778660436.335745,2115,0,5
1778660436.3381178,2166,0,5
1778660436.341116,2234,0,5
1778660436.341583,2335,0,5
1778660436.3443048,2189,0,5
1778660436.345679,2114,0,5
1778660436.3482912,2076,0,5
1778660436.354707,2162,0,5
1778660436.35537,2070,0,5
1778660436.35727,1901,0,5
1778660436.3574898,1963,0,5
1778660436.35785,2118,0,5
1778660436.360002,2174,0,5
1778660436.361992,2043,0,5
1778660436.366677,1818,0,5
1778660436.36708,1968,0,5
1778660436.3673532,2190,0,5
1778660436.3697789,2145,0,5
1778660436.3712142,2001,0,5
1778660436.373843,1922,0,5
1778660436.375208,2234,0,5
1778660436.37788,2306,0,5
1778660436.3792262,2261,0,5
1778660436.387051,2149,0,5
1778660436.387302,1982,0,5
1778660436.387855,1937,0,5
1778660436.389219,1985,0,5
1778660436.3894699,2210,0,5
1778660436.392979,2402,0,5
1778660436.395276,2121,0,5
1778660436.398052,1982,0,5
1778660436.398405,1950,0,5
1778660436.4006982,2080,0,5
1778660436.402105,2014,0,5
1778660436.4034328,1860,0,5
1778660436.410862,2004,0,5
1778660436.411411,2159,0,5
1778660436.4124732,2279,0,5
1778660436.414005,2106,0,5
1778660436.4143429,1981,0,5
1778660436.41772,2033,0,5
1778660436.418762,2014,0,5
1778660436.4209778,1902,0,5
1778660436.4238248,1883,0,5
1778660436.4241889,2021,0,5
1778660436.426404,2152,0,5
1778660436.427708,2057,0,5
1778660436.4302678,1935,0,5
1778660436.4315689,1914,0,5
1778660436.434201,2012,0,5
1778660436.43567,1901,0,5
1778660436.4428082,1889,0,5
1778660436.443894,1982,0,5
1778660436.444072,2181,0,5
1778660436.445767,2052,0,5
1778660436.445948,1955,0,5
1778660436.447838,1894,0,5
1778660436.4522612,1967,0,5
1778660436.4548779,1954,0,5
1778660436.455105,1825,0,5
1778660436.455586,2004,0,5
1778660436.4577842,2137,0,5
1778660436.459172,2056,0,5
1778660436.461795,1970,0,5
1778660436.4676921,1905,0,5
1778660436.470089,1964,0,5
1778660436.4704971,1973,0,5
1778660436.470609,1895,0,5
1778660436.474674,1954,0,5
1778660436.475889,2109,0,5
1778660436.477803,2169,0,5
1778660436.48057,1991,0,5
1778660436.481042,1930,0,5
1778660436.481247,1862,0,5
1778660436.483881,1866,0,5
1778660436.485256,1846,0,5
1778660436.4878871,2136,0,5
1778660436.489246,2031,0,5
1778660436.49171,2158,0,5
1778660436.5003572,2252,0,5
1778660436.502618,2013,0,5
1778660436.505196,1997,0,5
1778660436.506305,2052,0,5
1778660436.5078988,2061,0,5
1778660436.508513,1918,0,5
1778660436.510435,1888,0,5
1778660436.513482,2020,0,5
1778660436.513914,2125,0,5
1778660436.514128,2096,0,5
1778660436.514346,1979,0,5
1778660436.516293,2059,0,5
1778660436.5176399,2260,0,5
1778660436.520233,1996,0,5
1778660436.527545,1953,0,5
1778660436.529208,2310,0,5
1778660436.529425,2450,0,5
1778660436.532406,2283,0,5
1778660436.532982,2201,0,5
1778660436.533531,2196,0,5
1778660436.534013,2281,0,5
1778660436.536046,2166,0,5
1778660436.538827,2052,0,5
1778660436.541344,2106,0,5
1778660436.541485,2210,0,5
1778660436.5441658,2173,0,5
1778660436.545516,2145,0,5
1778660436.548157,2064,0,5
1778660436.549322,2201,0,5
1778660436.5520158,2055,0,5
1778660436.557973,2049,0,5
1778660436.558917,2261,0,5
1778660436.560946,2323,0,5
1778660436.561205,2317,0,5
1778660436.5641248,2157,0,5
1778660436.565556,2002,0,5
1778660436.566148,1954,0,5
1778660436.571126,1982,0,5
1778660436.5713952,1872,0,5
1778660436.571658,1904,0,5
1778660436.5739899,2095,0,5
1778660436.5753422,2261,0,5
1778660436.5779781,2084,0,5
1778660436.582981,1974,0,5
1778660436.584061,2005,0,5
1778660436.584563,2164,0,5
1778660436.586623,1921,0,5
1778660436.588814,1973,0,5
1778660436.5904262,1927,0,5
1778660436.5929139,2128,0,5
1778660436.59809,1998,0,5
1778660436.59813,1986,0,5
1778660436.59821,2024,0,5
1778660436.599586,2013,0,5
1778660436.6023521,1984,0,5
1778660436.6036549,1856,0,5
1778660436.605102,1837,0,5
1778660436.607245,1994,0,5
1778660436.614225,2293,0,5
1778660436.6159842,1953,0,5
1778660436.6182568,2081,0,5
1778660436.619242,1880,0,5
1778660436.621248,1933,0,5
1778660436.621421,1852,0,5
1778660436.623241,1935,0,5
1778660436.623363,2072,0,5
1778660436.626543,2196,0,5
1778660436.629199,1943,0,5
1778660436.629302,2023,0,5
1778660436.6319082,1875,0,5
1778660436.6332989,1741,0,5
1778660436.637868,1707,0,5
1778660436.638853,1968,0,5
1778660436.6410508,2047,0,5
1778660436.641143,2048,0,5
1778660436.644758,2070,0,5
1778660436.64681,1937,0,5
1778660436.649256,1848,0,5
1778660436.649614,1920,0,5
1778660436.651863,1890,0,5
1778660436.653249,1799,0,5
1778660436.6559758,1899,0,5
1778660436.6573582,1995,0,5
1778660436.659971,2056,0,5
1778660436.661362,2017,0,5
1778660436.668268,1905,0,5
1778660436.66926,1918,0,5
1778660436.671615,2016,0,5
1778660436.671829,1901,0,5
1778660436.673601,1820,0,5
1778660436.673712,1992,0,5
1778660436.676076,2137,0,5
1778660436.68044,1966,0,5
1778660436.680532,1800,0,5
1778660436.682928,1966,0,5
1778660436.6842518,1972,0,5
1778660436.6855528,1929,0,5
1778660436.6915169,1817,0,5
1778660436.692374,1910,0,5
1778660436.69311,2065,0,5
1778660436.6947122,2112,0,5
1778660436.696286,2060,0,5
1778660436.6980531,2018,0,5
1778660436.7002702,1857,0,5
1778660436.702689,1918,0,5
1778660436.7048562,1722,0,5
1778660436.706162,1786,0,5
1778660436.707467,1946,0,5
1778660436.710025,2231,0,5
1778660436.711319,1944,0,5
1778660436.71387,1671,0,5
1778660436.7151601,1935,0,5
1778660436.7198641,2132,0,5
1778660436.72033,1802,0,5
1778660436.7217228,1678,0,5
1778660436.7249322,1979,0,5
1778660436.726327,2261,0,5
1778660436.72853,1837,0,5
1778660436.730867,1693,0,5
1778660436.733154,1765,0,5
1778660436.733233,1906,0,5
1778660436.735801,1709,0,5
1778660436.737094,1563,0,5
1778660436.7425668,1837,0,5
1778660436.742958,1837,0,5
1778660436.743445,1958,0,5
1778660436.745301,1955,0,5
1778660436.748864,1710,0,5
1778660436.751033,1894,0,5
1778660436.75121,1949,0,5
1778660436.753676,1803,0,5
1778660436.75547,1952,0,5
1778660436.757968,2147,0,5
1778660436.7592661,2208,0,5
1778660436.761835,2038,0,5
1778660436.763131,1879,0,5
1778660436.765701,1894,0,5
1778660436.770375,1962,0,5
1778660436.7707798,1946,0,5
1778660436.7731142,1882,0,5
1778660436.7733068,1963,0,5
1778660436.7766159,2132,0,5
1778660436.778593,2147,0,5
1778660436.78077,1987,0,5
1778660436.7828548,1967,0,5
1778660436.784223,2039,0,5
1778660436.785516,1903,0,5
1778660436.791471,1842,0,5
1778660436.7923079,2020,0,5
1778660436.793911,2275,0,5
1778660436.7941172,2176,0,5
1778660436.795907,2065,0,5
1778660436.797547,1954,0,5
1778660436.79938,1892,0,5
1778660436.801453,1848,0,5
1778660436.803154,1842,0,5
1778660436.805724,1911,0,5
1778660436.807012,2079,0,5
1778660436.809459,2129,0,5
1778660436.812016,1935,0,5
1778660436.816288,1886,0,5
1778660436.8167539,1916,0,5
1778660436.8192298,2075,0,5
1778660436.8194299,1870,0,5
1778660436.8216288,1875,0,5
1778660436.824499,2073,0,5
1778660436.8266702,2212,0,5
1778660436.8283782,2067,0,5
1778660436.8296802,1952,0,5
1778660436.832258,1926,0,5
1778660436.833558,2067,0,5
1778660436.83611,1910,0,5
1778660436.837402,1893,0,5
1778660436.842365,2073,0,5
1778660436.8428009,2172,0,5
1778660436.844924,2054,0,5
1778660436.845024,1919,0,5
1778660436.8479931,1923,0,5
1778660436.852113,2002,0,5
1778660436.8525078,2043,0,5
1778660436.854653,1887,0,5
1778660436.85609,1928,0,5
1778660436.857392,2080,0,5
1778660436.859949,2207,0,5
1778660436.861255,2065,0,5
1778660436.864001,2027,0,5
1778660436.868313,1921,0,5
1778660436.869548,1990,0,5
1778660436.870697,1892,0,5
1778660436.872586,1899,0,5
1778660436.8744261,2047,0,5
1778660436.875854,2205,0,5
1778660436.877943,2078,0,5
1778660436.8796742,1981,0,5
1778660436.8823922,1955,0,5
1778660436.8836842,2028,0,5
1778660436.886143,2000,0,5
1778660436.887438,1863,0,5
1778660436.8938298,2041,0,5
1778660436.894242,2210,0,5
1778660436.8950279,2148,0,5
1778660436.895155,2028,0,5
1778660436.898149,1958,0,5
1778660436.90006,2018,0,5
1778660436.901495,2016,0,5
1778660436.9061089,1885,0,5
1778660436.906198,1952,0,5
1778660436.907417,2113,0,5
1778660436.91007,2182,0,5
1778660436.914517,2049,0,5
1778660436.9150121,1944,0,5
1778660436.915821,1978,0,5
1778660436.917444,2019,0,5
1778660436.9204512,1866,0,5
1778660436.92239,1887,0,5
1778660436.9244108,2018,0,5
1778660436.9260092,2124,0,5
1778660436.927304,2144,0,5
1778660436.9298508,2077,0,5
1778660436.9311721,1993,0,5
1778660436.933721,2020,0,5
1778660436.935211,1934,0,5
1778660436.9392052,1879,0,5
1778660436.9393091,2053,0,5
1778660436.941308,2230,0,5
1778660436.9445498,2095,0,5
1778660436.948132,1968,0,5
1778660436.948204,1961,0,5
1778660436.9501472,1973,0,5
1778660436.9514508,2000,0,5
1778660436.9540029,1910,0,5
1778660436.955296,1970,0,5
1778660436.957866,2109,0,5
1778660436.959158,2233,0,5
1778660436.963753,2031,0,5
1778660436.964121,1986,0,5
1778660436.965586,1955,0,5
1778660436.968545,2022,0,5
1778660436.9704351,1930,0,5
1778660436.972401,1872,0,5
1778660436.974307,2036,0,5
1778660436.975599,2183,0,5
1778660436.97696,2012,0,5
1778660436.9795148,1920,0,5
1778660436.982065,1919,0,5
1778660436.9833531,1994,0,5
1778660436.988106,2055,0,5
1778660436.988501,2006,0,5
1778660436.990525,2075,0,5
1778660436.992009,2277,0,5
1778660436.993841,2002,0,5
1778660436.9954612,1915,0,5
1778660436.997385,1967,0,5
1778660436.998967,1670,0,5
1778660437.0015192,1660,0,5
1778660437.004093,1943,0,5
1778660437.005379,2214,0,5
1778660437.007923,2116,0,5
1778660437.009208,2254,0,5
1778660437.010993,2254,0,5
1778660437.013827,1847,0,5
1778660437.016033,1997,0,5
1778660437.017658,2197,0,5
1778660437.019508,1906,0,5
1778660437.024597,1918,0,5
1778660437.024765,1867,0,5
1778660437.026056,2200,0,5
1778660437.027342,2358,0,5
1778660437.029902,2185,0,5
1778660437.0312,2081,0,5
1778660437.033665,1811,0,5
1778660437.039638,1980,0,5
1778660437.0408719,2060,0,5
1778660437.040946,2073,0,5
1778660437.041638,2151,0,5
1778660437.043426,2092,0,5
1778660437.046709,2020,0,5
1778660437.048262,2038,0,5
1778660437.049568,2063,0,5
1778660437.050978,2043,0,5
1778660437.053538,1831,0,5
1778660437.056124,1711,0,5
1778660437.0574121,1987,0,5
1778660437.0622249,2155,0,5
1778660437.062633,2010,0,5
1778660437.064481,1920,0,5
1778660437.065965,1945,0,5
1778660437.067789,2080,0,5
1778660437.069398,1951,0,5
1778660437.071316,1818,0,5
1778660437.074071,1960,0,5
1778660437.0753632,2113,0,5
1778660437.077919,1962,0,5
1778660437.079206,1941,0,5
1778660437.081751,1855,0,5
1778660437.086375,1972,0,5
1778660437.086758,1987,0,5
1778660437.088547,1991,0,5
1778660437.08988,2122,0,5
1778660437.091582,2229,0,5
1778660437.093135,2128,0,5
1778660437.095094,2008,0,5
1778660437.097873,1930,0,5
1778660437.099169,2062,0,5
1778660437.101724,2019,0,5
1778660437.103013,1866,0,5
1778660437.105653,1773,0,5
1778660437.109914,1906,0,5
1778660437.110275,2209,0,5
1778660437.113236,2036,0,5
1778660437.113685,1984,0,5
1778660437.1160011,2031,0,5
1778660437.118072,2121,0,5
1778660437.119921,1874,0,5
1778660437.1212149,1959,0,5
1778660437.123768,2125,0,5
1778660437.1250591,2098,0,5
1778660437.127386,2113,0,5
1778660437.1320379,2025,0,5
1778660437.132438,1960,0,5
1778660437.134144,1995,0,5
1778660437.1360729,1847,0,5
1778660437.13871,1810,0,5
1778660437.140657,1998,0,5
1778660437.14215,2172,0,5
1778660437.1434429,2266,0,5
1778660437.14599,1979,0,5
1778660437.147288,1886,0,5
1778660437.1498399,2058,0,5
1778660437.151181,2156,0,5
1778660437.155514,1933,0,5
1778660437.155576,1941,0,5
