timestamp,ch1,ch2,label
1779265407.400542,2012,2007,9
1779265407.4014552,2124,1679,9
1779265407.406111,2200,1521,9
1779265407.40681,2099,1968,9
1779265407.411188,2035,2209,9
1779265407.412831,2032,2153,9
1779265407.413684,2066,1986,9
1779265407.416996,2011,2339,9
1779265407.4176269,2000,2180,9
1779265407.418209,2094,1852,9
1779265407.4209778,2207,1408,9
1779265407.422066,2161,1830,9
1779265407.4221618,2066,2145,9
1779265407.424812,2011,2212,9
1779265407.426259,2076,1966,9
1779265407.427735,2054,2188,9
1779265407.4304461,1995,2239,9
1779265407.431822,2043,1942,9
1779265407.4342542,2154,1483,9
1779265407.443393,2166,1629,9
1779265407.448755,2074,2013,9
1779265407.453724,2007,2254,9
1779265407.4575412,2050,2031,9
1779265407.457742,2078,2095,9
1779265407.457823,2028,2313,9
1779265407.4579022,2011,2006,9
1779265407.457973,2121,1621,9
1779265407.4580421,2193,1501,9
1779265407.458111,2104,1962,9
1779265407.458184,2050,2176,9
1779265407.458293,2033,2096,9
1779265407.460563,2095,1936,9
1779265407.461941,2036,2339,9
1779265407.465268,1998,2170,9
1779265407.466784,2080,1860,9
1779265407.468161,2187,1411,9
1779265407.4803982,2168,1791,9
1779265407.490701,2060,2145,9
1779265407.490989,2018,2155,9
1779265407.491075,2075,1912,9
1779265407.491581,2077,2175,9
1779265407.491647,2017,2261,9
1779265407.491701,2037,1920,9
1779265407.49175,2153,1537,9
1779265407.491799,2190,1678,9
1779265407.4918458,2074,2101,9
1779265407.491894,2042,2288,9
1779265407.4919412,2066,2101,9
1779265407.494622,2079,2116,9
1779265407.500753,2023,2303,9
1779265407.5030148,2026,2053,9
1779265407.508399,2112,1655,9
1779265407.5119061,2198,1449,9
1779265407.514124,2108,1931,9
1779265407.514358,2048,2190,9
1779265407.515123,2035,2129,9
1779265407.518602,2091,1912,9
1779265407.51883,2040,2310,9
1779265407.51891,2011,2167,9
1779265407.5189812,2089,1849,9
1779265407.519082,2214,1378,9
1779265407.520448,2162,1776,9
1779265407.521892,2075,2109,9
1779265407.524689,2027,2146,9
1779265407.526219,2098,1870,9
1779265407.527741,2061,2178,9
1779265407.530331,2028,2278,9
1779265407.54068,2030,1947,9
1779265407.545511,2157,1552,9
1779265407.5494242,2173,1665,9
1779265407.551701,2114,2066,9
1779265407.5519402,2056,2260,9
1779265407.55263,2064,2025,9
1779265407.553111,2066,2081,9
1779265407.553432,2002,2307,9
1779265407.556841,2032,2047,9
1779265407.556963,2110,1632,9
1779265407.557044,2196,1451,9
1779265407.5571148,2118,1922,9
1779265407.557183,2028,2142,9
1779265407.558617,2035,2052,9
1779265407.560107,2092,1896,9
1779265407.569047,2026,2328,9
1779265407.5724669,1987,2164,9
1779265407.574686,2095,1924,9
1779265407.575671,2217,1500,9
1779265407.577101,2152,1825,9
1779265407.581387,2064,2225,9
1779265407.5849211,2054,2244,9
1779265407.585023,2083,2009,9
1779265407.5851011,2056,2222,9
1779265407.585278,2012,2298,9
1779265407.58541,2058,1977,9
1779265407.585613,2165,1653,9
1779265407.585738,2207,1668,9
1779265407.5884118,2108,2056,9
1779265407.5898829,2039,2302,9
1779265407.592432,2072,2144,9
1779265407.594069,2086,2165,9
1779265407.595613,2030,2313,9
1779265407.605814,2017,2107,9
1779265407.6118588,2123,1751,9
1779265407.616744,2227,1509,9
1779265407.6171331,2116,1966,9
1779265407.620266,2048,2210,9
1779265407.621363,2050,2206,9
1779265407.621427,2102,1964,9
1779265407.6214771,2034,2373,9
1779265407.621526,2007,2193,9
1779265407.621585,2086,1929,9
1779265407.621632,2187,1436,9
1779265407.621682,2187,1807,9
1779265407.621728,2077,2214,9
1779265407.624376,2043,2258,9
1779265407.626016,2080,1993,9
1779265407.6339278,2067,2207,9
1779265407.63678,2013,2332,9
1779265407.639364,2031,1985,9
1779265407.640857,2164,1601,9
1779265407.643438,2198,1606,9
1779265407.645866,2089,2024,9
1779265407.648747,2037,2220,9
1779265407.6498728,2093,1998,9
1779265407.650008,2098,2078,9
1779265407.650152,1998,2313,9
1779265407.650228,2017,2132,9
1779265407.650322,2115,1764,9
1779265407.651783,2191,1535,9
1779265407.654604,2130,1983,9
1779265407.656121,2035,2248,9
1779265407.6578119,2053,2265,9
1779265407.660728,2059,2099,9
1779265407.6625779,2042,2427,9
1779265407.6700668,2011,2235,9
1779265407.672858,2059,2026,9
1779265407.673322,2187,1527,9
1779265407.6790001,2166,1785,9
1779265407.681918,2063,2160,9
1779265407.682514,2016,2280,9
1779265407.682923,2066,2047,9
1779265407.6858602,2066,2258,9
1779265407.6864462,1983,2321,9
1779265407.686603,2040,2002,9
1779265407.68666,2147,1632,9
1779265407.686851,2195,1655,9
1779265407.688564,2099,2099,9
1779265407.689861,2005,2344,9
1779265407.697412,2051,2094,9
1779265407.699658,2067,2081,9
1779265407.7039502,1998,2349,9
1779265407.704921,2006,2151,9
1779265407.706327,2108,1780,9
1779265407.7106051,2207,1452,9
1779265407.711213,2168,1896,9
1779265407.711645,2052,2224,9
1779265407.715581,2041,2158,9
1779265407.716235,2094,1979,9
1779265407.716419,2065,2414,9
1779265407.716775,2025,2212,9
1779265407.71694,2112,1970,9
1779265407.718465,2212,1459,9
1779265407.719881,2176,1759,9
1779265407.7227678,2068,2145,9
1779265407.724159,2048,2210,9
1779265407.725618,2094,1956,9
1779265407.7375512,2084,2171,9
1779265407.738048,2031,2280,9
1779265407.742004,2065,1930,9
1779265407.746506,2158,1607,9
1779265407.7471051,2184,1638,9
1779265407.7504709,2102,2110,9
1779265407.7508008,2025,2331,9
1779265407.7509608,2047,2118,9
1779265407.751056,2081,2120,9
1779265407.751111,2011,2338,9
1779265407.7512178,1999,2175,9
1779265407.751267,2114,1853,9
1779265407.752606,2197,1541,9
1779265407.754046,2133,1998,9
1779265407.762748,2053,2230,9
1779265407.7657979,2056,2216,9
1779265407.769143,2076,2031,9
1779265407.7707891,2053,2449,9
1779265407.772865,2005,2209,9
1779265407.775848,2075,1954,9
1779265407.776333,2185,1479,9
1779265407.77683,2181,1798,9
1779265407.780169,2050,2195,9
1779265407.780312,2023,2305,9
1779265407.780436,2061,2028,9
1779265407.780533,2067,2184,9
1779265407.780617,2010,2333,9
1779265407.782021,2029,1977,9
1779265407.784714,2145,1651,9
1779265407.786089,2195,1623,9
1779265407.788778,2083,2090,9
1779265407.790208,2033,2275,9
1779265407.791632,2039,2076,9
1779265407.8011289,2093,2032,9
1779265407.804,2025,2323,9
1779265407.8067358,1991,2150,9
1779265407.810841,2122,1730,9
1779265407.814395,2198,1443,9
1779265407.814937,2142,1934,9
1779265407.815207,2045,2190,9
1779265407.818343,2025,2144,9
1779265407.818718,2090,1964,9
1779265407.81887,2044,2361,9
1779265407.818937,1996,2196,9
1779265407.8189912,2068,1937,9
1779265407.8191109,2185,1430,9
1779265407.8204858,2161,1743,9
1779265407.8219168,2056,2180,9
1779265407.8307142,2011,2271,9
1779265407.834336,2053,2003,9
1779265407.834791,2080,2174,9
1779265407.8349261,2013,2337,9
1779265407.84366,2018,1937,9
1779265407.844516,2129,1609,9
1779265407.8481128,2183,1596,9
1779265407.8483012,2098,2055,9
1779265407.848385,2040,2278,9
1779265407.848487,2042,2090,9
1779265407.8485749,2078,2040,9
1779265407.8486478,2030,2368,9
1779265407.8487182,1994,2185,9
1779265407.850123,2099,1805,9
1779265407.8516212,2193,1454,9
1779265407.854439,2130,1932,9
1779265407.8558168,2043,2185,9
1779265407.858557,2035,2204,9
1779265407.859936,2064,1998,9
1779265407.866803,2044,2322,9
1779265407.870412,1979,2215,9
1779265407.8709671,2043,2009,9
1779265407.876352,2161,1509,9
1779265407.883105,2162,1725,9
1779265407.883262,2058,2124,9
1779265407.883344,1992,2249,9
1779265407.883446,2039,1939,9
1779265407.883563,2041,2157,9
1779265407.8836758,1990,2325,9
1779265407.883787,2011,1937,9
1779265407.8839061,2138,1615,9
1779265407.886716,2194,1578,9
1779265407.8883479,2092,2024,9
1779265407.8979368,1993,2205,9
1779265407.9009962,2039,2090,9
1779265407.9082198,2069,2042,9
1779265407.908853,2033,2312,9
1779265407.908936,2006,2163,9
1779265407.9090219,2096,1770,9
1779265407.909085,2204,1444,9
1779265407.909146,2141,1902,9
1779265407.909245,2052,2155,9
1779265407.912479,2033,2133,9
1779265407.912837,2095,1930,9
1779265407.912928,2048,2288,9
1779265407.914301,2000,2195,9
1779265407.91567,2054,1941,9
1779265407.9184792,2187,1437,9
1779265407.919862,2189,1722,9
1779265407.922532,2062,2141,9
1779265407.923923,2050,2249,9
1779265407.9354482,2069,1987,9
1779265407.943994,2065,2170,9
1779265407.945142,1993,2342,9
1779265407.94808,2024,1923,9
1779265407.948537,2154,1616,9
1779265407.94867,2187,1526,9
1779265407.94879,2100,1986,9
1779265407.9488719,2041,2208,9
1779265407.94895,2047,2059,9
1779265407.949025,2090,2048,9
1779265407.949099,2019,2341,9
1779265407.9492009,2021,2157,9
1779265407.9506419,2093,1819,9
1779265407.9520571,2198,1477,9
1779265407.953502,2118,1955,9
1779265407.9603,2033,2234,9
1779265407.963378,2018,2234,9
1779265407.9691882,2060,1944,9
1779265407.975681,2026,2290,9
1779265407.975786,1999,2219,9
1779265407.975981,2062,1960,9
1779265407.976064,2165,1471,9
1779265407.976141,2174,1658,9
1779265407.976259,2066,2112,9
1779265407.9764328,2006,2248,9
1779265407.9764988,2055,2020,9
1779265407.977961,2066,2172,9
1779265407.9807072,2012,2340,9
1779265407.982157,2031,1925,9
1779265407.983532,2143,1644,9
1779265407.9862342,2193,1547,9
1779265407.987683,2108,2012,9
1779265407.9951968,2054,2244,9
1779265407.997726,2047,2115,9
1779265408.00354,2096,2028,9
1779265408.0075898,2039,2369,9
1779265408.011015,2005,2175,9
1779265408.011143,2078,1815,9
1779265408.0112362,2211,1477,9
1779265408.0113862,2146,1892,9
1779265408.01148,2050,2216,9
1779265408.011616,2025,2217,9
1779265408.011711,2093,1972,9
1779265408.011778,2057,2285,9
1779265408.014441,1996,2220,9
1779265408.015888,2067,1937,9
1779265408.0221188,2184,1476,9
1779265408.025974,2156,1769,9
1779265408.035191,2065,2149,9
1779265408.03596,2005,2298,9
1779265408.039055,2055,2008,9
1779265408.0395148,2071,2124,9
1779265408.0396988,1980,2342,9
1779265408.039785,2004,1953,9
1779265408.0398788,2111,1646,9
1779265408.0399868,2160,1550,9
1779265408.040064,2060,2017,9
1779265408.040131,2007,2222,9
1779265408.041505,2024,2142,9
1779265408.044169,2082,2026,9
1779265408.0456982,2007,2399,9
1779265408.048424,1974,2190,9
1779265408.049813,2090,1827,9
1779265408.064922,2186,1399,9
1779265408.072438,2113,1850,9
1779265408.075934,2038,2154,9
1779265408.076385,2002,2209,9
1779265408.0765922,2027,1994,9
1779265408.0767071,2023,2319,9
1779265408.076834,1954,2225,9
1779265408.07691,2003,1978,9
1779265408.076982,2154,1460,9
1779265408.077051,2157,1734,9
1779265408.077227,2066,2169,9
1779265408.077448,1993,2321,9
1779265408.0775402,2038,2007,9
1779265408.0776472,2040,2183,9
1779265408.080176,1975,2362,9
1779265408.081899,1990,2002,9
1779265408.089495,2120,1662,9
1779265408.0918431,2194,1570,9
1779265408.095258,2096,1982,9
1779265408.102655,2022,2177,9
1779265408.10583,2038,2047,9
1779265408.1059709,2093,1920,9
1779265408.106091,2035,2341,9
1779265408.106164,2015,2115,9
1779265408.1062322,2106,1808,9
1779265408.106299,2203,1418,9
1779265408.1064901,2137,1924,9
1779265408.106613,2063,2195,9
1779265408.107917,2013,2214,9
1779265408.11064,2088,1998,9
1779265408.112031,2049,2279,9
1779265408.114835,2003,2219,9
1779265408.116232,2056,1994,9
1779265408.117724,2180,1491,9
1779265408.127444,2183,1658,9
1779265408.129715,2074,2083,9
1779265408.133878,2028,2268,9
1779265408.142161,2054,2055,9
1779265408.142318,2052,2137,9
1779265408.142389,2021,2339,9
1779265408.142441,2025,1983,9
1779265408.1424918,2137,1691,9
1779265408.142546,2208,1521,9
1779265408.1425989,2115,2007,9
1779265408.1426501,2037,2230,9
1779265408.142702,2045,2128,9
1779265408.144089,2104,1979,9
1779265408.145592,2044,2397,9
1779265408.155259,2005,2167,9
1779265408.1575491,2107,1874,9
1779265408.1672451,2210,1444,9
1779265408.167837,2158,1872,9
1779265408.171438,2080,2187,9
1779265408.171864,2008,2211,9
1779265408.171953,2088,1964,9
1779265408.172031,2061,2219,9
1779265408.172106,2007,2214,9
1779265408.172226,2043,1948,9
1779265408.172402,2171,1430,9
1779265408.172512,2161,1622,9
1779265408.172595,2069,2079,9
1779265408.174159,2017,2257,9
1779265408.176599,2080,1982,9
1779265408.1780128,2083,2060,9
1779265408.179487,2006,2254,9
1779265408.182307,2029,1953,9
1779265408.1836932,2103,1652,9
1779265408.19372,2191,1533,9
1779265408.194456,2114,1992,9
1779265408.196331,2049,2214,9
1779265408.197703,2036,2099,9
1779265408.2059882,2080,2002,9
1779265408.206623,2022,2390,9
1779265408.209847,2023,2163,9
1779265408.210012,2101,1843,9
1779265408.210103,2215,1415,9
1779265408.2101882,2160,1871,9
1779265408.210315,2045,2172,9
1779265408.2104,2024,2207,9
1779265408.210471,2078,1963,9
1779265408.211862,2061,2251,9
1779265408.214541,1998,2267,9
1779265408.220944,2058,1998,9
1779265408.224376,2176,1528,9
1779265408.238088,2195,1687,9
1779265408.238274,2102,2065,9
1779265408.238411,2046,2272,9
1779265408.2384698,2086,1935,9
1779265408.238522,2084,2061,9
1779265408.238574,2016,2270,9
1779265408.238625,2031,2006,9
1779265408.2386749,2135,1689,9
1779265408.238726,2210,1483,9
1779265408.238776,2117,1939,9
1779265408.240417,2039,2174,9
1779265408.241811,2024,2148,9
1779265408.2445922,2090,1949,9
1779265408.246038,2039,2330,9
1779265408.2476668,1997,2142,9
1779265408.257044,2074,1822,9
1779265408.262448,2175,1396,9
1779265408.2639139,2140,1834,9
1779265408.271261,2059,2177,9
1779265408.2717938,1993,2233,9
1779265408.2756102,2079,1992,9
1779265408.275768,2034,2187,9
1779265408.2758882,1990,2237,9
1779265408.2760289,2050,1938,9
1779265408.276143,2152,1399,9
1779265408.276352,2167,1571,9
1779265408.276447,2059,2021,9
1779265408.276524,2035,2229,9
1779265408.276592,2065,1953,9
1779265408.278021,2091,2010,9
1779265408.279402,2017,2229,9
1779265408.290626,2014,1986,9
1779265408.2928472,2137,1620,9
1779265408.300718,2233,1474,9
1779265408.3020391,2121,1962,9
1779265408.305272,2027,2207,9
1779265408.305422,2024,2095,9
1779265408.3056152,2075,1896,9
1779265408.305693,2023,2317,9
1779265408.305846,2013,2171,9
1779265408.305994,2084,1774,9
1779265408.306082,2188,1367,9
1779265408.306201,2158,1786,9
1779265408.3063948,2070,2090,9
1779265408.307775,2046,2144,9
1779265408.310483,2087,1945,9
1779265408.3118951,2091,2140,9
1779265408.313416,2018,2238,9
1779265408.316104,2058,1903,9
1779265408.317951,2186,1429,9
1779265408.327513,2207,1593,9
1779265408.328177,2098,2026,9
1779265408.331017,2054,2225,9
1779265408.3400588,2064,1965,9
1779265408.343622,2103,2036,9
1779265408.343766,2041,2254,9
1779265408.3438458,2047,2035,9
1779265408.3439271,2182,1646,9
1779265408.344029,2223,1481,9
1779265408.34417,2142,1964,9
1779265408.3442829,2071,2167,9
1779265408.3445172,2072,2070,9
1779265408.344618,2107,1873,9
1779265408.345879,2039,2308,9
1779265408.348688,2023,2174,9
1779265408.3582232,2097,1797,9
1779265408.361635,2210,1366,9
1779265408.3641012,2178,1744,9
1779265408.369853,2071,2113,9
1779265408.370139,2052,2164,9
1779265408.370519,2091,1887,9
1779265408.371028,2081,2129,9
1779265408.373885,2024,2237,9
1779265408.3743622,2066,1844,9
1779265408.3744588,2192,1418,9
1779265408.374541,2206,1551,9
1779265408.3747761,2117,2026,9
1779265408.3748732,2041,2247,9
1779265408.376278,2085,1965,9
1779265408.37761,2127,1988,9
1779265408.380191,2046,2224,9
1779265408.382144,2059,2059,9
1779265408.3845491,2152,1638,9
1779265408.3858821,2246,1367,9
1779265408.3931148,2165,1838,9
1779265408.39612,2054,2087,9
1779265408.3964832,2063,2018,9
1779265408.3968241,2124,1850,9
1779265408.3994398,2070,2251,9
1779265408.401102,2016,2138,9
1779265408.403109,2122,1803,9
1779265408.4082618,2235,1333,9
1779265408.408739,2180,1736,9
1779265408.40898,2089,2089,9
1779265408.409336,2054,2153,9
1779265408.4097762,2104,1928,9
1779265408.412713,2099,2110,9
1779265408.4144719,2044,2215,9
1779265408.415831,2067,1872,9
1779265408.4238532,2185,1470,9
1779265408.427237,2224,1570,9
1779265408.427579,2114,2033,9
1779265408.4279838,2058,2252,9
1779265408.430486,2104,1965,9
1779265408.438509,2110,1980,9
1779265408.439103,2036,2223,9
1779265408.439408,2043,2029,9
1779265408.442572,2168,1625,9
1779265408.4427578,2242,1408,9
1779265408.4428842,2150,1949,9
1779265408.4429991,2065,2232,9
1779265408.443135,2075,2171,9
1779265408.44446,2120,1935,9
1779265408.4457788,2080,2308,9
1779265408.448403,2055,2174,9
1779265408.449738,2094,1793,9
1779265408.452255,2229,1304,9
1779265408.453577,2172,1654,9
1779265408.46031,2092,2045,9
1779265408.4620302,2056,2125,9
1779265408.4675531,2098,1905,9
1779265408.470508,2101,2131,9
1779265408.4760902,2045,2244,9
1779265408.476832,2060,1879,9
1779265408.479528,2208,1452,9
1779265408.479902,2227,1451,9
1779265408.479958,2121,1950,9
1779265408.4800582,2050,2205,9
1779265408.480148,2070,1960,9
1779265408.4803689,2114,1931,9
1779265408.4804668,2052,2202,9
1779265408.481845,2036,2071,9
1779265408.484481,2122,1673,9
1779265408.492577,2219,1455,9
1779265408.4943628,2164,1901,9
1779265408.494657,2101,2167,9
1779265408.497159,2068,2077,9
1779265408.505176,2122,1853,9
1779265408.505801,2070,2222,9
1779265408.506273,2032,2160,9
1779265408.506542,2110,1805,9
1779265408.508777,2221,1424,9
1779265408.509672,2210,1791,9
1779265408.509814,2083,2146,9
1779265408.5099242,2071,2156,9
1779265408.509974,2136,1856,9
1779265408.511714,2107,2072,9
1779265408.514335,2036,2255,9
1779265408.515857,2072,1876,9
1779265408.518353,2178,1460,9
1779265408.51967,2211,1562,9
1779265408.52245,2112,2044,9
1779265408.5291672,2054,2265,9
1779265408.535229,2077,2055,9
1779265408.537222,2087,2022,9
1779265408.5425391,2033,2262,9
1779265408.542866,2005,2105,9
1779265408.5430589,2151,1699,9
1779265408.543479,2254,1417,9
1779265408.547025,2151,1891,9
1779265408.547234,2049,2159,9
1779265408.547601,2064,2124,9
1779265408.547657,2128,1904,9
1779265408.5478258,2075,2253,9
1779265408.54791,2046,2184,9
1779265408.5494158,2099,1825,9
1779265408.552266,2219,1341,9
1779265408.5652852,2190,1677,9
1779265408.574208,2099,2090,9
1779265408.5750778,2061,2146,9
1779265408.57833,2100,1894,9
1779265408.5784278,2092,2099,9
1779265408.5785038,2028,2291,9
1779265408.578627,2070,1909,9
1779265408.578706,2188,1518,9
1779265408.578779,2216,1557,9
1779265408.579083,2114,2063,9
1779265408.579179,2044,2291,9
1779265408.579395,2061,2049,9
1779265408.579469,2102,1991,9
1779265408.579531,2056,2266,9
1779265408.582242,2058,2112,9
1779265408.5836768,2137,1641,9
1779265408.586483,2226,1416,9
1779265408.587874,2138,1911,9
1779265408.595802,2056,2108,9
1779265408.601179,2061,2101,9
1779265408.601799,2117,1906,9
1779265408.605273,2058,2275,9
1779265408.61301,2007,2180,9
1779265408.6136892,2079,1860,9
1779265408.6142788,2209,1444,9
1779265408.617622,2185,1740,9
1779265408.617722,2100,2153,9
1779265408.617897,2057,2240,9
1779265408.618011,2090,1937,9
1779265408.618449,2073,2095,9
1779265408.618504,2018,2303,9
1779265408.6185532,2055,1935,9
1779265408.6186008,2184,1618,9
1779265408.620022,2199,1609,9
1779265408.621495,2115,2043,9
1779265408.633216,2038,2232,9
1779265408.643738,2085,2032,9
1779265408.647079,2102,2000,9
1779265408.647428,2020,2271,9
1779265408.6475399,2030,2164,9
1779265408.647694,2144,1718,9
1779265408.6477818,2234,1483,9
1779265408.647986,2161,1983,9
1779265408.6481972,2043,2272,9
1779265408.6482718,2042,2170,9
1779265408.648455,2095,1938,9
1779265408.648515,2057,2297,9
1779265408.648662,2017,2241,9
1779265408.65018,2096,1971,9
1779265408.651726,2178,1470,9
1779265408.654367,2177,1679,9
1779265408.6556969,2070,2062,9
1779265408.6582808,2051,2242,9
1779265408.6596422,2095,1965,9
1779265408.667718,2093,2082,9
1779265408.6718662,2025,2289,9
1779265408.675898,2031,1885,9
1779265408.681516,2157,1563,9
1779265408.682256,2222,1592,9
1779265408.682357,2123,2031,9
1779265408.685473,2043,2254,9
1779265408.68558,2022,2119,9
1779265408.6856341,2085,2037,9
1779265408.685683,2059,2305,9
1779265408.6857321,2004,2189,9
1779265408.6857789,2117,1747,9
1779265408.685827,2217,1520,9
1779265408.687876,2151,1967,9
1779265408.689281,2065,2226,9
1779265408.696553,2033,2216,9
1779265408.703118,2133,2054,9
1779265408.7043872,2071,2348,9
1779265408.706336,2001,2245,9
1779265408.711642,2096,1957,9
1779265408.712076,2205,1536,9
1779265408.712586,2133,1764,9
1779265408.715798,2069,2155,9
1779265408.715935,1971,2215,9
1779265408.7160802,2058,2054,9
1779265408.716267,2026,2177,9
1779265408.71664,2004,2335,9
1779265408.716761,2035,1952,9
1779265408.71815,2170,1674,9
1779265408.7195368,2242,1654,9
1779265408.722232,2144,2041,9
1779265408.723556,2048,2307,9
1779265408.726169,2087,2105,9
1779265408.727618,2080,1993,9
1779265408.736256,1982,2389,9
1779265408.7420878,1977,2244,9
1779265408.7437801,2085,1853,9
1779265408.744055,2178,1525,9
1779265408.749273,2144,1983,9
1779265408.750056,2074,2319,9
1779265408.752738,2055,2310,9
1779265408.753021,2054,2031,9
1779265408.753151,2040,2301,9
1779265408.7532768,1992,2271,9
1779265408.753356,2117,2046,9
1779265408.7534301,2187,1685,9
1779265408.753511,2084,1872,9
1779265408.755991,1986,2286,9
1779265408.7573068,2023,2289,9
1779265408.766886,2117,2290,9
1779265408.767086,2146,2283,9
1779265408.767479,2002,2417,9
1779265408.7695382,2005,2071,9
1779265408.771269,2119,1749,9
1779265408.773422,2230,1950,9
1779265408.778791,2163,2348,9
1779265408.779192,2061,2509,9
1779265408.782208,2015,2483,9
1779265408.7823281,2055,2505,9
1779265408.7823849,2010,2618,9
1779265408.782466,2006,2373,9
1779265408.783784,2049,2375,9
1779265408.786368,2093,1984,9
1779265408.7876852,2020,2419,9
1779265408.790304,2017,2699,9
1779265408.7916448,1974,2753,9
1779265408.794517,2039,2577,9
1779265408.805614,2036,2968,9
1779265408.807283,1976,2435,9
1779265408.807957,2006,2551,9
1779265408.81816,2185,2268,9
1779265408.819058,2219,2303,9
1779265408.8191822,2141,2693,9
1779265408.819235,2063,2979,9
1779265408.819283,2167,2665,9
1779265408.8193312,2109,2994,9
1779265408.8193789,1835,2604,9
1779265408.8194501,1961,2527,9
1779265408.819499,2116,2526,9
1779265408.8195462,2252,2389,9
1779265408.822134,2075,2716,9
1779265408.8236742,1963,2875,9
1779265408.8304791,1981,2882,9
1779265408.835213,2027,2930,9
1779265408.836896,2079,2863,9
1779265408.839413,2092,2531,9
1779265408.844852,2136,2775,9
1779265408.845181,2127,2340,9
1779265408.845717,2137,2585,9
1779265408.848609,2060,2864,9
1779265408.848874,2011,3030,9
1779265408.849014,1946,2960,9
1779265408.849068,1934,3125,9
1779265408.8492658,1917,2582,9
1779265408.849398,2050,2785,9
1779265408.852129,2175,2509,9
1779265408.853448,2165,2468,9
1779265408.8560839,1933,2707,9
1779265408.857409,1881,2935,9
1779265408.859991,2006,2871,9
1779265408.868962,2053,3240,9
1779265408.870896,2066,2675,9
1779265408.871216,2062,2653,9
1779265408.873724,2140,2852,9
1779265408.876587,2199,2380,9
1779265408.876815,2067,2812,9
1779265408.882219,1959,2852,9
1779265408.882675,1963,2846,9
1779265408.883117,1995,3087,9
1779265408.88547,1984,2895,9
1779265408.8860989,2023,2579,9
1779265408.8863711,2008,2888,9
1779265408.886423,2108,2381,9
1779265408.88774,2152,2552,9
1779265408.8903208,2106,2754,9
1779265408.89167,2094,2891,9
1779265408.900197,2072,2947,9
1779265408.900664,2021,3134,9
1779265408.902923,1938,2575,9
1779265408.9042718,1960,2753,9
1779265408.904526,2149,2551,9
1779265408.906809,2071,2450,9
1779265408.9069922,1805,2645,9
1779265408.912548,1796,2899,9
1779265408.915643,1953,2712,9
1779265408.915756,2076,3279,9
1779265408.91581,2062,2661,9
1779265408.915942,2071,2617,9
1779265408.9172611,2125,2642,9
1779265408.9198442,2133,2267,9
1779265408.921171,2143,2475,9
1779265408.9238012,2095,2629,9
1779265408.926381,1979,2599,9
1779265408.9277608,1976,2871,9
1779265408.93486,1786,2821,9
1779265408.9371688,1848,2481,9
1779265408.937421,2028,2617,9
1779265408.939701,2165,2048,9
1779265408.940897,2123,2277,9
1779265408.9415958,1942,2405,9
1779265408.941747,1945,2543,9
1779265408.948558,2094,2497,9
1779265408.948968,2126,2949,9
1779265408.949342,2044,2418,9
1779265408.952501,1959,2479,9
1779265408.9525561,2003,2021,9
1779265408.953876,2143,1956,9
1779265408.955161,2095,2278,9
1779265408.957814,1835,2195,9
1779265408.964043,1880,2369,9
1779265408.968839,2111,2334,9
1779265408.9705029,1996,2492,9
1779265408.977878,1989,2334,9
1779265408.978087,2003,2162,9
1779265408.978574,2129,1818,9
1779265408.981919,2023,2335,9
1779265408.982044,1975,2470,9
1779265408.9822001,2038,2580,9
1779265408.9823182,2135,2428,9
1779265408.982472,2093,2681,9
1779265408.9825568,1967,2304,9
1779265408.984045,1894,2476,9
1779265408.985482,2055,1863,9
1779265408.98809,2088,2120,9
1779265408.989493,2107,2265,9
1779265409.002754,1967,2451,9
1779265409.004641,1962,2250,9
1779265409.0065951,1990,2389,9
1779265409.010457,1913,2319,9
1779265409.015816,2069,2138,9
1779265409.01651,2031,1537,9
1779265409.019109,1901,1595,9
1779265409.019259,1726,1822,9
1779265409.019496,1816,2153,9
1779265409.019545,2157,1776,9
1779265409.0196211,2242,2127,9
1779265409.0197299,1934,2253,9
1779265409.019837,1705,1917,9
1779265409.019959,1896,1705,9
1779265409.020063,2470,1109,9
1779265409.0214489,2523,2130,9
1779265409.024032,2178,2422,9
1779265409.029804,1967,2016,9
1779265409.033904,2030,2043,9
1779265409.036327,1959,2126,9
1779265409.0375009,1906,2190,9
1779265409.038274,2003,1971,9
1779265409.040193,2164,1256,9
1779265409.0457852,2261,1591,9
1779265409.048629,2066,1920,9
1779265409.048974,1966,1971,9
1779265409.0491378,1993,2068,9
1779265409.049259,2037,2165,9
1779265409.049356,1959,2169,9
1779265409.049408,1817,1813,9
1779265409.052023,2018,1468,9
1779265409.053362,2061,1663,9
1779265409.0562181,2054,1984,9
1779265409.0575712,1992,2224,9
1779265409.060085,1912,1492,9
1779265409.066866,1979,1690,9
1779265409.070292,2023,2263,9
1779265409.0707011,1875,2004,9
1779265409.073462,2072,1180,9
1779265409.074162,2271,1303,9
1779265409.076498,2128,1684,9
1779265409.081944,1989,1932,9
1779265409.082433,2055,2115,9
1779265409.0826292,2071,1813,9
1779265409.082995,2018,2370,9
1779265409.083221,1866,2063,9
1779265409.0860212,2119,1514,9
1779265409.086112,2265,955,9
1779265409.087434,2161,1612,9
1779265409.090015,1550,1981,9
1779265409.091466,1395,1854,9
1779265409.097687,1682,1845,9
1779265409.100458,2387,1630,9
1779265409.102612,2391,2113,9
1779265409.104022,2315,1828,9
1779265409.115531,2394,1150,9
1779265409.115662,2234,1405,9
1779265409.115718,2056,1887,9
1779265409.115768,1970,2026,9
1779265409.1158211,2008,1505,9
1779265409.11587,1961,1311,9
1779265409.1159198,2147,1518,9
1779265409.115967,2032,910,9
1779265409.1174679,1996,558,9
1779265409.120339,2209,404,9
1779265409.1217039,2075,1506,9
1779265409.1230872,2106,1712,9
1779265409.125691,2161,1054,9
1779265409.1275442,1779,1,9
1779265409.135094,1701,612,9
1779265409.137002,1899,688,9
1779265409.139764,2031,178,9
1779265409.139894,2183,0,9
1779265409.140552,2209,909,9
1779265409.148235,2221,1404,9
1779265409.148573,2143,1142,9
1779265409.148874,1949,363,9
1779265409.149269,1988,986,9
1779265409.151722,1820,1303,9
1779265409.152499,1883,534,9
1779265409.152592,2073,0,9
1779265409.153907,2181,567,9
1779265409.155244,2098,1228,9
1779265409.157865,2049,1194,9
1779265409.1628218,1886,583,9
1779265409.1635609,2018,525,9
1779265409.167003,1968,1523,9
1779265409.16995,1928,1110,9
1779265409.170702,1966,283,9
1779265409.178231,2145,215,9
1779265409.178598,1980,1070,9
1779265409.179093,2086,1278,9
1779265409.179245,2199,902,9
1779265409.179612,2256,992,9
1779265409.181979,2202,1705,9
1779265409.182755,2031,1920,9
1779265409.1842828,1995,1272,9
1779265409.185628,2038,829,9
1779265409.1881049,1918,1122,9
1779265409.189423,1930,1459,9
1779265409.1921878,1886,1496,9
1779265409.193505,2069,1546,9
1779265409.2007208,2091,2106,9
1779265409.202056,1954,2498,9
1779265409.204552,1901,2066,9
1779265409.206263,2092,1460,9
1779265409.207978,2110,1479,9
1779265409.210764,1887,2019,9
1779265409.2165508,1574,2110,9
1779265409.216959,2045,2049,9
1779265409.217387,2343,2285,9
1779265409.2202759,2244,2393,9
1779265409.220551,2039,2118,9
1779265409.2206972,2100,1689,9
1779265409.220793,2280,1676,9
1779265409.222207,2129,2322,9
1779265409.223556,2036,2483,9
1779265409.234924,1993,2460,9
1779265409.237492,2010,2241,9
1779265409.239336,1911,2522,9
1779265409.2412758,1885,2394,9
1779265409.250219,1960,2204,9
1779265409.2503622,2151,1535,9
1779265409.250423,2141,2156,9
1779265409.2506618,1947,2242,9
1779265409.250829,1865,1864,9
1779265409.2509482,1815,1890,9
1779265409.250997,1917,2701,9
1779265409.251117,1894,2320,9
1779265409.2511659,2076,2147,9
1779265409.251213,2328,1691,9
1779265409.2538,2268,1833,9
1779265409.2552052,2195,2306,9
1779265409.257942,1945,2540,9
1779265409.259267,2052,2330,9
1779265409.2673411,2194,2198,9
1779265409.267979,2080,2390,9
1779265409.269794,1807,2274,9
1779265409.2722251,1901,1862,9
1779265409.274506,2009,1628,9
1779265409.2762449,2118,2006,9
1779265409.2781281,1984,2602,9
1779265409.283901,2031,2254,9
1779265409.284267,2130,2077,9
1779265409.2846432,2031,2420,9
1779265409.287023,2042,2285,9
1779265409.287924,2032,2122,9
1779265409.287982,2089,1659,9
1779265409.28807,2077,1846,9
1779265409.289394,2075,2157,9
1779265409.2920692,2090,2425,9
1779265409.3000572,2079,2198,9
1779265409.302613,1978,2248,9
1779265409.3060522,1825,2299,9
1779265409.308387,1943,2144,9
1779265409.314071,2068,1874,9
1779265409.315084,2107,1660,9
1779265409.317337,2061,2263,9
1779265409.3180642,1938,2446,9
1779265409.318222,2022,2189,9
1779265409.318432,2007,2069,9
1779265409.318901,1877,2324,9
1779265409.318951,1950,2236,9
1779265409.319094,2157,1887,9
1779265409.3191428,2241,1491,9
1779265409.32176,2121,1918,9
1779265409.3230789,2041,2275,9
1779265409.32566,2017,2137,9
1779265409.327051,2010,1947,9
1779265409.3296692,2041,2349,9
1779265409.336419,1950,2271,9
1779265409.3391948,2042,2052,9
1779265409.339527,2122,1523,9
1779265409.342127,1964,1729,9
1779265409.344786,1989,2223,9
1779265409.345084,2045,2112,9
1779265409.350847,2192,1992,9
1779265409.353796,2074,2276,9
1779265409.354434,1906,2269,9
1779265409.354699,1955,1945,9
1779265409.3548381,2156,1598,9
1779265409.354888,2189,1800,9
1779265409.35498,1932,2120,9
1779265409.357569,1925,2455,9
1779265409.358989,2032,2011,9
1779265409.370635,2060,2032,9
1779265409.37249,1970,2323,9
1779265409.380289,1908,2164,9
1779265409.3839612,2092,1671,9
1779265409.384078,2217,1445,9
1779265409.38413,2079,2034,9
1779265409.3842502,1947,2199,9
1779265409.384363,1914,2253,9
1779265409.384528,2067,1977,9
1779265409.384635,2086,2221,9
1779265409.384743,2019,2278,9
1779265409.384865,1963,2091,9
1779265409.384992,2045,1459,9
1779265409.3875892,2096,1724,9
1779265409.38903,2141,2206,9
1779265409.391607,2136,2282,9
1779265409.393043,2053,1972,9
1779265409.3956501,2046,2219,9
1779265409.402158,1915,2351,9
1779265409.402876,1983,1972,9
1779265409.403431,2115,1575,9
1779265409.405715,2089,1714,9
1779265409.4076438,2019,2213,9
1779265409.408886,1959,2344,9
1779265409.410134,2024,2131,9
1779265409.4174788,2045,2040,9
1779265409.417851,2011,2330,9
1779265409.41822,2011,2180,9
1779265409.418572,2118,1760,9
1779265409.4215412,2176,1692,9
1779265409.4216151,2099,1952,9
1779265409.423216,2053,2136,9
1779265409.4258041,1979,2093,9
1779265409.4270751,1965,1934,9
1779265409.435791,1907,2202,9
1779265409.436059,1994,2195,9
1779265409.4381208,2127,1868,9
1779265409.439405,2197,1379,9
1779265409.4420302,2139,1746,9
1779265409.44766,2061,2154,9
1779265409.4506729,1992,2356,9
1779265409.451495,2005,2006,9
1779265409.4516292,2055,2274,9
1779265409.4517162,1901,2370,9
1779265409.4518242,1992,1957,9
1779265409.451966,2152,1674,9
1779265409.453284,2184,1658,9
1779265409.4558651,2059,2018,9
1779265409.457207,2029,2273,9
1779265409.45979,1989,2137,9
1779265409.46111,2082,2104,9
1779265409.463854,2051,2344,9
1779265409.469671,1977,2123,9
1779265409.475819,2064,1744,9
1779265409.476498,2178,1405,9
1779265409.484148,2077,1829,9
1779265409.484751,2061,2157,9
1779265409.484991,2008,2233,9
1779265409.485445,2090,2078,9
1779265409.4885929,2036,2336,9
1779265409.489249,1992,2219,9
1779265409.489385,2046,1956,9
1779265409.489485,2161,1517,9
1779265409.4895911,2136,1746,9
1779265409.489642,2058,2155,9
1779265409.491033,1931,2263,9
1779265409.4939651,1992,1995,9
1779265409.499707,1983,2107,9
1779265409.505461,1951,2337,9
1779265409.50904,2063,1996,9
1779265409.517237,2198,1589,9
1779265409.5181088,2218,1646,9
1779265409.518234,2096,2096,9
1779265409.5183501,2003,2293,9
1779265409.518493,2026,2185,9
1779265409.518686,2100,2127,9
1779265409.518736,2002,2305,9
1779265409.518784,1983,2158,9
1779265409.518833,2064,1731,9
1779265409.518992,2184,1514,9
1779265409.5216022,2119,1874,9
1779265409.5230799,2031,2140,9
1779265409.5256882,2016,1994,9
1779265409.5270798,2084,1882,9
1779265409.529757,1997,2202,9
1779265409.5367491,1961,2229,9
1779265409.540267,1998,1873,9
1779265409.5406861,2105,1374,9
1779265409.5433102,2130,1846,9
1779265409.546155,2089,2293,9
1779265409.551872,2055,2254,9
1779265409.552137,2143,2085,9
1779265409.552495,2119,2191,9
1779265409.552893,2028,2391,9
1779265409.555708,2038,2028,9
1779265409.556,2153,1896,9
1779265409.556135,2182,1941,9
1779265409.556424,2064,2360,9
1779265409.557743,1984,2512,9
1779265409.559096,2012,2315,9
1779265409.5676548,2056,2378,9
1779265409.569386,1984,2450,9
1779265409.5712378,2026,2322,9
1779265409.57156,2108,2123,9
1779265409.571878,2211,1736,9
1779265409.573806,2122,2134,9
1779265409.575039,2017,2418,9
1779265409.577496,1980,2332,9
1779265409.583081,2030,2252,9
1779265409.5837362,2040,2518,9
1779265409.584068,2015,2325,9
1779265409.586377,2042,2182,9
1779265409.587265,2123,1791,9
1779265409.587519,2142,2032,9
1779265409.590115,2099,2437,9
1779265409.5914319,2039,2646,9
1779265409.5941849,2037,2443,9
1779265409.595503,2015,2536,9
1779265409.596947,1933,2524,9
1779265409.599683,2013,2239,9
1779265409.6064582,2112,1964,9
1779265409.608858,2137,1854,9
1779265409.609159,2045,2245,9
1779265409.6118,2052,2419,9
1779265409.612545,2035,2220,9
1779265409.620516,2060,2224,9
1779265409.6238122,2005,2486,9
1779265409.623959,2009,2355,9
1779265409.624119,2161,1932,9
1779265409.624227,2238,1704,9
1779265409.6243682,2159,2108,9
1779265409.624452,2016,2489,9
1779265409.625695,1945,2430,9
1779265409.627289,2055,2229,9
1779265409.6385899,2029,2517,9
1779265409.6390688,1982,2396,9
1779265409.641545,2013,2217,9
1779265409.64164,2130,1829,9
1779265409.6530309,2145,2082,9
1779265409.653772,2061,2351,9
1779265409.65413,2034,2486,9
1779265409.654241,2074,2234,9
1779265409.654355,2102,2337,9
1779265409.654502,2000,2482,9
1779265409.6545532,2017,2095,9
1779265409.654675,2070,1838,9
1779265409.654782,2131,1747,9
1779265409.6561038,2066,2240,9
1779265409.6574259,2029,2306,9
1779265409.6600032,2023,2082,9
1779265409.661341,2073,2044,9
1779265409.663934,2004,2429,9
1779265409.665795,1987,2290,9
1779265409.673177,2081,1820,9
1779265409.674315,2187,1585,9
1779265409.676618,2121,1968,9
1779265409.679277,2019,2269,9
1779265409.680306,1987,2250,9
1779265409.687846,2039,2076,9
1779265409.688112,2009,2337,9
1779265409.688627,1970,2337,9
1779265409.691537,2031,1987,9
1779265409.6916711,2191,1591,9
1779265409.691722,2170,1802,9
1779265409.691902,2043,2126,9
1779265409.69195,1997,2246,9
1779265409.693428,2049,1982,9
1779265409.696152,2064,2024,9
1779265409.703251,2002,2186,9
1779265409.7043571,1997,1937,9
1779265409.706315,2096,1692,9
1779265409.708255,2140,1750,9
1779265409.709482,2092,2158,9
1779265409.71188,2017,2235,9
1779265409.712116,2006,2140,9
1779265409.717916,2023,2131,9
1779265409.718409,1980,2370,9
1779265409.718994,1956,2258,9
1779265409.7212741,2070,1773,9
1779265409.72208,2228,1491,9
1779265409.7222168,2122,1849,9
1779265409.72359,2020,2211,9
1779265409.7249112,2022,2204,9
1779265409.727503,2094,2013,9
1779265409.729089,2045,2239,9
1779265409.731898,1984,2314,9
1779265409.733469,2068,2033,9
1779265409.7406762,2157,1743,9
1779265409.744002,2133,1986,9
1779265409.745694,2048,2313,9
1779265409.746424,1991,2364,9
1779265409.749534,2046,2182,9
1779265409.758681,2023,2259,9
1779265409.75951,1948,2430,9
1779265409.759604,1951,2063,9
1779265409.759656,2095,1772,9
1779265409.759812,2175,1676,9
1779265409.759924,2121,2090,9
1779265409.76003,2026,2198,9
1779265409.760107,2013,2045,9
1779265409.761529,2069,2027,9
1779265409.762878,2042,2435,9
1779265409.771888,1972,2276,9
1779265409.7741709,2069,1835,9
1779265409.774591,2178,1479,9
1779265409.776833,2120,1878,9
1779265409.778017,2048,2147,9
1779265409.780208,2009,2223,9
1779265409.780469,2058,2021,9
1779265409.786232,2029,2301,9
1779265409.786556,2014,2340,9
1779265409.7868109,2077,1942,9
1779265409.787198,2169,1471,9
1779265409.7901819,2151,1757,9
1779265409.790452,2036,2161,9
1779265409.791784,1986,2307,9
1779265409.793102,2006,2030,9
1779265409.7956932,2038,2071,9
1779265409.796858,1978,2377,9
1779265409.79984,1990,2012,9
1779265409.801287,2123,1747,9
1779265409.808514,2176,1628,9
1779265409.8103812,2086,2019,9
1779265409.812778,2015,2318,9
1779265409.8156009,2032,2191,9
1779265409.818447,2064,2137,9
1779265409.8241699,2009,2438,9
1779265409.824651,1980,2308,9
1779265409.827293,2090,1932,9
1779265409.8280919,2176,1580,9
1779265409.828149,2129,1948,9
1779265409.8281999,2020,2247,9
1779265409.828248,1987,2293,9
1779265409.828296,2065,2028,9
1779265409.829615,2048,2304,9
1779265409.83093,2000,2349,9
1779265409.8383412,2035,2085,9
1779265409.8395782,2146,1748,9
1779265409.8444679,2155,1961,9
1779265409.8452659,2053,2303,9
1779265409.853641,2008,2337,9
1779265409.8541892,2050,2157,9
1779265409.854544,2051,2226,9
1779265409.854836,1982,2401,9
1779265409.8569658,1994,2052,9
1779265409.857926,2104,1825,9
1779265409.858083,2168,1659,9
1779265409.8582451,2094,2128,9
1779265409.858295,2011,2302,9
1779265409.859612,2000,2203,9
1779265409.8609312,2050,2109,9
1779265409.8635972,1988,2434,9
1779265409.865291,1962,2257,9
1779265409.867912,2056,1821,9
1779265409.869303,2194,1496,9
1779265409.913067,2141,1863,9
1779265409.913131,2022,2228,9
1779265409.9131808,2002,2252,9
1779265409.9132302,2052,1967,9
1779265409.9132779,2048,2218,9
1779265409.913325,1983,2306,9
1779265409.9133718,2022,1985,9
1779265409.91342,2189,1556,9
1779265409.9134688,2169,1712,9
1779265409.913516,2047,2062,9
1779265409.913564,2007,2209,9
1779265409.913611,2050,1967,9
1779265409.9136589,2066,2018,9
1779265409.9137049,1979,2263,9
1779265409.913752,2003,2011,9
1779265409.9137979,2118,1713,9
1779265409.913845,2163,1573,9
1779265409.913892,2096,1994,9
1779265409.913939,2020,2200,9
1779265409.913986,2023,2098,9
1779265409.914033,2074,1941,9
1779265409.914079,1998,2203,9
1779265409.916518,2002,2155,9
1779265409.918163,2078,1800,9
1779265409.930031,2174,1469,9
1779265409.946065,2125,1847,9
1779265409.962484,2037,2160,9
1779265409.9647691,1999,2182,9
1779265409.9677708,2033,1921,9
1779265409.968401,2027,2192,9
1779265409.9762292,1951,2359,9
1779265409.976649,2033,1949,9
1779265409.9799051,2142,1502,9
1779265409.980192,2168,1659,9
1779265409.980246,2088,2064,9
1779265409.980424,2028,2219,9
1779265409.980474,2060,2012,9
1779265409.980611,2069,2010,9
1779265409.980736,1961,2257,9
1779265409.98085,1996,2033,9
1779265409.980959,2082,1666,9
1779265409.981262,2155,1654,9
1779265409.9821079,2051,2034,9
1779265409.982162,1992,2186,9
1779265409.982274,2054,2129,9
1779265409.98241,2080,1998,9
1779265409.982514,1993,2264,9
1779265409.982673,1983,2306,9
1779265409.98279,2052,1878,9
1779265409.982896,2127,1481,9
1779265409.982944,2074,1879,9
1779265409.983071,1960,2070,9
1779265409.983188,1969,2257,9
1779265409.983381,2026,2189,9
1779265409.983478,1997,2278,9
1779265409.9836001,2035,2160,9
1779265409.983698,2034,1817,9
1779265409.985022,2130,1565,9
1779265409.987823,2175,1836,9
1779265409.989183,2070,2232,9
1779265409.991767,1990,2156,9
1779265409.997738,2010,1896,9
1779265410.000167,1936,2238,9
1779265410.002018,1879,2423,9
1779265410.0038269,1966,2133,9
1779265410.005646,2095,1607,9
1779265410.008013,2100,1678,9
1779265410.01679,2036,2129,9
1779265410.016941,2003,2146,9
1779265410.017047,1965,2091,9
1779265410.017154,2072,1980,9
1779265410.0172029,2040,2371,9
1779265410.0173771,2012,2282,9
1779265410.017505,1918,1726,9
1779265410.01875,2061,1290,9
1779265410.0213451,2109,2060,9
1779265410.0270112,2021,2517,9
1779265410.0276742,2001,2237,9
1779265410.028785,2063,1872,9
1779265410.029505,2022,2086,9
1779265410.033535,1939,2378,9
1779265410.034786,2004,2111,9
1779265410.0375092,2137,1607,9
1779265410.04303,2157,1735,9
1779265410.043405,1997,2056,9
1779265410.0466292,1937,2226,9
1779265410.0469198,1956,2152,9
1779265410.047064,2029,2225,9
1779265410.047186,1924,2362,9
1779265410.0499,1932,2132,9
1779265410.051261,2040,1730,9
1779265410.0538921,2122,1546,9
1779265410.0552168,2077,1943,9
1779265410.057804,2005,2180,9
1779265410.0593312,1930,2153,9
1779265410.068213,2016,1949,9
1779265410.072337,1995,2196,9
1779265410.079513,1924,2287,9
1779265410.079937,1999,1972,9
1779265410.0805,2106,1444,9
1779265410.0837388,2090,1903,9
1779265410.08385,1971,2220,9
1779265410.083984,1953,2166,9
1779265410.0841331,1991,1936,9
1779265410.084312,1974,2122,9
1779265410.0844722,1929,2340,9
1779265410.084555,1976,2029,9
1779265410.084725,2102,1657,9
1779265410.087324,2129,1792,9
1779265410.0952299,2019,2140,9
1779265410.096419,1929,2261,9
1779265410.1009789,1942,2077,9
1779265410.1016629,2004,2079,9
1779265410.101801,1947,2335,9
1779265410.102026,1928,2182,9
1779265410.104432,2049,1792,9
1779265410.109958,2136,1612,9
1779265410.110338,2081,2024,9
1779265410.110753,1997,2242,9
1779265410.111161,1983,2283,9
1779265410.1139991,2029,2101,9
1779265410.114454,1950,2399,9
1779265410.115843,1917,2311,9
1779265410.1171641,1986,1981,9
1779265410.1197472,2111,1574,9
1779265410.121066,2088,1906,9
1779265410.12364,2003,2213,9
1779265410.124956,1964,2274,9
1779265410.135425,2002,2009,9
1779265410.135765,2000,2139,9
1779265410.1495051,1949,2309,9
1779265410.150351,1970,1996,9
1779265410.150413,2113,1633,9
1779265410.150644,2137,1722,9
1779265410.150699,2042,2084,9
1779265410.150748,1959,2248,9
1779265410.150796,1980,2126,9
1779265410.150843,2033,2084,9
1779265410.150891,1967,2332,9
1779265410.151006,1957,2167,9
1779265410.151236,2053,1779,9
1779265410.1530602,2146,1568,9
1779265410.160372,2060,2007,9
1779265410.161094,1991,2260,9
1779265410.1650481,1987,2242,9
1779265410.1684248,2047,2010,9
1779265410.170943,1996,2251,9
1779265410.176266,1955,2306,9
1779265410.176648,2024,1882,9
1779265410.177044,2166,1532,9
1779265410.177383,2104,1817,9
1779265410.17775,2039,2163,9
1779265410.1804612,1991,2204,9
1779265410.18082,2037,1986,9
1779265410.180941,2023,2116,9
1779265410.181246,1975,2249,9
1779265410.1838589,2002,1978,9
1779265410.1851819,2125,1633,9
1779265410.187693,2163,1621,9
1779265410.189043,2037,2066,9
1779265410.1917481,1995,2214,9
1779265410.193179,1971,2075,9
1779265410.201025,2030,2077,9
1779265410.205036,1981,2344,9
1779265410.206788,1965,2187,9
1779265410.209397,2050,1710,9
1779265410.215379,2165,1518,9
1779265410.215789,2090,1954,9
1779265410.2185102,2004,2176,9
1779265410.2187982,1990,2116,9
1779265410.2189188,2034,1952,9
1779265410.219033,2007,2208,9
1779265410.219111,1951,2181,9
1779265410.2191591,2020,1835,9
1779265410.219208,2150,1489,9
1779265410.220767,2104,1803,9
1779265410.223435,2022,2145,9
1779265410.229193,1987,2197,9
1779265410.230926,2040,1964,9
1779265410.233524,2044,2080,9
1779265410.236667,1967,2287,9
1779265410.236799,2005,1986,9
1779265410.2391849,2104,1638,9
1779265410.244687,2161,1700,9
1779265410.245501,2079,2069,9
1779265410.248518,2008,2221,9
1779265410.248582,2012,2069,9
1779265410.248634,2044,1975,9
1779265410.248794,1969,2276,9
1779265410.2488918,1968,2140,9
1779265410.251816,2085,1746,9
1779265410.2531588,2167,1506,9
1779265410.2557492,2091,1933,9
1779265410.257068,2001,2173,9
1779265410.25966,1993,2130,9
1779265410.2610729,2052,1922,9
1779265410.270357,2009,2201,9
1779265410.272667,1963,2231,9
1779265410.2739148,2024,1898,9
1779265410.281638,2159,1547,9
1779265410.285523,2155,1720,9
1779265410.28562,2039,2100,9
1779265410.285696,1994,2226,9
1779265410.2857668,2039,1931,9
1779265410.285874,2049,2047,9
1779265410.286061,1977,2260,9
1779265410.286137,1991,1968,9
1779265410.2862542,2121,1688,9
1779265410.287606,2174,1707,9
1779265410.289126,2068,2088,9
1779265410.3027892,1994,2307,9
1779265410.311015,2004,2211,9
1779265410.314602,2078,2032,9
1779265410.3146849,2007,2365,9
1779265410.3147562,1983,2202,9
1779265410.314806,2069,1799,9
1779265410.314856,2168,1536,9
1779265410.3149068,2095,1902,9
1779265410.314955,2019,2133,9
1779265410.315006,1982,2166,9
1779265410.3150551,2032,1982,9
1779265410.315101,2009,2264,9
1779265410.315148,1975,2307,9
1779265410.31669,2036,1978,9
1779265410.318939,2141,1543,9
1779265410.321667,2141,1805,9
1779265410.3230562,2052,2151,9
1779265410.325658,2013,2200,9
1779265410.327415,2054,2046,9
1779265410.337504,2046,2120,9
1779265410.337908,1987,2345,9
1779265410.341436,2019,2007,9
1779265410.34972,2127,1631,9
1779265410.353446,2182,1649,9
1779265410.3537788,2091,2050,9
1779265410.353869,2011,2215,9
1779265410.353942,2033,2103,9
1779265410.35401,2068,2007,9
1779265410.354081,2001,2303,9
1779265410.354231,1981,2184,9
1779265410.354309,2083,1817,9
1779265410.3544471,2177,1572,9
1779265410.354602,2109,1994,9
1779265410.357294,2006,2184,9
1779265410.3658519,1998,2187,9
1779265410.367969,2054,1998,9
1779265410.3702688,2029,2237,9
1779265410.373069,1987,2304,9
1779265410.381439,2031,1988,9
1779265410.381988,2152,1583,9
1779265410.3824189,2147,1738,9
1779265410.382845,2065,2077,9
1779265410.386102,2012,2254,9
1779265410.3862998,2039,2074,9
1779265410.386688,2049,2133,9
1779265410.386851,1973,2318,9
1779265410.387063,2014,2023,9
1779265410.387136,2123,1672,9
1779265410.387199,2177,1628,9
1779265410.3886101,2070,2083,9
1779265410.3913212,2011,2280,9
1779265410.3927429,2014,2093,9
1779265410.3953018,2075,2055,9
1779265410.396725,2019,2309,9
1779265410.4066129,1983,2215,9
1779265410.410388,2092,1803,9
1779265410.414665,2201,1564,9
1779265410.423521,2099,1930,9
1779265410.423798,2022,2150,9
1779265410.423947,2022,2158,9
1779265410.424041,2064,1961,9
1779265410.4241579,2032,2200,9
1779265410.4243042,1982,2310,9
1779265410.4243891,2023,1975,9
1779265410.4244611,2171,1556,9
1779265410.4245791,2148,1777,9
1779265410.42465,2058,2170,9
1779265410.424714,2019,2295,9
1779265410.427379,2031,2030,9
1779265410.428844,2063,2084,9
1779265410.436343,1990,2325,9
1779265410.4394891,2013,2003,9
1779265410.443509,2096,1675,9
1779265410.4467032,2158,1640,9
1779265410.453132,2086,2069,9
1779265410.45399,2030,2222,9
1779265410.454517,2018,2162,9
1779265410.455065,2050,2059,9
1779265410.4586802,2005,2306,9
1779265410.458775,1998,2237,9
1779265410.458913,2086,1797,9
1779265410.458993,2191,1510,9
1779265410.4590652,2135,1947,9
1779265410.459189,2037,2241,9
1779265410.459274,2022,2299,9
1779265410.460642,2076,1979,9
1779265410.463226,2052,2115,9
1779265410.464703,1993,2277,9
1779265410.467223,2042,1999,9
1779265410.468648,2141,1606,9
1779265410.471334,2168,1767,9
1779265410.484662,2061,2104,9
1779265410.48546,2000,2247,9
1779265410.48818,2057,1964,9
1779265410.4980748,2064,2049,9
1779265410.499182,2001,2354,9
1779265410.503,2002,2044,9
1779265410.503489,2125,1611,9
1779265410.503576,2168,1578,9
1779265410.503721,2098,2025,9
1779265410.50384,2019,2285,9
1779265410.503933,2038,2163,9
1779265410.504092,2066,1917,9
1779265410.504401,1993,2201,9
1779265410.504521,1985,2197,9
1779265410.504632,2073,1769,9
1779265410.5047019,2198,1490,9
1779265410.504765,2126,1910,9
1779265410.5074291,2026,2161,9
1779265410.508801,2024,2157,9
1779265410.517717,2079,1973,9
1779265410.520782,2060,2190,9
1779265410.526051,2003,2250,9
1779265410.529151,2045,1991,9
1779265410.535636,2146,1537,9
1779265410.536414,2161,1758,9
1779265410.536855,2073,2136,9
1779265410.5373151,2025,2252,9
1779265410.540834,2056,2000,9
1779265410.5409322,2070,2077,9
1779265410.5410051,2003,2375,9
1779265410.5410812,1997,2091,9
1779265410.541152,2114,1671,9
1779265410.541219,2201,1577,9
1779265410.541285,2108,1942,9
1779265410.5413508,2004,2142,9
1779265410.5427148,2022,2048,9
1779265410.545372,2058,1969,9
1779265410.546853,2011,2329,9
1779265410.549579,2008,2244,9
1779265410.5509472,2087,1765,9
1779265410.5537431,2177,1499,9
1779265410.56613,2122,1921,9
1779265410.570167,2039,2174,9
1779265410.571809,1991,2202,9
1779265410.574393,2058,1954,9
1779265410.5805812,2022,2158,9
1779265410.581256,1964,2325,9
1779265410.5815291,2032,2031,9
1779265410.5819168,2153,1612,9
1779265410.58229,2170,1719,9
1779265410.582803,2073,2106,9
1779265410.586356,1997,2281,9
1779265410.586529,2042,2101,9
1779265410.586622,2072,2041,9
1779265410.586699,2013,2310,9
1779265410.586772,2008,2080,9
1779265410.586852,2121,1683,9
1779265410.586931,2189,1613,9
1779265410.5894651,2100,2028,9
1779265410.59083,2035,2207,9
1779265410.601701,2022,2074,9
1779265410.604172,2062,1924,9
1779265410.607002,1980,2337,9
1779265410.6080902,1964,2273,9
1779265410.609045,2050,1851,9
1779265410.609972,2157,1463,9
1779265410.612326,2131,1857,9
1779265410.618604,2068,2161,9
1779265410.619026,2023,2169,9
1779265410.619682,2062,1956,9
1779265410.620173,2032,2156,9
1779265410.623211,1978,2253,9
1779265410.6235561,2045,1939,9
1779265410.623638,2156,1599,9
1779265410.6237109,2141,1823,9
1779265410.623782,2028,2154,9
1779265410.6251352,1986,2211,9
1779265410.626519,2056,2044,9
1779265410.629295,2067,2102,9
1779265410.630688,1996,2345,9
1779265410.6335201,2022,2114,9
1779265410.634974,2138,1644,9
1779265410.642807,2193,1585,9
1779265410.644042,2106,1971,9
1779265410.648531,2005,2153,9
1779265410.649276,1986,2238,9
1779265410.652141,2095,2091,9
1779265410.656328,2039,2404,9
1779265410.662773,1996,2198,9
1779265410.663212,2046,1845,9
1779265410.663746,2197,1460,9
1779265410.6641889,2153,1866,9
1779265410.668305,2027,2232,9
1779265410.668642,2013,2112,9
1779265410.668849,2039,1822,9
1779265410.669004,2016,2305,9
1779265410.669141,2014,2328,9
1779265410.669237,2001,2079,9
1779265410.669299,2097,1670,9
1779265410.670732,2144,1758,9
1779265410.6734972,2082,2023,9
1779265410.674925,2037,2468,9
1779265410.6863732,2075,2160,9
1779265410.6867359,2045,1998,9
1779265410.69093,2013,2312,9
1779265410.700255,2019,2151,9
1779265410.7008781,2092,1775,9
1779265410.703973,2156,1633,9
1779265410.7051892,2051,2015,9
1779265410.705277,1955,2319,9
1779265410.7053492,1982,1900,9
1779265410.7056808,2085,1909,9
1779265410.705838,1999,2534,9
1779265410.705915,2013,2239,9
1779265410.705987,2088,1871,9
1779265410.7060769,2149,1621,9
1779265410.7061381,2196,1956,9
1779265410.707556,2082,2287,9
1779265410.70892,2015,2211,9
1779265410.711835,2067,1986,9
1779265410.7131991,2105,2090,9
1779265410.714595,2046,2009,9
1779265410.717249,1961,2118,9
1779265410.718616,2116,1669,9
1779265410.726599,2128,1644,9
1779265410.7287722,2078,2212,9
1779265410.736504,2023,2339,9
1779265410.745522,1982,2184,9
1779265410.748993,2111,2136,9
1779265410.750263,2069,2334,9
1779265410.7503412,2053,2113,9
1779265410.7508092,2074,1676,9
1779265410.750946,2204,1591,9
1779265410.751022,2096,2022,9
1779265410.751086,2025,2254,9
1779265410.751148,1990,2248,9
1779265410.751213,2103,2050,9
1779265410.751276,2054,2330,9
1779265410.751338,2020,2306,9
1779265410.7514,2082,2006,9
1779265410.752773,2199,1647,9
1779265410.755262,2173,1885,9
1779265410.76272,2051,2159,9
1779265410.7679,2002,2384,9
1779265410.7723598,1978,2189,9
1779265410.782017,1999,2290,9
1779265410.782631,1948,2432,9
1779265410.783516,1969,2117,9
1779265410.783853,2086,1839,9
1779265410.7873569,2097,2003,9
1779265410.7878242,2158,2372,9
1779265410.7879019,2182,2453,9
1779265410.7879748,2124,2360,9
1779265410.78806,1971,2278,9
1779265410.788129,1898,2496,9
1779265410.788216,1954,2414,9
1779265410.788291,2167,2133,9
1779265410.788408,2285,1933,9
1779265410.788487,2155,2318,9
1779265410.79116,2015,2532,9
1779265410.792565,2010,2579,9
1779265410.795252,2098,2532,9
1779265410.79665,2058,2861,9
1779265410.799387,1913,2531,9
1779265410.8007748,1995,2472,9
1779265410.802377,2140,2154,9
1779265410.810963,2112,2465,9
1779265410.816457,2055,2676,9
1779265410.818256,2048,2794,9
1779265410.8193548,2099,2634,9
1779265410.82777,2057,2841,9
1779265410.828777,2038,2651,9
1779265410.8293068,2093,2534,9
1779265410.832216,2215,2506,9
1779265410.833397,2202,2493,9
1779265410.833487,2054,2841,9
1779265410.833559,1971,3031,9
1779265410.833627,2079,2886,9
1779265410.833694,2118,2997,9
1779265410.833761,1995,2849,9
1779265410.833832,2037,2659,9
1779265410.835048,2093,2789,9
1779265410.8364952,2162,2334,9
1779265410.839815,1941,2572,9
1779265410.8483882,1895,2812,9
1779265410.8515258,2010,2946,9
1779265410.8552692,2105,2876,9
1779265410.857651,2140,3066,9
1779265410.866533,2083,2644,9
1779265410.867472,2123,2739,9
1779265410.868154,2204,2351,9
1779265410.871613,2225,2594,9
1779265410.872086,2154,2892,9
1779265410.872351,2018,2882,9
1779265410.87243,2003,2671,9
1779265410.872504,1939,2928,9
1779265410.872575,1903,2763,9
1779265410.8726451,1969,2629,9
1779265410.8727129,2153,2379,9
1779265410.872781,2195,2120,9
1779265410.8728478,1996,2399,9
1779265410.875502,1901,2502,9
1779265410.876735,1924,2588,9
1779265410.879426,2087,2586,9
1779265410.8807979,2053,2666,9
1779265410.884363,2064,2579,9
1779265410.884483,2146,2225,9
1779265410.8944929,2210,1809,9
1779265410.8989818,2171,2215,9
1779265410.9035368,2090,2340,9
1779265410.906833,2103,2284,9
1779265410.913097,2093,2108,9
1779265410.913989,2027,2613,9
1779265410.918068,1952,2464,9
1779265410.918478,1993,2090,9
1779265410.918564,2077,1578,9
1779265410.9186811,2063,1857,9
1779265410.918756,2062,2238,9
1779265410.918818,2054,2106,9
1779265410.918877,2031,1964,9
1779265410.918936,1881,2228,9
1779265410.918994,1837,2450,9
1779265410.919053,2057,2083,9
1779265410.919113,2232,1710,9
1779265410.920584,2277,1613,9
1779265410.923242,2103,2017,9
1779265410.9302258,2081,2304,9
1779265410.933198,2154,2173,9
1779265410.936524,2000,2193,9
1779265410.941609,1831,2488,9
1779265410.9502778,1762,2359,9
1779265410.950762,2027,2114,9
1779265410.951273,2189,1796,9
1779265410.9517188,2136,2171,9
1779265410.952283,2075,2365,9
1779265410.952641,2123,2341,9
1779265410.955771,2265,2141,9
1779265410.9568262,2183,2515,9
1779265410.956925,2066,2361,9
1779265410.957016,2059,2159,9
1779265410.957147,2198,1651,9
1779265410.957288,2105,1891,9
1779265410.95744,1943,2230,9
1779265410.958857,1845,2297,9
1779265410.9615622,1892,2106,9
1779265410.962949,2106,2354,9
1779265410.96437,2024,2385,9
1779265410.967099,2081,2009,9
1779265410.968501,2183,1683,9
1779265410.98149,2056,1480,9
1779265410.98899,1919,2123,9
1779265410.992797,1856,2329,9
1779265410.99331,1980,1971,9
1779265410.9998379,2123,1894,9
1779265411.000709,2208,2191,9
1779265411.001226,2125,2041,9
1779265411.001556,1984,1593,9
1779265411.002068,2157,1406,9
1779265411.0057971,2205,1810,9
1779265411.005975,2095,2148,9
1779265411.006048,2179,2101,9
1779265411.006217,2288,1416,9
1779265411.006289,2164,1879,9
1779265411.0063648,2006,1840,9
1779265411.0064268,1891,2033,9
1779265411.0064871,2021,1172,9
1779265411.006546,1813,1397,9
1779265411.006606,2042,1897,9
1779265411.009279,2178,2193,9
1779265411.010559,2268,1821,9
1779265411.0185852,2266,2204,9
1779265411.02036,1939,2365,9
1779265411.024168,2057,1962,9
1779265411.027701,2272,1874,9
1779265411.028146,2224,1679,9
1779265411.0290968,2207,1675,9
1779265411.029963,2117,2006,9
1779265411.038527,2056,1914,9
1779265411.039072,1897,2086,9
1779265411.039579,1834,2443,9
1779265411.043061,1999,1867,9
1779265411.0435898,2265,1743,9
1779265411.043761,2442,1459,9
1779265411.043906,2033,1872,9
1779265411.044022,1898,1803,9
1779265411.0441952,1596,2097,9
1779265411.0443141,1938,2067,9
1779265411.047028,2039,2001,9
1779265411.048237,1964,1911,9
1779265411.050912,2218,1640,9
1779265411.052289,2489,1213,9
1779265411.054987,2544,1497,9
1779265411.0564291,2278,2093,9
1779265411.065336,2167,2095,9
1779265411.0678332,2218,1840,9
1779265411.070312,2110,2120,9
1779265411.07358,2006,2413,9
1779265411.074483,1872,1731,9
1779265411.075614,2082,1444,9
1779265411.0764558,2189,1500,9
1779265411.078667,2107,2012,9
1779265411.085293,2075,1963,9
1779265411.08578,1934,1817,9
1779265411.0864189,1916,1587,9
1779265411.087235,1913,2176,9
1779265411.090799,1801,2166,9
1779265411.0910778,1686,1791,9
1779265411.091171,2151,1231,9
1779265411.091243,2473,1690,9
1779265411.091313,2461,1872,9
1779265411.092716,2221,1787,9
1779265411.095411,2191,1325,9
1779265411.096975,2183,1455,9
1779265411.105332,2036,1386,9
1779265411.108493,1953,622,9
1779265411.108906,1959,0,9
1779265411.109538,1745,892,9
1779265411.112622,1800,1581,9
1779265411.11437,2079,1399,9
1779265411.123014,2273,563,9
1779265411.123793,2219,386,9
1779265411.124243,2065,524,9
1779265411.124747,2042,251,9
1779265411.125094,2102,0,9
1779265411.1255229,2130,385,9
1779265411.129177,2240,1098,9
1779265411.129277,1980,1171,9
1779265411.1293461,1631,664,9
1779265411.1294131,1692,432,9
1779265411.1306171,1787,1136,9
1779265411.133478,2233,1093,9
1779265411.134902,2082,542,9
1779265411.136259,2280,124,9
1779265411.1389692,2292,878,9
1779265411.140358,2033,1198,9
1779265411.1430311,1895,1110,9
1779265411.150958,1888,1103,9
1779265411.152699,2068,1749,9
1779265411.159959,2203,1848,9
1779265411.162314,2300,1573,9
1779265411.1693492,2189,1189,9
1779265411.173087,2128,1308,9
1779265411.173493,2028,1437,9
1779265411.173574,2067,1766,9
1779265411.173687,2061,1542,9
1779265411.173871,1890,1878,9
1779265411.173952,1822,2240,9
1779265411.174135,1894,2257,9
1779265411.1742542,2183,1935,9
1779265411.1744058,2246,1705,9
1779265411.174531,2131,2164,9
1779265411.174596,2025,2514,9
1779265411.177269,2112,2404,9
1779265411.178638,2077,2087,9
1779265411.186662,1969,2668,9
1779265411.1874912,1988,2473,9
1779265411.195199,2098,2368,9
1779265411.1984088,2332,1936,9
1779265411.204868,2130,2187,9
1779265411.2056398,1868,2388,9
1779265411.206233,1916,2557,9
1779265411.206485,1987,2552,9
1779265411.206872,1985,2691,9
1779265411.21042,2080,2558,9
1779265411.210761,2209,2424,9
1779265411.2109299,2166,2041,9
1779265411.211066,2129,2088,9
1779265411.211172,2050,2128,9
1779265411.211306,2052,2922,9
1779265411.21139,2118,2608,9
1779265411.212756,2112,2587,9
1779265411.214168,1983,2659,9
1779265411.216646,2026,2449,9
1779265411.219337,2125,2078,9
1779265411.220694,2147,1997,9
1779265411.222123,2104,2401,9
1779265411.2253702,2051,2596,9
1779265411.234514,2080,2452,9
1779265411.2375228,2148,2263,9
1779265411.24034,2110,2507,9
1779265411.242692,1987,2495,9
1779265411.254678,1996,2340,9
1779265411.255997,1897,1674,9
1779265411.256234,2081,2058,9
1779265411.256431,2087,2346,9
1779265411.256524,2007,2279,9
1779265411.256599,2130,1939,9
1779265411.256769,2190,2498,9
1779265411.256922,1993,2401,9
1779265411.256991,1973,2071,9
1779265411.257059,2197,1538,9
1779265411.257162,2160,1887,9
1779265411.257285,1989,2256,9
1779265411.258642,1983,2456,9
1779265411.260121,2014,2238,9
1779265411.270831,2060,2179,9
1779265411.27386,2014,2458,9
1779265411.2743611,2052,2274,9
1779265411.2775428,2155,1869,9
1779265411.287353,2213,1767,9
1779265411.288077,2063,2156,9
1779265411.2918,2018,2240,9
1779265411.291923,1992,2172,9
1779265411.291994,1995,2102,9
1779265411.292052,2009,2387,9
1779265411.292109,1989,2344,9
1779265411.292165,2024,1980,9
1779265411.2922199,2043,1627,9
1779265411.292275,2167,1916,9
1779265411.29233,2149,2250,9
1779265411.292385,2045,2211,9
1779265411.296567,1995,1992,9
1779265411.29665,1977,2198,9
1779265411.299144,1943,2306,9
1779265411.300607,2041,2009,9
1779265411.303325,2211,1722,9
1779265411.3047118,2272,1990,9
1779265411.306148,2089,2099,9
1779265411.317985,1949,2258,9
1779265411.318451,2102,2165,9
1779265411.318988,2159,2172,9
1779265411.323005,2085,2344,9
1779265411.3325188,2035,2141,9
1779265411.333643,1999,1804,9
1779265411.334063,2104,1733,9
1779265411.336997,2109,2239,9
1779265411.338122,1898,2253,9
1779265411.3382,1934,2290,9
1779265411.338292,2009,2107,9
1779265411.3384042,1964,2493,9
1779265411.338527,1969,2228,9
1779265411.338613,2148,1650,9
1779265411.338743,2216,1507,9
1779265411.3388438,2222,1971,9
1779265411.340246,2107,2066,9
1779265411.342962,2027,2202,9
1779265411.344503,2105,2139,9
1779265411.352735,2069,2352,9
1779265411.355765,1971,2389,9
1779265411.3600278,1978,2045,9
1779265411.361108,2027,1671,9
1779265411.363544,2045,1829,9
1779265411.370527,2034,2187,9
1779265411.3711948,2056,2256,9
1779265411.3719559,2050,2075,9
1779265411.372221,2071,2075,9
1779265411.375958,1952,2320,9
1779265411.376111,2015,2192,9
1779265411.376195,2151,1823,9
1779265411.376266,2163,1649,9
1779265411.3763351,2028,2125,9
1779265411.376441,2015,2086,9
1779265411.3765728,2003,2009,9
1779265411.3793821,2071,2054,9
1779265411.380785,2050,2314,9
1779265411.382189,1981,2281,9
1779265411.3847392,2074,1926,9
1779265411.386111,2233,1646,9
1779265411.388871,2077,2012,9
1779265411.3973062,1959,2321,9
1779265411.4026082,1961,2433,9
1779265411.402899,1974,2198,9
1779265411.406812,1934,2360,9
1779265411.409795,1989,2403,9
1779265411.416477,2110,1966,9
1779265411.417168,2286,1560,9
1779265411.417813,2277,1710,9
1779265411.418401,2108,2086,9
1779265411.418817,2019,2322,9
1779265411.422391,2138,2170,9
1779265411.4227479,2133,2038,9
1779265411.4229052,1863,2315,9
1779265411.422986,1928,2204,9
1779265411.4231,2025,1745,9
1779265411.423212,2145,1691,9
1779265411.423289,2083,2034,9
1779265411.424653,2005,2243,9
1779265411.427364,2018,2184,9
1779265411.429149,2079,2110,9
1779265411.439894,2006,2290,9
1779265411.4435651,2006,2312,9
1779265411.445112,2061,1909,9
1779265411.447511,2130,1483,9
1779265411.4543931,2108,1886,9
1779265411.455223,2041,2211,9
1779265411.458951,1984,2162,9
1779265411.459105,2061,1906,9
1779265411.459195,2047,2143,9
1779265411.4595299,1990,2310,9
1779265411.459628,2026,2013,9
1779265411.459702,2168,1576,9
1779265411.4598432,2212,1817,9
1779265411.459954,2089,2185,9
1779265411.4600399,2048,2260,9
1779265411.460139,2063,2150,9
1779265411.462896,2073,2126,9
1779265411.464416,1987,2373,9
1779265411.46728,1986,2187,9
1779265411.468517,2091,1786,9
1779265411.4700422,2181,1620,9
1779265411.481531,2123,2071,9
1779265411.4833448,2027,2213,9
1779265411.486468,2005,2200,9
1779265411.489266,2079,2065,9
1779265411.491025,2036,2313,9
1779265411.494097,1999,2257,9
1779265411.501156,2048,1917,9
1779265411.5020852,2144,1578,9
1779265411.506486,2138,1929,9
1779265411.506583,2038,2279,9
1779265411.506656,2007,2398,9
1779265411.506783,2068,2015,9
1779265411.506976,2015,2281,9
1779265411.507104,1943,2450,9
1779265411.5071712,2057,2110,9
1779265411.507235,2171,1685,9
1779265411.507334,2220,1846,9
1779265411.507406,2088,2188,9
1779265411.5087628,2038,2388,9
1779265411.510108,2035,2197,9
1779265411.518067,2087,2227,9
1779265411.524395,2010,2459,9
1779265411.528436,1992,2305,9
1779265411.537666,2121,1915,9
1779265411.538472,2177,1842,9
1779265411.539242,2059,2244,9
1779265411.543953,2017,2459,9
1779265411.544887,2006,2442,9
1779265411.545015,2065,2395,9
1779265411.545152,2077,2681,9
1779265411.545228,2043,2449,9
1779265411.545294,2110,2295,9
1779265411.545394,2124,1886,9
1779265411.5454662,2119,2194,9
1779265411.5455968,2067,2339,9
1779265411.54566,2023,2487,9
1779265411.545723,2089,2256,9
1779265411.547093,2030,2277,9
1779265411.5485702,2010,2471,9
1779265411.5500128,1994,2131,9
1779265411.552736,2112,1828,9
1779265411.55411,2155,1862,9
1779265411.556766,2095,2237,9
1779265411.568855,2013,2383,9
1779265411.571906,2025,2208,9
1779265411.57291,2042,2263,9
1779265411.5765991,2018,2504,9
1779265411.583485,1982,2375,9
1779265411.583884,2087,1876,9
1779265411.584878,2173,1767,9
1779265411.588824,2131,2202,9
1779265411.588937,2021,2281,9
1779265411.5890791,1986,2327,9
1779265411.58917,2025,2108,9
1779265411.5893939,1957,2437,9
1779265411.589508,1924,2348,9
1779265411.5896041,2027,2209,9
1779265411.589691,2167,1756,9
1779265411.589789,2184,1946,9
1779265411.5912,2049,2392,9
1779265411.5923789,2006,2427,9
1779265411.595307,2072,2250,9
1779265411.6042938,2028,2368,9
1779265411.6074328,1986,2546,9
1779265411.610934,2040,2176,9
1779265411.611867,2170,1974,9
1779265411.6214201,2178,1932,9
1779265411.6219049,2092,2342,9
1779265411.622632,2003,2526,9
1779265411.6266618,2049,2412,9
1779265411.626782,2070,2346,9
1779265411.626892,2006,2589,9
1779265411.6270459,2004,2415,9
1779265411.627131,2091,2049,9
1779265411.6272151,2190,1846,9
1779265411.6272871,2096,2097,9
1779265411.6274061,2022,2225,9
1779265411.6274948,2002,2270,9
1779265411.628924,2055,2111,9
1779265411.630301,2024,2428,9
1779265411.633097,2011,2352,9
1779265411.634489,2044,2051,9
1779265411.6369832,2130,1627,9
1779265411.63834,2105,1902,9
1779265411.641098,2016,2349,9
1779265411.648973,1972,2542,9
1779265411.651317,2045,2287,9
1779265411.653495,2053,2381,9
1779265411.656476,1998,2521,9
1779265411.657957,2017,2195,9
1779265411.660676,2108,1823,9
1779265411.6703439,2198,1942,9
1779265411.671227,2127,2415,9
1779265411.671487,2031,2415,9
1779265411.67155,2067,2326,9
1779265411.671683,2098,2295,9
1779265411.671796,2019,2554,9
1779265411.671911,1981,2413,9
1779265411.672022,2064,2159,9
1779265411.672211,2178,1708,9
1779265411.672259,2051,2158,9
1779265411.674847,2040,2434,9
1779265411.6761699,2061,2486,9
1779265411.683899,2089,2109,9
1779265411.6865149,2012,2454,9
1779265411.688701,1992,2398,9
1779265411.689429,2081,2221,9
1779265411.690619,2182,1785,9
1779265411.697479,2136,1902,9
1779265411.6981928,2043,2271,9
1779265411.701449,2012,2374,9
1779265411.701586,2022,2201,9
1779265411.7017028,2006,2297,9
1779265411.7018151,1929,2499,9
1779265411.701931,1988,2085,9
1779265411.702036,2158,1853,9
1779265411.704625,2214,1805,9
1779265411.705996,2081,2143,9
1779265411.708562,2011,2343,9
1779265411.709959,2022,2190,9
1779265411.712636,2062,2054,9
1779265411.723134,2038,2410,9
1779265411.7253408,2004,2296,9
1779265411.727118,2092,1785,9
1779265411.7273111,2195,1504,9
1779265411.734497,2121,1954,9
1779265411.7349398,2036,2200,9
1779265411.735179,2000,2205,9
1779265411.738397,2041,2082,9
1779265411.73854,2024,2388,9
1779265411.738646,1976,2399,9
1779265411.738785,2040,2153,9
1779265411.738881,2159,1672,9
1779265411.7389948,2093,1809,9
1779265411.740412,2014,2258,9
1779265411.742913,1968,2392,9
1779265411.7491431,2056,2188,9
1779265411.751337,2069,2196,9
1779265411.755625,1987,2428,9
1779265411.756334,2008,2050,9
1779265411.757015,2116,1727,9
1779265411.759053,2155,1668,9
1779265411.764501,2085,2067,9
1779265411.7682712,2012,2380,9
1779265411.7684312,2004,2209,9
1779265411.768538,2048,2057,9
1779265411.768671,2010,2461,9
1779265411.7688289,2005,2278,9
1779265411.768947,2100,1866,9
1779265411.770303,2216,1659,9
1779265411.772883,2156,2044,9
1779265411.774199,2056,2204,9
1779265411.7767758,2043,2195,9
1779265411.7782059,2073,1980,9
1779265411.785457,2030,2287,9
1779265411.7866611,1951,2266,9
1779265411.790016,2005,1925,9
1779265411.792174,2133,1565,9
1779265411.796433,2140,1839,9
1779265411.802169,2057,2229,9
1779265411.802689,2005,2270,9
1779265411.803025,2025,2127,9
1779265411.8060029,2069,2129,9
1779265411.8062851,1985,2330,9
1779265411.806378,1990,2006,9
1779265411.806536,2110,1677,9
1779265411.806654,2186,1608,9
1779265411.806729,2072,2003,9
1779265411.808084,2021,2163,9
1779265411.810762,2017,2097,9
1779265411.817812,2050,1894,9
1779265411.820689,2007,2169,9
1779265411.8210309,1984,2169,9
1779265411.823715,2077,1744,9
1779265411.82426,2200,1425,9
1779265411.831755,2145,1913,9
1779265411.835436,2047,2167,9
1779265411.835585,2059,2170,9
1779265411.8356411,2076,1901,9
1779265411.835778,2025,2131,9
1779265411.8358881,1974,2184,9
1779265411.83601,2028,1900,9
1779265411.8360581,2145,1491,9
1779265411.838502,2151,1754,9
1779265411.839885,2029,2090,9
1779265411.8422348,1978,2176,9
1779265411.84482,2009,2024,9
1779265411.8461351,2021,2131,9
1779265411.8536901,1944,2408,9
1779265411.853879,2021,2024,9
1779265411.855482,2151,1655,9
1779265411.857258,2190,1576,9
1779265411.8599732,2101,2037,9
1779265411.86274,1978,2119,9
1779265411.8683038,2015,2118,9
1779265411.868706,2095,1923,9
1779265411.8690739,1990,2125,9
1779265411.872073,1983,1992,9
1779265411.872324,2026,1700,9
1779265411.872378,2162,1422,9
1779265411.8724558,2101,1769,9
1779265411.875169,2047,2067,9
1779265411.876488,1987,2078,9
1779265411.883648,2064,1939,9
1779265411.8867562,2018,2127,9
1779265411.889688,1966,2196,9
1779265411.892011,2033,1899,9
1779265411.892353,2141,1626,9
1779265411.898079,2159,1682,9
1779265411.901887,2057,2038,9
1779265411.902017,1993,2312,9
1779265411.902147,2045,2173,9
1779265411.902257,2095,2028,9
1779265411.902358,2060,2264,9
1779265411.902509,2085,2012,9
1779265411.902655,2090,1558,9
1779265411.904033,2111,1511,9
1779265411.9067242,1982,2073,9
1779265411.908145,2000,2336,9
1779265411.910769,2073,2129,9
1779265411.912095,2095,1870,9
1779265411.919862,1957,2201,9
1779265411.920626,1969,2131,9
1779265411.923619,2021,1785,9
1779265411.9263082,2202,1457,9
1779265411.926987,2141,1784,9
1779265411.929248,2003,2012,9
1779265411.929565,1966,2223,9
1779265411.935213,2124,1934,9
1779265411.935776,2094,2125,9
1779265411.936297,1970,2248,9
1779265411.940178,1959,1881,9
1779265411.940476,2150,1552,9
1779265411.940686,2200,1708,9
1779265411.940809,2051,2051,9
1779265411.9422238,1944,2199,9
1779265411.944978,1956,1780,9
1779265411.951422,1973,1780,9
1779265411.9559622,1975,2379,9
1779265411.9575949,2066,2242,9
1779265411.958368,2122,1597,9
1779265411.960166,2157,1579,9
1779265411.96034,2051,2035,9
1779265411.965923,2006,2167,9
1779265411.966312,2033,2063,9
1779265411.966788,2047,2034,9
1779265411.969782,1954,2304,9
1779265411.969944,1870,2140,9
1779265411.9700449,2009,1775,9
1779265411.9701529,2143,1427,9
1779265411.972738,2124,1911,9
1779265411.9743218,2075,2307,9
1779265411.976935,1984,2149,9
1779265411.978254,2058,1930,9
1779265411.980831,2017,2153,9
1779265411.988951,2008,2354,9
1779265411.991431,2055,2025,9
1779265411.991742,2160,1501,9
1779265411.9941719,2183,1749,9
1779265411.995361,2069,2198,9
1779265412.002453,1937,2145,9
1779265412.002621,1994,2000,9
1779265412.003219,2001,1907,9
1779265412.003351,1927,2346,9
1779265412.006486,1928,2098,9
1779265412.006855,2036,1640,9
1779265412.0069602,2125,1628,9
1779265412.007116,2117,2071,9
1779265412.008536,2036,2301,9
1779265412.00991,2034,2100,9
1779265412.0176241,2075,1957,9
1779265412.019649,1987,2201,9
1779265412.023542,1993,2132,9
1779265412.0249002,2082,1795,9
1779265412.02724,2115,1375,9
1779265412.032715,2036,1733,9
1779265412.036469,2003,2089,9
1779265412.036569,2008,2383,9
1779265412.036623,2072,2020,9
1779265412.036743,2032,2034,9
1779265412.036858,1986,2251,9
1779265412.036949,2031,1980,9
1779265412.037052,2130,1589,9
1779265412.038475,2126,1667,9
1779265412.039875,2031,2089,9
1779265412.042468,1992,2155,9
1779265412.04393,2007,1973,9
1779265412.046565,1994,2174,9
1779265412.0479019,1931,2321,9
1779265412.055744,1959,2155,9
1779265412.058862,2143,1655,9
1779265412.059215,2187,1533,9
1779265412.062363,2004,1985,9
1779265412.063099,1981,2148,9
1779265412.070016,1983,2180,9
1779265412.070349,2014,2009,9
1779265412.0708039,2012,2219,9
1779265412.0712352,1952,2268,9
1779265412.071428,2074,1902,9
1779265412.073677,2171,1624,9
1779265412.074542,2145,1928,9
1779265412.074743,2037,2203,9
1779265412.076234,1978,2153,9
1779265412.0788631,2058,1965,9
1779265412.0849931,2057,2154,9
1779265412.085619,1940,2299,9
1779265412.087323,2002,1898,9
1779265412.091106,2134,1625,9
1779265412.091815,2144,1753,9
1779265412.093035,2053,2153,9
1779265412.095378,1984,2184,9
1779265412.100739,2027,1992,9
1779265412.1010711,2042,1988,9
1779265412.1035788,1983,2273,9
1779265412.1042979,1977,2135,9
1779265412.1044512,2086,1664,9
1779265412.104567,2189,1544,9
1779265412.105887,2124,1995,9
1779265412.1084669,2048,2208,9
1779265412.11098,2016,2215,9
1779265412.112302,2069,1913,9
1779265412.114934,2011,2105,9
1779265412.1166332,1968,2133,9
1779265412.123452,2037,1775,9
1779265412.125636,2147,1466,9
1779265412.125953,2121,1642,9
1779265412.128088,2035,1995,9
1779265412.131499,1998,2056,9
1779265412.1368818,2050,1848,9
1779265412.1373,2031,1988,9
1779265412.1376908,1981,2138,9
1779265412.140648,2015,1870,9
1779265412.141005,2130,1548,9
1779265412.141131,2171,1702,9
1779265412.14129,2074,2020,9
1779265412.1426408,2024,2146,9
1779265412.1439638,2040,1990,9
1779265412.1526139,2049,1951,9
1779265412.157048,2013,2210,9
1779265412.1581922,2008,1967,9
1779265412.1588302,2108,1595,9
1779265412.161055,2170,1517,9
1779265412.1669261,2111,1893,9
1779265412.169627,2028,2153,9
1779265412.169952,1994,2138,9
1779265412.170101,2077,1854,9
1779265412.170227,2043,2121,9
1779265412.170301,1982,2142,9
1779265412.1704068,2060,1797,9
1779265412.17052,2185,1519,9
1779265412.171909,2140,1764,9
1779265412.174644,2050,2119,9
1779265412.175982,2024,2146,9
1779265412.1786351,2071,1951,9
1779265412.1801841,2031,2074,9
1779265412.187524,1990,2166,9
1779265412.189234,2038,1900,9
1779265412.191772,2132,1555,9
1779265412.1944761,2160,1652,9
1779265412.195613,2061,1977,9
1779265412.1973782,2006,2132,9
1779265412.20273,2019,1994,9
1779265412.2032902,2078,1988,9
1779265412.203507,1980,2287,9
1779265412.2059011,1969,2136,9
1779265412.206099,2082,1734,9
1779265412.206961,2162,1547,9
1779265412.2070138,2098,1900,9
1779265412.208438,1992,2102,9
1779265412.209811,1991,2077,9
1779265412.218431,2052,1899,9
1779265412.21914,2018,2045,9
1779265412.221497,1988,2079,9
1779265412.221806,2053,1798,9
1779265412.235563,2172,1549,9
1779265412.235729,2141,1857,9
1779265412.235866,2036,2127,9
1779265412.235966,1999,2144,9
1779265412.236047,2039,1916,9
1779265412.236187,2041,2110,9
1779265412.236297,1975,2294,9
1779265412.236661,2023,1962,9
1779265412.236722,2136,1539,9
1779265412.238136,2158,1688,9
1779265412.240767,2060,2145,9
1779265412.2420979,2022,2201,9
1779265412.2446778,2069,2024,9
1779265412.245995,2084,2010,9
1779265412.255119,1997,2313,9
1779265412.257026,1994,2184,9
1779265412.25868,2109,1704,9
1779265412.260549,2191,1519,9
1779265412.261172,2125,1928,9
1779265412.263245,2026,2081,9
1779265412.2682729,1993,2101,9
1779265412.268967,2056,1998,9
1779265412.269333,2022,2225,9
1779265412.269587,1992,2176,9
1779265412.272456,2056,1871,9
1779265412.272513,2181,1537,9
1779265412.272562,2154,1834,9
1779265412.27389,2047,2094,9
1779265412.2764769,2011,2151,9
1779265412.284239,2059,1918,9
1779265412.287393,2071,2044,9
1779265412.290563,1993,2210,9
1779265412.291121,2007,1866,9
1779265412.292953,2136,1577,9
1779265412.301093,2168,1618,9
1779265412.3019688,2077,1933,9
1779265412.302027,2038,2077,9
1779265412.3021178,2049,1951,9
1779265412.302231,2058,1917,9
1779265412.302405,1996,2232,9
1779265412.302506,1962,2136,9
1779265412.3025548,2071,1697,9
1779265412.304024,2179,1534,9
1779265412.3072052,2116,1930,9
1779265412.3086221,2016,2186,9
1779265412.309983,2012,2138,9
1779265412.312597,2063,1917,9
1779265412.3143628,2023,2172,9
1779265412.320641,1990,2137,9
1779265412.3218539,2043,1801,9
1779265412.32586,2153,1516,9
1779265412.326557,2147,1793,9
1779265412.3293161,2026,2100,9
1779265412.3345,2018,2105,9
1779265412.334801,2043,1915,9
1779265412.3352609,2038,2020,9
1779265412.335689,2000,2179,9
1779265412.338758,2048,2007,9
1779265412.3389592,2138,1663,9
1779265412.339086,2169,1692,9
1779265412.340535,2072,1998,9
1779265412.341902,2007,2239,9
1779265412.353248,2051,2106,9
1779265412.356659,2068,1986,9
1779265412.3637881,1992,2279,9
1779265412.364119,1973,2192,9
1779265412.367518,2095,1798,9
1779265412.3675961,2185,1562,9
1779265412.367729,2110,1941,9
1779265412.367879,2015,2141,9
1779265412.367956,1997,2180,9
1779265412.368073,2062,1944,9
1779265412.368187,2018,2182,9
1779265412.36832,1984,2180,9
1779265412.368423,2074,1871,9
1779265412.369844,2191,1566,9
1779265412.372422,2169,1809,9
1779265412.373906,2065,2127,9
1779265412.376485,1991,2223,9
1779265412.377801,2034,2016,9
1779265412.3849332,2057,2095,9
1779265412.387213,1994,2334,9
1779265412.392565,2006,2033,9
1779265412.40081,2114,1665,9
1779265412.4008791,2173,1704,9
1779265412.400935,2071,2090,9
1779265412.4009862,2019,2170,9
1779265412.4010382,2034,2010,9
1779265412.401362,2066,2027,9
1779265412.401803,2006,2261,9
1779265412.402105,1991,2105,9
1779265412.405287,2080,1770,9
1779265412.405741,2193,1580,9
1779265412.40584,2142,1983,9
1779265412.408531,2041,2181,9
1779265412.4099588,2057,2136,9
1779265412.418279,2082,1995,9
1779265412.423347,2034,2228,9
1779265412.432387,1994,2246,9
1779265412.4361851,2049,1975,9
1779265412.4363341,2154,1554,9
1779265412.4364312,2143,1841,9
1779265412.436537,2048,2148,9
1779265412.4366279,2022,2215,9
1779265412.4367318,2039,2037,9
1779265412.437008,2051,2151,9
1779265412.437084,2005,2328,9
1779265412.437172,2014,2098,9
1779265412.437241,2141,1690,9
1779265412.438702,2167,1697,9
1779265412.440149,2086,2087,9
1779265412.442836,2014,2238,9
1779265412.444274,2041,2112,9
1779265412.4458618,2036,2061,9
1779265412.462114,1990,2406,9
1779265412.464067,1989,2237,9
1779265412.470264,2125,1813,9
1779265412.471188,2195,1591,9
1779265412.474231,2128,1952,9
1779265412.474543,2031,2181,9
1779265412.474678,2036,2197,9
1779265412.4747589,2077,2044,9
1779265412.4749289,2047,2202,9
1779265412.4750059,2003,2246,9
1779265412.4750972,2048,1934,9
1779265412.475191,2154,1618,9
1779265412.475277,2135,1838,9
1779265412.475455,2036,2116,9
1779265412.4768882,1969,2252,9
1779265412.4784179,2056,2034,9
1779265412.489565,2073,2142,9
1779265412.48999,1968,2344,9
1779265412.495842,2005,2072,9
1779265412.4963431,2109,1692,9
1779265412.50237,2166,1677,9
1779265412.50576,2078,2071,9
1779265412.506115,1998,2203,9
1779265412.506249,2014,2068,9
1779265412.5065758,2036,2008,9
1779265412.506664,1981,2303,9
1779265412.506757,1976,2204,9
1779265412.50684,2087,1848,9
1779265412.50695,2188,1688,9
1779265412.507086,2160,2108,9
1779265412.508551,2075,2284,9
1779265412.5099452,2015,2244,9
1779265412.512746,2078,2039,9
1779265412.5141408,2062,2219,9
1779265412.516869,2014,2253,9
1779265412.5260181,2055,1989,9
1779265412.534139,2168,1623,9
1779265412.541897,2157,1876,9
1779265412.542896,2054,2150,9
1779265412.5429928,2012,2195,9
1779265412.543069,2047,2017,9
1779265412.5432389,2074,2145,9
1779265412.543782,1995,2337,9
1779265412.543927,1988,2086,9
1779265412.5440052,2118,1706,9
1779265412.544113,2196,1729,9
1779265412.544201,2086,2124,9
1779265412.544272,2002,2251,9
1779265412.544415,2017,2115,9
1779265412.545888,2059,2014,9
1779265412.557902,1999,2289,9
1779265412.558641,1992,2238,9
1779265412.570386,2070,1839,9
1779265412.574118,2179,1618,9
1779265412.574271,2113,1958,9
1779265412.574412,2050,2222,9
1779265412.574551,2011,2239,9
1779265412.574671,2090,2045,9
1779265412.574782,2050,2275,9
1779265412.5748842,1987,2323,9
1779265412.575039,2045,1916,9
1779265412.575181,2167,1579,9
1779265412.5753012,2159,1749,9
1779265412.575364,2040,2099,9
1779265412.576742,1981,2221,9
1779265412.578167,2016,2020,9
1779265412.579617,2037,2070,9
1779265412.582266,1972,2332,9
1779265412.583682,2011,2175,9
1779265412.593528,2101,1760,9
1779265412.5967638,2182,1762,9
1779265412.60009,2073,2110,9
1779265412.6037629,2018,2253,9
1779265412.612763,2021,2192,9
1779265412.612895,2097,2073,9
1779265412.612981,1998,2275,9
1779265412.613056,1991,2208,9
1779265412.613131,2068,1896,9
1779265412.6134138,2177,1619,9
1779265412.6136901,2131,1991,9
1779265412.613869,2033,2192,9
1779265412.6139688,2011,2221,9
1779265412.614051,2059,2054,9
1779265412.614114,2008,2264,9
1779265412.616621,1984,2304,9
1779265412.6183228,2030,2044,9
1779265412.630199,2141,1636,9
1779265412.63421,2143,1814,9
1779265412.642101,2045,2080,9
1779265412.6430871,1997,2206,9
1779265412.64323,2040,1990,9
1779265412.643384,2057,2100,9
1779265412.643523,1978,2359,9
1779265412.6436212,1986,2028,9
1779265412.643671,2107,1710,9
1779265412.643719,2156,1682,9
1779265412.643766,2049,2033,9
1779265412.6439,1960,2278,9
1779265412.643948,2014,2198,9
1779265412.646483,2074,1983,9
1779265412.6482198,1974,2128,9
1779265412.649612,1983,2258,9
1779265412.652289,2089,1933,9
1779265412.653598,2223,1612,9
1779265412.6623518,2130,1777,9
1779265412.662552,2004,2113,9
1779265412.67058,1980,2440,9
1779265412.675746,2115,2039,9
1779265412.676106,2094,2093,9
1779265412.676524,2033,2266,9
1779265412.679088,2085,2034,9
1779265412.679849,2178,1637,9
1779265412.6799018,2189,1796,9
1779265412.67995,2121,2280,9
1779265412.679998,2056,2321,9
1779265412.68007,2082,1994,9
1779265412.680208,2065,2032,9
1779265412.681643,1996,2266,9
1779265412.684277,1974,2171,9
1779265412.690956,2122,1673,9
1779265412.692693,2196,1719,9
1779265412.694547,2123,2060,9
1779265412.697189,2085,2335,9
1779265412.700415,2052,2177,9
1779265412.705678,2110,1838,9
1779265412.706141,1984,2359,9
1779265412.7063098,1976,2396,9
1779265412.708758,2124,1886,9
1779265412.709491,2255,1594,9
1779265412.709544,2126,1886,9
1779265412.709627,1995,2179,9
1779265412.709734,1979,2243,9
1779265412.71235,2095,2095,9
1779265412.7138932,2057,2023,9
1779265412.716557,1967,2239,9
1779265412.717877,2038,2110,9
1779265412.720459,2130,1670,9
1779265412.721992,2140,1768,9
1779265412.7282271,2058,2165,9
1779265412.731644,2016,2229,9
1779265412.7349498,2057,2134,9
1779265412.73575,2071,2116,9
1779265412.7431538,1970,2435,9
1779265412.7468631,1993,2169,9
1779265412.746957,2089,1712,9
1779265412.747033,2143,1669,9
1779265412.747103,2062,2162,9
1779265412.747187,2015,2179,9
1779265412.747296,2038,2072,9
1779265412.747375,2036,2081,9
1779265412.7487848,1965,2352,9
1779265412.7501729,1981,2268,9
1779265412.751692,2015,1878,9
1779265412.757779,2101,1681,9
1779265412.759477,2082,1987,9
1779265412.761306,2043,2203,9
1779265412.7616372,2054,2341,9
1779265412.764255,2138,2133,9
1779265412.767133,2037,2212,9
1779265412.7725608,2059,2312,9
1779265412.772755,2037,1996,9
1779265412.772989,2174,1765,9
1779265412.775326,2205,1869,9
1779265412.77631,2083,2206,9
1779265412.7764091,2022,2338,9
1779265412.777847,1999,2142,9
1779265412.780716,1971,2095,9
1779265412.7820642,1935,2489,9
1779265412.7846909,1949,2287,9
1779265412.78601,2064,1971,9
1779265412.787487,2093,1798,9
1779265412.7948182,2135,2174,9
1779265412.79587,2136,2295,9
1779265412.803564,2080,2299,9
1779265412.803812,2084,2162,9
1779265412.809209,2019,2432,9
1779265412.809681,2042,2344,9
1779265412.809997,2181,2136,9
1779265412.810283,2188,1871,9
1779265412.813386,2110,2041,9
1779265412.8135839,1961,2419,9
1779265412.813874,1839,2524,9
1779265412.813979,2040,2388,9
1779265412.814102,2077,2603,9
1779265412.816896,2114,2700,9
1779265412.818444,2132,2469,9
1779265412.8251252,2210,2264,9
1779265412.828298,2257,2288,9
1779265412.828702,2148,2663,9
1779265412.834283,2038,2828,9
1779265412.839947,2008,2635,9
1779265412.840329,1967,2725,9
1779265412.8426151,1892,2812,9
1779265412.843233,2012,2672,9
1779265412.843484,2110,2577,9
1779265412.843644,2201,2582,9
1779265412.843761,2069,2906,9
1779265412.8438358,2017,2988,9
1779265412.843936,2120,3081,9
1779265412.846109,2135,2982,9
1779265412.84748,1927,3061,9
1779265412.8501902,1799,2759,9
1779265412.851518,1808,2845,9
1779265412.854114,2139,2463,9
1779265412.855593,2157,2679,9
1779265412.869976,2069,2846,9
1779265412.875322,2122,3035,9
1779265412.875819,2350,2900,9
1779265412.8783529,2224,3142,9
1779265412.879221,2066,2828,9
1779265412.879772,2175,2809,9
1779265412.879833,2248,2574,9
1779265412.879883,2249,2503,9
1779265412.879931,2088,2730,9
1779265412.879978,1953,2805,9
1779265412.8800251,1969,2954,9
1779265412.880071,2060,2999,9
1779265412.881506,1966,2910,9
1779265412.884199,1997,2755,9
1779265412.890483,2072,2654,9
1779265412.8939571,2229,2157,9
1779265412.8945549,2092,2556,9
1779265412.8972669,2022,2618,9
1779265412.900009,1985,2692,9
1779265412.905287,2104,2640,9
1779265412.908214,2009,2942,9
1779265412.9089952,2055,2687,9
1779265412.909102,2179,2685,9
1779265412.909156,2209,2218,9
1779265412.909236,2042,2386,9
1779265412.9092858,1966,2526,9
1779265412.9106061,1918,2546,9
1779265412.911981,2075,2502,9
1779265412.914589,2125,2711,9
1779265412.916256,1994,2664,9
1779265412.9183109,2015,2471,9
1779265412.919637,2181,2100,9
1779265412.928478,2250,2117,9
1779265412.931039,2099,2487,9
1779265412.935136,2030,2683,9
1779265412.941859,2016,2614,9
1779265412.942241,2054,2754,9
1779265412.942552,1926,2736,9
1779265412.943168,1999,2605,9
1779265412.9459682,2126,2637,9
1779265412.9470809,2198,2228,9
1779265412.9471738,2131,2448,9
1779265412.947242,2076,2670,9
1779265412.947335,1986,2776,9
1779265412.947399,2005,2692,9
1779265412.947501,1973,2892,9
1779265412.95014,2018,2556,9
1779265412.9517179,2122,2541,9
1779265412.9585779,2138,2120,9
1779265412.960983,2083,2294,9
1779265412.963764,1917,2505,9
1779265412.971863,2025,2656,9
1779265412.972218,2182,2526,9
1779265412.972449,2103,2744,9
1779265412.972781,1966,2599,9
1779265412.973056,1982,2451,9
1779265412.973279,2074,2199,9
1779265412.9760718,2212,2189,9
1779265412.9762099,2044,2365,9
1779265412.976514,1902,2717,9
1779265412.9779131,1953,2525,9
1779265412.980549,2052,2551,9
1779265412.981899,1977,2628,9
1779265412.984534,1896,2492,9
1779265412.985856,2156,2319,9
1779265412.9931068,2307,1940,9
1779265412.995821,2163,2271,9
1779265413.000732,2108,2617,9
1779265413.002081,2039,2509,9
1779265413.004103,2133,2321,9
1779265413.008995,1974,2764,9
1779265413.0094411,1734,2486,9
1779265413.009701,1877,2369,9
1779265413.012545,2157,1843,9
1779265413.012864,2267,2137,9
1779265413.013021,2171,2373,9
1779265413.013128,1987,2442,9
1779265413.013234,1946,2285,9
1779265413.0144389,1812,2541,9
1779265413.015764,1906,2540,9
1779265413.018373,2169,2211,9
1779265413.025356,2317,2072,9
1779265413.027264,2263,2021,9
1779265413.0295181,2097,2194,9
1779265413.030561,2026,2430,9
1779265413.0378041,2074,2252,9
1779265413.0405571,2199,2275,9
1779265413.041323,2162,2584,9
1779265413.0415978,2052,2411,9
1779265413.041763,2101,2241,9
1779265413.041813,2120,1703,9
1779265413.041945,2028,2108,9
1779265413.042155,1793,2179,9
1779265413.0434759,1927,2249,9
1779265413.046056,2103,2039,9
1779265413.047512,2145,2489,9
1779265413.050121,2004,2341,9
1779265413.0515058,1975,1743,9
1779265413.061258,2019,1574,9
1779265413.0631418,2081,2372,9
1779265413.065587,2054,2364,9
1779265413.066282,1873,2032,9
1779265413.067486,1990,2004,9
1779265413.074501,2155,2164,9
1779265413.074851,2195,2525,9
1779265413.077173,2125,2076,9
1779265413.078018,2204,1513,9
1779265413.0780811,2190,1391,9
1779265413.078308,2183,2219,9
1779265413.078489,2071,2140,9
1779265413.07854,2021,1948,9
1779265413.079873,2095,2083,9
1779265413.08153,1994,2393,9
1779265413.091927,1995,2177,9
1779265413.092405,2051,1566,9
1779265413.095108,2095,1311,9
1779265413.095892,2026,1793,9
1779265413.0965602,2001,2075,9
1779265413.103601,2094,1915,9
1779265413.10399,2139,1827,9
1779265413.104227,1948,2163,9
1779265413.104606,1983,2246,9
1779265413.107338,1991,1800,9
1779265413.107647,2176,1092,9
1779265413.107798,2242,1436,9
1779265413.107935,2129,2127,9
1779265413.110616,2139,2201,9
1779265413.111964,2096,1887,9
1779265413.114905,2079,2128,9
1779265413.116491,1930,2312,9
1779265413.1178172,1985,2032,9
1779265413.1257112,2068,1754,9
1779265413.1274922,2067,1814,9
1779265413.1294432,2022,2216,9
1779265413.135042,1980,2444,9
1779265413.135316,2073,2208,9
1779265413.141002,2091,2124,9
1779265413.143316,2036,2327,9
1779265413.1441028,2041,2101,9
1779265413.144314,2179,1422,9
1779265413.144362,2196,926,9
1779265413.144475,2040,1430,9
1779265413.144525,1929,1786,9
1779265413.144599,1911,1295,9
1779265413.145917,1862,685,9
1779265413.148489,2018,1333,9
1779265413.1550589,2052,1098,9
1779265413.158307,2157,686,9
1779265413.158697,2277,176,9
1779265413.161152,2196,926,9
1779265413.161807,2029,1584,9
1779265413.164093,2005,1374,9
1779265413.169318,2001,526,9
1779265413.169677,2033,809,9
1779265413.1700149,1979,1123,9
1779265413.1703198,2025,855,9
1779265413.173295,2039,143,9
1779265413.173525,2033,435,9
1779265413.173609,1970,1294,9
1779265413.176319,2008,1396,9
1779265413.177643,1963,883,9
1779265413.180251,2025,852,9
1779265413.181958,1935,1589,9
1779265413.184593,2050,1421,9
1779265413.19188,2071,599,9
1779265413.194785,2218,548,9
1779265413.195193,2258,1176,9
1779265413.1967092,2182,1451,9
1779265413.20074,2082,1389,9
1779265413.2058618,2091,1446,9
1779265413.206063,2031,1939,9
1779265413.2065642,1958,2015,9
1779265413.209004,2030,1558,9
1779265413.209911,2108,1356,9
1779265413.2100391,2023,1350,9
1779265413.210231,1978,1647,9
1779265413.210495,1890,1788,9
1779265413.2119,2074,2089,9
1779265413.2143989,2082,2101,9
1779265413.220376,1948,2322,9
1779265413.220497,1890,2086,9
1779265413.224273,2027,1828,9
1779265413.226478,2230,1828,9
1779265413.227714,2124,2285,9
1779265413.228389,2172,2298,9
1779265413.230352,2142,2264,9
1779265413.2355,2181,2183,9
1779265413.235779,2030,2453,9
1779265413.235934,2009,2357,9
1779265413.236258,2081,2144,9
1779265413.2391338,2173,1803,9
1779265413.2406778,2079,2164,9
1779265413.2419999,2028,2491,9
1779265413.2445922,2085,2398,9
1779265413.245909,2118,2238,9
1779265413.2485719,2017,2632,9
1779265413.2497642,1942,2351,9
1779265413.271313,1991,2045,9
1779265413.271866,2175,1572,9
1779265413.272087,2160,1805,9
1779265413.2746692,2024,2309,9
1779265413.275319,1799,2317,9
1779265413.275537,1759,2092,9
1779265413.2755892,1986,2289,9
1779265413.275717,2066,2483,9
1779265413.275821,2151,2071,9
1779265413.2759192,2203,1771,9
1779265413.2760892,2247,1841,9
1779265413.276139,2159,2218,9
1779265413.276256,2109,2411,9
1779265413.277598,2158,2285,9
1779265413.2801962,2130,2287,9
1779265413.287134,1965,2514,9
1779265413.287864,1941,2272,9
1779265413.292577,2012,1928,9
1779265413.294515,2197,1410,9
1779265413.296427,2102,2045,9
1779265413.301485,2039,2177,9
1779265413.30192,2042,2251,9
1779265413.302334,2071,1986,9
1779265413.302617,1983,2286,9
1779265413.3054562,2027,2342,9
1779265413.3057191,2086,1905,9
1779265413.305773,2184,1533,9
1779265413.305822,2146,2078,9
1779265413.308467,2080,2356,9
1779265413.3097868,2080,2112,9
1779265413.3123798,2038,2128,9
1779265413.3137221,2062,2212,9
1779265413.31636,2010,2502,9
1779265413.31776,2074,2202,9
1779265413.326816,2183,1855,9
1779265413.328914,2241,1725,9
1779265413.3303208,2036,2158,9
1779265413.33284,1988,2357,9
1779265413.333059,2114,2250,9
1779265413.33851,2107,2103,9
1779265413.338924,2079,2383,9
1779265413.3417768,2064,2292,9
1779265413.341994,2093,2041,9
1779265413.342226,2196,1652,9
1779265413.3423948,2127,2112,9
1779265413.342588,2115,2340,9
1779265413.343911,2055,2282,9
1779265413.346493,2114,2095,9
1779265413.356709,1957,2239,9
1779265413.356951,2061,2378,9
1779265413.360524,2070,1989,9
1779265413.36733,2125,1602,9
1779265413.367913,2166,1852,9
1779265413.3686101,2095,2278,9
1779265413.371236,2120,2474,9
1779265413.371532,2148,2125,9
1779265413.371586,2098,2145,9
1779265413.3716638,2009,2391,9
1779265413.371766,1988,1994,9
1779265413.371864,2121,1734,9
1779265413.372022,2168,1787,9
1779265413.373518,2101,2181,9
1779265413.3761039,2013,2367,9
1779265413.3774211,2063,2256,9
1779265413.380023,2065,2151,9
1779265413.381469,1999,2304,9
1779265413.389945,2043,2362,9
1779265413.39057,2147,1999,9
1779265413.3917,2279,1697,9
1779265413.39357,2131,1866,9
1779265413.396301,2046,2142,9
1779265413.397047,2050,2259,9
1779265413.404316,2144,2100,9
1779265413.404893,2049,2299,9
1779265413.405065,1986,2407,9
1779265413.4054642,2057,2157,9
1779265413.4057841,2155,1662,9
1779265413.408455,2152,1866,9
1779265413.408722,2024,2184,9
1779265413.410193,2011,2322,9
1779265413.411341,2079,2236,9
1779265413.419339,2075,2215,9
1779265413.420001,2038,2410,9
1779265413.4232352,2036,2042,9
1779265413.4254951,2155,1770,9
1779265413.426134,2163,1661,9
1779265413.4263291,2099,2024,9
1779265413.434379,2068,2284,9
1779265413.4346979,2068,2217,9
1779265413.435412,2068,2215,9
1779265413.4378,2034,2428,9
1779265413.4386408,2010,2265,9
1779265413.4387698,2078,1895,9
1779265413.438889,2141,1590,9
1779265413.440208,2110,2078,9
1779265413.441579,2072,2152,9
1779265413.444233,2004,2276,9
1779265413.4455512,2117,2155,9
1779265413.4483972,2033,2343,9
1779265413.449744,1924,2333,9
1779265413.456091,2065,2085,9
1779265413.460051,2189,1679,9
1779265413.462877,2215,1942,9
1779265413.463674,2109,2205,9
1779265413.471319,2039,2413,9
1779265413.4717839,2022,2018,9
1779265413.475338,2070,2213,9
1779265413.475435,2048,2338,9
1779265413.475509,2050,1996,9
1779265413.475629,2154,1680,9
1779265413.475762,2217,1705,9
1779265413.4758642,2121,2082,9
1779265413.475986,1993,2182,9
1779265413.477421,1937,2222,9
1779265413.480215,2033,2094,9
1779265413.4938939,2028,2431,9
1779265413.504435,1930,2252,9
1779265413.5045388,2057,1941,9
1779265413.504616,2189,1376,9
1779265413.5046852,2171,1952,9
1779265413.5047948,2081,2130,9
1779265413.504877,2016,2113,9
1779265413.504949,2076,2004,9
1779265413.5050108,2079,2169,9
1779265413.505077,2000,2290,9
1779265413.505194,2056,1972,9
1779265413.505265,2139,1378,9
1779265413.505329,2107,1722,9
1779265413.507869,2014,1919,9
1779265413.514813,2027,2253,9
1779265413.514934,2055,2007,9
1779265413.5150049,2074,1996,9
1779265413.517014,2011,2367,9
1779265413.5364711,2003,2080,9
1779265413.54051,2114,1703,9
1779265413.5406039,2218,1594,9
1779265413.540672,2081,2071,9
1779265413.540734,1992,2299,9
1779265413.5407948,2016,2116,9
1779265413.540855,2058,1999,9
1779265413.5409138,1981,2320,9
1779265413.540973,1991,2219,9
1779265413.541031,2036,1838,9
1779265413.541089,2164,1432,9
1779265413.541228,2095,1920,9
1779265413.541365,1996,2270,9
1779265413.54404,2012,2170,9
1779265413.5529459,2052,1969,9
1779265413.557365,2027,2273,9
1779265413.5615182,1949,2356,9
1779265413.567856,2036,2024,9
1779265413.570949,2148,1474,9
1779265413.571062,2153,1736,9
1779265413.5711858,2097,2230,9
1779265413.57134,2026,2304,9
1779265413.571558,2061,2061,9
1779265413.571688,2071,2037,9
1779265413.571826,2001,2331,9
1779265413.571946,2024,2132,9
1779265413.572216,2117,1827,9
1779265413.572288,2201,1724,9
1779265413.573687,2095,2238,9
1779265413.576213,2025,2339,9
1779265413.5776231,2010,2272,9
1779265413.58031,2034,2084,9
1779265413.5826502,1972,2367,9
1779265413.603609,1964,2286,9
1779265413.6065578,2084,1987,9
1779265413.6067111,2184,1567,9
1779265413.60682,2144,2043,9
1779265413.6069498,2055,2353,9
1779265413.6070552,2003,2371,9
1779265413.6071339,2058,2211,9
1779265413.607296,2050,2401,9
1779265413.6074429,1998,2455,9
1779265413.607571,2062,2167,9
1779265413.607664,2168,1856,9
1779265413.6077282,2170,1907,9
1779265413.6077938,2048,2295,9
1779265413.610306,2002,2441,9
1779265413.611983,2053,2303,9
1779265413.631683,2077,2368,9
1779265413.6325061,2013,2472,9
1779265413.635669,1985,2251,9
1779265413.63652,2084,2014,9
1779265413.6369762,2194,1892,9
1779265413.637109,2069,2289,9
1779265413.6372259,2017,2466,9
1779265413.637331,2010,2348,9
1779265413.6374772,2079,2238,9
1779265413.637574,2019,2656,9
1779265413.637781,1985,2396,9
1779265413.637899,2070,2118,9
1779265413.638039,2164,1700,9
1779265413.639293,2135,2036,9
1779265413.642016,2028,2332,9
1779265413.643473,2010,2389,9
1779265413.646123,2076,2126,9
1779265413.647485,2105,2387,9
1779265413.656488,2031,2419,9
1779265413.657635,2035,2073,9
1779265413.659869,2161,1673,9
1779265413.662987,2190,1801,9
1779265413.670708,2090,2217,9
1779265413.6715379,2000,2300,9
1779265413.674622,2033,2201,9
1779265413.674768,2052,2017,9
1779265413.674885,1979,2311,9
1779265413.6749609,1996,2178,9
1779265413.675067,2072,1771,9
1779265413.675149,2181,1692,9
1779265413.675252,2135,2199,9
1779265413.6753201,2020,2369,9
1779265413.678114,2019,2309,9
1779265413.679648,2078,2222,9
1779265413.693089,2040,2466,9
1779265413.70122,1996,2364,9
1779265413.701797,2065,2062,9
1779265413.7049549,2161,1816,9
1779265413.7059782,2139,2126,9
1779265413.706082,2057,2373,9
1779265413.706183,2021,2487,9
1779265413.7063549,2050,2286,9
1779265413.706749,2055,2492,9
1779265413.7068212,1989,2481,9
1779265413.7068958,2038,2193,9
1779265413.706987,2164,1764,9
1779265413.707041,2164,1927,9
1779265413.7086248,2082,2331,9
1779265413.7100291,2030,2480,9
1779265413.711383,2070,2331,9
1779265413.714147,2059,2387,9
1779265413.715811,2008,2460,9
1779265413.7172852,2010,2274,9
1779265413.72324,2079,1859,9
1779265413.723308,2177,1674,9
1779265413.7248268,2121,2095,9
1779265413.731751,2042,2311,9
1779265413.743807,2036,2219,9
1779265413.743967,2069,2086,9
1779265413.744138,2014,2489,9
1779265413.744224,2000,2411,9
1779265413.744329,2071,2224,9
1779265413.744415,2197,1850,9
1779265413.7444968,2160,2142,9
1779265413.7445781,2045,2446,9
1779265413.74475,1989,2537,9
1779265413.746115,2067,2325,9
1779265413.747514,2047,2489,9
1779265413.7569559,1973,2535,9
1779265413.759199,2024,2256,9
1779265413.7633312,2136,1978,9
1779265413.774223,2159,2024,9
1779265413.774482,2038,2361,9
1779265413.774637,1969,2524,9
1779265413.7747378,2006,2333,9
1779265413.774815,2069,2321,9
1779265413.774882,2018,2470,9
1779265413.774955,2006,2331,9
1779265413.775029,2103,2008,9
1779265413.7750888,2195,1793,9
1779265413.7751522,2120,2143,9
1779265413.775352,2067,2398,9
1779265413.7781,2036,2318,9
1779265413.779545,2073,2180,9
1779265413.782808,2019,2539,9
1779265413.784234,1984,2409,9
1779265413.785624,2067,2141,9
1779265413.793969,2171,1765,9
1779265413.796729,2140,1985,9
1779265413.799419,2061,2266,9
1779265413.803088,1989,2407,9
1779265413.808953,2049,2149,9
1779265413.809578,2045,2388,9
1779265413.81023,1975,2489,9
1779265413.8127942,2032,2098,9
1779265413.8138628,2123,1788,9
1779265413.8139598,2143,1878,9
1779265413.814035,2095,2144,9
1779265413.814183,2006,2303,9
1779265413.814264,2053,2156,9
1779265413.814389,2068,2115,9
1779265413.8157482,1978,2391,9
1779265413.8183959,1986,2243,9
1779265413.826354,2102,1847,9
1779265413.829344,2202,1667,9
1779265413.835017,2116,2033,9
1779265413.841449,2036,2219,9
1779265413.8443289,2022,2250,9
1779265413.844744,2084,2046,9
1779265413.844811,2054,2334,9
1779265413.844918,2002,2266,9
1779265413.8450198,2067,1945,9
1779265413.845122,2153,1596,9
1779265413.845292,2141,1882,9
1779265413.845403,2049,2197,9
1779265413.845484,1993,2279,9
1779265413.845558,2047,2051,9
1779265413.8482509,2039,2136,9
1779265413.849644,1986,2327,9
1779265413.852315,2021,1985,9
1779265413.853678,2137,1606,9
1779265413.856071,2180,1739,9
1779265413.863762,2065,2187,9
1779265413.867132,2011,2317,9
1779265413.8701088,1999,2126,9
1779265413.8710861,2019,2172,9
1779265413.878637,1963,2382,9
1779265413.8793972,1971,2236,9
1779265413.879891,2064,1798,9
1779265413.8804631,2168,1554,9
1779265413.883651,2066,1973,9
1779265413.8838131,1957,2208,9
1779265413.8839731,1966,2209,9
1779265413.884117,2033,1907,9
1779265413.884247,1983,2284,9
1779265413.8843179,1917,2252,9
1779265413.885664,2003,1799,9
1779265413.888295,2109,1505,9
1779265413.896605,2081,1833,9
1779265413.899085,1992,2120,9
1779265413.902139,1981,2206,9
1779265413.9035451,1991,1970,9
1779265413.910923,1985,2091,9
1779265413.911595,1923,2363,9
1779265413.9120052,1963,1961,9
1779265413.912365,2055,1522,9
1779265413.91477,2111,1650,9
1779265413.9157991,1981,2095,9
1779265413.915879,1988,2241,9
1779265413.91595,2005,2105,9
1779265413.916019,1972,1969,9
1779265413.916088,1896,2299,9
1779265413.917266,1914,2240,9
1779265413.919903,2041,1780,9
1779265413.921262,2171,1545,9
1779265413.9239218,2036,1972,9
1779265413.925225,1925,2160,9
1779265413.933741,1899,2163,9
1779265413.935713,2023,1844,9
1779265413.9416409,1990,2111,9
1779265413.94301,1952,2167,9
1779265413.95026,2002,1849,9
1779265413.95076,2102,1380,9
1779265413.951284,2098,1699,9
1779265413.9516869,2015,2094,9
1779265413.9523132,1972,2122,9
1779265413.952818,2005,1892,9
1779265413.956046,1981,2034,9
1779265413.9561331,1919,2256,9
1779265413.956291,1940,1961,9
1779265413.9563708,2059,1588,9
1779265413.956445,2142,1531,9
1779265413.957768,2046,1960,9
1779265413.95923,1951,2164,9
1779265413.968708,1995,2004,9
1779265413.971597,2027,1931,9
1779265413.975313,1971,2258,9
1779265413.982777,1962,2080,9
1779265413.98349,2054,1659,9
1779265413.9840908,2153,1472,9
1779265413.987319,2075,1867,9
1779265413.987523,1983,2150,9
1779265413.987605,1990,2040,9
1779265413.987683,2055,1819,9
1779265413.987755,2049,2148,9
1779265413.9878552,2004,2213,9
1779265413.9879649,2015,1868,9
1779265413.9880471,2115,1492,9
1779265413.989393,2082,1726,9
1779265413.992053,1978,2123,9
1779265413.9934132,1965,2282,9
1779265413.9960399,2046,2039,9
1779265413.997314,2022,2097,9
1779265414.009509,1970,2255,9
1779265414.0100899,2013,1938,9
1779265414.012392,2122,1529,9
1779265414.016201,2171,1553,9
1779265414.021972,2091,1960,9
1779265414.0225909,2001,2163,9
1779265414.023488,2026,2023,9
1779265414.0268118,2046,1938,9
1779265414.026904,1985,2178,9
1779265414.0269802,1939,2041,9
1779265414.027103,2066,1650,9
1779265414.027214,2193,1418,9
1779265414.02739,2130,1940,9
1779265414.027495,2043,2181,9
1779265414.027638,1990,2031,9
1779265414.030305,2033,1776,9
1779265414.031689,1990,2095,9
1779265414.040409,1931,2226,9
1779265414.044271,2019,1823,9
1779265414.0486348,2135,1499,9
1779265414.054593,2150,1771,9
1779265414.055267,2077,2017,9
1779265414.058183,2014,2136,9
1779265414.058388,2072,1889,9
1779265414.059062,2092,2050,9
1779265414.0594602,2049,2308,9
1779265414.059542,2027,1945,9
1779265414.059614,2157,1587,9
1779265414.059684,2181,1497,9
1779265414.059753,2065,1918,9
1779265414.059823,2013,2113,9
1779265414.0612779,2050,2070,9
1779265414.0639958,2004,2117,9
1779265414.066102,1946,2308,9
1779265414.067789,1999,2161,9
1779265414.069942,2078,1686,9
1779265414.0713851,2167,1473,9
1779265414.079964,2123,1910,9
1779265414.085275,2032,2228,9
1779265414.0874162,1985,2168,9
1779265414.089963,1990,1823,9
1779265414.096119,1985,2152,9
1779265414.096666,1958,2435,9
1779265414.097389,2080,1928,9
1779265414.100589,2311,1408,9
1779265414.1006851,2217,1840,9
1779265414.100757,2007,2153,9
1779265414.100826,1988,2078,9
1779265414.100896,2077,1884,9
1779265414.100966,2129,1982,9
1779265414.101084,2028,2125,9
1779265414.101221,1923,1865,9
1779265414.103795,2018,1600,9
1779265414.112494,2119,1815,9
1779265414.1159308,2050,2053,9
1779265414.119874,2023,2142,9
1779265414.127378,2050,2001,9
1779265414.128015,2117,1955,9
1779265414.1313019,2023,2261,9
1779265414.131788,2018,2067,9
1779265414.13187,2048,1778,9
1779265414.131948,2135,1589,9
1779265414.132023,2021,1904,9
1779265414.132098,2050,2056,9
1779265414.1321652,1983,2157,9
1779265414.132232,2021,2014,9
1779265414.132298,2019,2156,9
1779265414.133665,1970,2178,9
1779265414.1364,2050,1717,9
1779265414.137843,2177,1324,9
1779265414.139253,2154,1605,9
1779265414.142105,2071,2049,9
1779265414.143481,1991,2227,9
1779265414.1574771,2014,1957,9
1779265414.16517,2022,2143,9
1779265414.168509,1952,2259,9
1779265414.168697,1980,2008,9
1779265414.1699562,2116,1654,9
1779265414.170018,2193,1564,9
1779265414.170069,2100,1942,9
1779265414.1701179,2018,2090,9
1779265414.170233,1988,2008,9
1779265414.170367,2046,2098,9
1779265414.170469,1969,2341,9
1779265414.170537,1994,2104,9
1779265414.170597,2062,1603,9
1779265414.1720252,2173,1464,9
1779265414.173701,2120,1834,9
1779265414.183723,2009,2201,9
1779265414.1946108,1994,2211,9
1779265414.195379,2107,1943,9
1779265414.198894,2058,2026,9
1779265414.199157,2059,2089,9
1779265414.199237,2007,1870,9
1779265414.199303,2106,1602,9
1779265414.200403,2130,1871,9
1779265414.200724,2057,2218,9
1779265414.20081,2015,2253,9
1779265414.200932,2080,1940,9
1779265414.201067,2044,1901,9
1779265414.2012138,1944,2287,9
1779265414.20132,1993,2101,9
1779265414.203949,2145,1739,9
1779265414.2052019,2192,1654,9
1779265414.207857,2110,1921,9
1779265414.2092228,1976,2153,9
1779265414.219105,1995,2150,9
1779265414.2216508,2072,2021,9
1779265414.2246442,2008,2298,9
1779265414.2285619,1958,2162,9
1779265414.234016,2064,1832,9
1779265414.234734,2151,1604,9
1779265414.2352278,2137,1953,9
1779265414.23557,2053,2162,9
1779265414.2361898,2034,2076,9
1779265414.239257,2040,1880,9
1779265414.239382,2043,2124,9
1779265414.239533,2009,2223,9
1779265414.239708,2038,1870,9
1779265414.239854,2174,1427,9
1779265414.239927,2159,1662,9
1779265414.241154,1997,1979,9
1779265414.244017,1994,2036,9
1779265414.2549372,2025,1922,9
1779265414.2554612,2037,1990,9
1779265414.2594502,1957,2139,9
1779265414.2666838,1964,1972,9
1779265414.267134,2084,1621,9
1779265414.26789,2185,1546,9
1779265414.2713861,2120,1887,9
1779265414.271635,1985,2159,9
1779265414.2717938,1973,2058,9
1779265414.271948,2062,1925,9
1779265414.2720551,2025,2217,9
1779265414.272235,2002,2117,9
1779265414.272299,2062,1733,9
1779265414.272361,2194,1512,9
1779265414.2737439,2115,1858,9
1779265414.2751,2037,2110,9
1779265414.277815,1992,2168,9
1779265414.2791622,2038,1947,9
1779265414.281892,2037,2059,9
1779265414.2832482,1985,2104,9
1779265414.290605,2019,1885,9
1779265414.2927942,2127,1487,9
1779265414.29674,2149,1628,9
1779265414.2992709,2064,1964,9
1779265414.3073,2002,2096,9
1779265414.308151,2047,1906,9
1779265414.308974,2050,1987,9
1779265414.3094358,1998,2210,9
1779265414.312717,2004,2096,9
1779265414.3128698,2123,1695,9
1779265414.313008,2174,1571,9
1779265414.313097,2096,1872,9
1779265414.31317,2002,2079,9
1779265414.313248,2014,2116,9
1779265414.313317,2053,1904,9
1779265414.315986,2017,2118,9
1779265414.317353,1974,2119,9
1779265414.325748,2058,1758,9
1779265414.328639,2165,1444,9
1779265414.3351412,2095,1867,9
1779265414.340914,2018,2148,9
1779265414.344506,1986,2150,9
1779265414.344624,2053,1948,9
1779265414.344682,2064,2074,9
1779265414.344733,2009,2194,9
1779265414.344782,2014,1981,9
1779265414.344831,2137,1549,9
1779265414.3448992,2165,1773,9
1779265414.344948,2085,2070,9
1779265414.3456159,2041,2175,9
1779265414.345758,2065,2073,9
1779265414.347175,2035,2004,9
1779265414.349895,1982,2240,9
1779265414.352332,2006,2086,9
1779265414.3537679,2100,1680,9
1779265414.3552158,2175,1504,9
1779265414.362375,2086,1905,9
1779265414.3631518,2021,2124,9
1779265414.3638809,2009,2005,9
1779265414.364668,2065,1950,9
1779265414.368012,2021,2198,9
1779265414.371017,1958,2069,9
1779265414.3718662,2079,1685,9
1779265414.374465,2187,1455,9
1779265414.3747468,2131,1813,9
1779265414.380041,2046,2058,9
1779265414.3808472,2011,2099,9
1779265414.381418,2073,1949,9
1779265414.381922,2052,2028,9
1779265414.384898,2024,2095,9
1779265414.386254,2032,1888,9
1779265414.387698,2162,1560,9
1779265414.389098,2184,1732,9
1779265414.395873,2091,2052,9
1779265414.399738,2024,2041,9
1779265414.403497,2025,1937,9
1779265414.406139,2054,1966,9
1779265414.4065092,1991,2244,9
1779265414.411733,2006,2038,9
1779265414.4122481,2094,1636,9
1779265414.412813,2174,1476,9
1779265414.4132118,2081,1934,9
1779265414.4157429,1998,2128,9
1779265414.416553,2001,2066,9
1779265414.416878,2048,1900,9
1779265414.416971,2005,2169,9
1779265414.417087,1981,2125,9
1779265414.419762,2053,1775,9
1779265414.421194,2186,1585,9
1779265414.4238222,2127,1884,9
1779265414.4252002,2044,2115,9
1779265414.427915,2005,2166,9
1779265414.429568,2065,1925,9
1779265414.4359071,2037,2062,9
1779265414.439677,1982,2206,9
1779265414.439992,2040,1940,9
1779265414.4425159,2143,1542,9
1779265414.443894,2153,1653,9
1779265414.444743,2076,1993,9
1779265414.446529,2008,2173,9
1779265414.446937,2035,1964,9
1779265414.452319,2071,2016,9
1779265414.452684,2000,2244,9
1779265414.453042,2006,2065,9
1779265414.45345,2104,1658,9
1779265414.456713,2170,1473,9
1779265414.458126,2082,1885,9
1779265414.459491,2020,2143,9
1779265414.462199,2008,2081,9
1779265414.4694881,2077,1897,9
1779265414.4710789,2017,2191,9
1779265414.4753048,1976,2179,9
1779265414.476085,2055,1851,9
1779265414.476842,2197,1599,9
1779265414.477621,2133,1862,9
1779265414.4780369,2044,2091,9
1779265414.480124,2031,2173,9
1779265414.4990358,2057,1994,9
1779265414.4991329,2038,2113,9
1779265414.499257,1981,2181,9
1779265414.4993238,2031,1914,9
1779265414.4993842,2131,1577,9
1779265414.4997241,2161,1732,9
1779265414.499802,2071,2021,9
1779265414.500007,2017,2187,9
1779265414.50008,2054,2011,9
1779265414.500187,2054,2036,9
1779265414.500257,2004,2245,9
1779265414.502943,1970,2080,9
1779265414.540478,2079,1738,9
1779265414.540586,2162,1667,9
1779265414.540656,2087,2040,9
1779265414.5407271,2030,2116,9
1779265414.540791,1993,2106,9
1779265414.540889,2078,1936,9
1779265414.5414422,2026,2171,9
1779265414.541512,1998,2141,9
1779265414.541653,2058,1914,9
1779265414.541709,2203,1598,9
1779265414.542014,2144,1864,9
1779265414.542376,2058,2119,9
1779265414.5425951,2030,2239,9
1779265414.5476532,2049,1997,9
1779265414.549393,2036,2068,9
1779265414.550866,1985,2214,9
1779265414.551575,2017,1985,9
1779265414.5538502,2131,1667,9
1779265414.554179,2158,1684,9
1779265414.5567749,2069,2052,9
1779265414.560759,1995,2162,9
1779265414.56696,2036,2102,9
1779265414.567561,2048,2023,9
1779265414.568317,2005,2269,9
1779265414.571852,1991,2155,9
1779265414.5719318,2119,1791,9
1779265414.5720289,2177,1604,9
1779265414.5721102,2094,2042,9
1779265414.572198,2009,2163,9
1779265414.5722702,2004,2165,9
1779265414.572345,2048,1983,9
1779265414.572458,2002,2236,9
1779265414.5726001,1980,2225,9
1779265414.572725,2040,1908,9
1779265414.572854,2173,1652,9
1779265414.5729952,2148,1882,9
1779265414.5756311,2055,2196,9
1779265414.576979,2017,2251,9
1779265414.5796092,2056,2034,9
1779265414.580998,2042,2120,9
1779265414.584309,2001,2307,9
1779265414.586275,2017,2050,9
1779265414.597455,2138,1604,9
1779265414.5977259,2175,1707,9
1779265414.601093,2077,2166,9
1779265414.6041322,1996,2265,9
1779265414.612611,2040,2078,9
1779265414.6132329,2085,1974,9
1779265414.613903,1993,2324,9
1779265414.614731,1990,2173,9
1779265414.618423,2102,1781,9
1779265414.618551,2213,1638,9
1779265414.6186318,2095,1968,9
1779265414.6187048,2009,2177,9
1779265414.6188211,2023,2105,9
1779265414.618968,2076,1958,9
1779265414.619097,2044,2197,9
1779265414.619243,1994,2199,9
1779265414.619404,2041,1926,9
1779265414.62205,2155,1572,9
1779265414.623411,2133,1739,9
1779265414.632711,2051,2130,9
1779265414.63608,2016,2255,9
1779265414.640991,2073,2003,9
1779265414.649158,2046,2080,9
1779265414.650033,1959,2340,9
1779265414.6508899,1991,2110,9
1779265414.6513898,2122,1737,9
1779265414.6548202,2169,1775,9
1779265414.655009,2083,2092,9
1779265414.655224,2020,2169,9
1779265414.655382,2009,2010,9
1779265414.6554701,2049,2017,9
1779265414.6555781,1984,2283,9
1779265414.655645,1984,2215,9
1779265414.655703,2105,1850,9
1779265414.655756,2177,1620,9
1779265414.65709,2053,1994,9
1779265414.659799,1973,2254,9
1779265414.6612108,2002,2183,9
1779265414.6638,2049,1886,9
1779265414.6652002,2006,2287,9
1779265414.668056,1970,2299,9
1779265414.6770828,2046,1865,9
1779265414.679735,2141,1609,9
1779265414.680296,2132,1785,9
1779265414.6808069,2003,2205,9
1779265414.6851468,1964,2200,9
1779265414.693933,2056,2066,9
1779265414.694601,2054,2173,9
1779265414.6951098,1985,2261,9
1779265414.695467,1972,2128,9
1779265414.695785,2155,1771,9
1779265414.69869,2183,1645,9
1779265414.700347,2083,2171,9
1779265414.7004411,2015,2292,9
1779265414.700515,2010,2191,9
1779265414.700585,2057,2059,9
1779265414.700654,1983,2335,9
1779265414.7020538,1967,2193,9
1779265414.703212,2048,1787,9
1779265414.705846,2182,1618,9
1779265414.71349,2109,2076,9
1779265414.715192,2001,2149,9
1779265414.715915,2014,2096,9
1779265414.7211132,2085,2063,9
1779265414.722034,2062,2271,9
1779265414.729381,1991,2268,9
1779265414.7300858,2048,1963,9
1779265414.7340128,2174,1625,9
1779265414.73529,2165,1872,9
1779265414.735378,2058,2157,9
1779265414.73545,2021,2116,9
1779265414.735622,2058,2023,9
1779265414.735756,2061,2185,9
1779265414.7358341,1973,2354,9
1779265414.735938,1989,2108,9
1779265414.737289,2124,1709,9
1779265414.739933,2168,1746,9
1779265414.74132,2070,2121,9
1779265414.7438989,2001,2254,9
1779265414.745461,2007,2144,9
1779265414.748312,2071,2094,9
1779265414.757345,1993,2393,9
1779265414.760958,1987,2250,9
1779265414.764065,2075,1835,9
1779265414.768617,2161,1683,9
1779265414.775004,2109,2064,9
1779265414.779576,2055,2272,9
1779265414.7800379,2018,2278,9
1779265414.78055,2079,2078,9
1779265414.780674,2037,2309,9
1779265414.780938,1987,2389,9
1779265414.781087,2057,2039,9
1779265414.781316,2171,1748,9
1779265414.7815921,2173,1996,9
1779265414.7817118,2057,2226,9
1779265414.7817862,1990,2286,9
1779265414.781847,2026,2151,9
1779265414.78191,2029,2263,9
1779265414.783249,1983,2360,9
1779265414.7863228,2013,2143,9
1779265414.792713,2131,1827,9
1779265414.7935271,2178,1838,9
1779265414.794294,2057,2204,9
1779265414.796886,1962,2348,9
1779265414.800246,1987,2290,9
1779265414.80389,2052,2196,9
1779265414.81021,1975,2507,9
1779265414.810946,2004,2445,9
1779265414.811481,2115,2069,9
1779265414.811766,2201,1845,9
1779265414.815149,2139,2265,9
1779265414.816729,2093,2513,9
1779265414.816861,2058,2537,9
1779265414.81694,2063,2471,9
1779265414.817068,2012,2712,9
1779265414.8171499,1955,2656,9
1779265414.81995,2007,2471,9
1779265414.821345,2151,2169,9
1779265414.824048,2151,2314,9
1779265414.8255308,2072,2719,9
1779265414.8269482,2010,2784,9
1779265414.8294,2059,2666,9
1779265414.8365061,2067,2692,9
1779265414.838451,1930,2808,9
1779265414.843322,1925,2544,9
1779265414.843863,2064,2421,9
1779265414.8464682,2126,2422,9
1779265414.848175,2088,2864,9
1779265414.857472,1999,2888,9
1779265414.858287,1989,2808,9
1779265414.858698,2168,2769,9
1779265414.859143,2126,2930,9
1779265414.862144,2092,2736,9
1779265414.863231,2121,2611,9
1779265414.86332,2183,2208,9
1779265414.863489,2148,2505,9
1779265414.863574,2072,2713,9
1779265414.863646,2057,2699,9
1779265414.8637178,2051,2636,9
1779265414.865079,2056,2927,9
1779265414.8678138,2017,2728,9
1779265414.86922,2073,2556,9
1779265414.87826,2162,2229,9
1779265414.881354,2187,2427,9
1779265414.8855731,2063,2719,9
1779265414.8863401,1965,2779,9
1779265414.894321,1919,2734,9
1779265414.895207,1952,2894,9
1779265414.895705,1931,2836,9
1779265414.896255,1984,2616,9
1779265414.9001338,2090,2523,9
1779265414.900327,2108,2284,9
1779265414.900411,2065,2552,9
1779265414.900478,2104,2657,9
1779265414.9005451,2136,2678,9
1779265414.900609,2220,2731,9
1779265414.900705,2087,2816,9
1779265414.902066,1971,2665,9
1779265414.9034162,2067,2484,9
1779265414.904861,2258,2128,9
1779265414.90752,2156,2369,9
1779265414.908891,2059,2451,9
1779265414.911437,2045,2520,9
1779265414.91286,2034,2351,9
1779265414.92089,2007,2827,9
1779265414.9246342,1902,2620,9
1779265414.925374,1769,2581,9
1779265414.930016,2089,2314,9
1779265414.932512,2225,2299,9
1779265414.9390879,2204,2681,9
1779265414.942442,2054,2849,9
1779265414.943033,1971,2614,9
1779265414.943121,2039,2726,9
1779265414.943202,1850,2768,9
1779265414.943285,1826,2534,9
1779265414.9433541,1848,2335,9
1779265414.943552,2125,2074,9
1779265414.943636,2227,2565,9
1779265414.943722,2203,2826,9
1779265414.945073,2105,2707,9
1779265414.947746,2036,2557,9
1779265414.949409,1892,2807,9
1779265414.956933,2068,2621,9
1779265414.962445,1996,2534,9
1779265414.9645262,1880,1996,9
1779265414.966885,1739,2321,9
1779265414.972197,1797,2619,9
1779265414.97281,2182,2598,9
1779265414.97332,2486,2383,9
1779265414.9738061,2422,2692,9
1779265414.974228,2301,2630,9
1779265414.978097,2414,2502,9
1779265414.978194,2396,2052,9
1779265414.978265,2295,2068,9
1779265414.9783318,2033,2512,9
1779265414.9783978,1751,2481,9
1779265414.9797351,1756,2372,9
1779265414.981121,1835,2584,9
1779265414.9838688,1818,2597,9
1779265414.9852989,1800,2520,9
1779265414.987909,2170,2158,9
1779265414.9892638,2408,2076,9
1779265414.9925,2071,2398,9
1779265415.0043762,1622,2593,9
1779265415.011241,1580,2482,9
1779265415.011659,1784,2287,9
1779265415.018305,1948,2750,9
1779265415.021211,2233,2512,9
1779265415.022282,2403,2246,9
1779265415.022378,2404,1615,9
1779265415.022454,2023,2138,9
1779265415.022544,2163,2343,9
1779265415.022613,2285,2676,9
1779265415.02275,2360,2115,9
1779265415.02287,2136,2671,9
1779265415.022932,1896,2531,9
1779265415.0229928,1939,2191,9
1779265415.0230541,1964,1825,9
1779265415.023152,1680,1714,9
1779265415.025604,1828,2448,9
1779265415.0272498,2074,2418,9
1779265415.038388,2459,2056,9
1779265415.039107,2230,2396,9
1779265415.042295,2034,2559,9
1779265415.0438862,2022,2207,9
1779265415.046116,2040,1747,9
1779265415.046614,2122,1990,9
1779265415.052636,2166,2304,9
1779265415.053132,1983,2248,9
1779265415.053389,1342,2103,9
1779265415.053777,1764,2230,9
1779265415.0541508,2241,2766,9
1779265415.057336,2240,2405,9
1779265415.0578759,2187,1795,9
1779265415.058048,2241,1734,9
1779265415.058188,2035,2162,9
1779265415.059532,2259,2398,9
1779265415.0609128,2326,2079,9
1779265415.063678,2073,2061,9
1779265415.0652318,1739,2529,9
1779265415.067755,1594,2444,9
1779265415.069206,1241,2097,9
1779265415.07634,1883,1747,9
1779265415.079437,2602,1482,9
1779265415.082009,2709,1997,9
1779265415.085243,2215,2444,9
1779265415.090267,2099,1558,9
1779265415.090637,2118,2174,9
1779265415.091114,2038,2382,9
1779265415.094505,1996,2072,9
1779265415.0946739,2155,1520,9
1779265415.094817,2231,1511,9
1779265415.094869,2017,1890,9
