timestamp,ch1,ch2,label
1777452656.939902,2168,0,3
1777452656.94028,1814,0,3
1777452656.940712,1697,0,3
1777452656.94366,2019,0,3
1777452656.943779,2360,0,3
1777452656.943887,2443,0,3
1777452656.9439821,1990,0,3
1777452656.9440598,1591,0,3
1777452656.945704,1629,0,3
1777452656.948695,2217,0,3
1777452656.9516969,2381,0,3
1777452656.954693,2186,0,3
1777452656.95772,1838,0,3
1777452656.965665,1541,0,3
1777452656.96711,1890,0,3
1777452656.9690702,2452,0,3
1777452656.9720068,2395,0,3
1777452656.974497,2149,0,3
1777452656.9771688,1733,0,3
1777452656.97874,1618,0,3
1777452656.98223,2189,0,3
1777452656.984873,2442,0,3
1777452656.987694,2323,0,3
1777452656.9906938,1842,0,3
1777452656.993695,1537,0,3
1777452656.999423,1932,0,3
1777452657.000625,2350,0,3
1777452657.003351,2415,0,3
1777452657.006047,2081,0,3
1777452657.010537,1766,0,3
1777452657.011905,1644,0,3
1777452657.016007,2141,0,3
1777452657.0177019,2419,0,3
1777452657.027505,2298,0,3
1777452657.0297441,1972,0,3
1777452657.031394,1573,0,3
1777452657.040459,1782,0,3
1777452657.040509,2419,0,3
1777452657.040544,2456,0,3
1777452657.040577,2121,0,3
1777452657.0420322,1822,0,3
1777452657.0447109,1569,0,3
1777452657.0477068,2084,0,3
1777452657.0506968,2419,0,3
1777452657.053717,2356,0,3
1777452657.059971,1952,0,3
1777452657.064333,1605,0,3
1777452657.0646021,1718,0,3
1777452657.0669818,2362,0,3
1777452657.069522,2386,0,3
1777452657.0726242,2178,0,3
1777452657.07681,1883,0,3
1777452657.0783842,1526,0,3
1777452657.081165,1982,0,3
1777452657.0888698,2404,0,3
1777452657.0900311,2346,0,3
1777452657.0921159,1982,0,3
1777452657.0949938,1654,0,3
1777452657.097485,1689,0,3
1777452657.0998662,2239,0,3
1777452657.101808,2434,0,3
1777452657.105184,2197,0,3
1777452657.107868,1872,0,3
1777452657.110667,1557,0,3
1777452657.1136892,1873,0,3
1777452657.122391,2433,0,3
1777452657.123103,2380,0,3
1777452657.125794,2030,0,3
1777452657.126025,1683,0,3
1777452657.1309261,1646,0,3
1777452657.133541,2182,0,3
1777452657.1357388,2443,0,3
1777452657.138892,2304,0,3
1777452657.140707,1925,0,3
1777452657.143692,1557,0,3
1777452657.1502862,1850,0,3
1777452657.1513221,2394,0,3
1777452657.153789,2380,0,3
1777452657.1563368,2090,0,3
1777452657.1639822,1736,0,3
1777452657.164437,1655,0,3
1777452657.164775,2095,0,3
1777452657.1679308,2404,0,3
1777452657.170712,2299,0,3
1777452657.173684,1991,0,3
1777452657.176681,1626,0,3
1777452657.179672,1798,0,3
1777452657.18834,2345,0,3
1777452657.1902049,2449,0,3
1777452657.190969,2161,0,3
1777452657.196615,1797,0,3
1777452657.196928,1545,0,3
1777452657.1985102,2047,0,3
1777452657.2036731,2426,0,3
1777452657.203905,2304,0,3
1777452657.20737,1905,0,3
1777452657.210089,1607,0,3
1777452657.212773,1724,0,3
1777452657.220216,2312,0,3
1777452657.221337,2437,0,3
1777452657.223961,2201,0,3
1777452657.2270021,1828,0,3
1777452657.229752,1572,0,3
1777452657.23447,1994,0,3
1777452657.2347012,2407,0,3
1777452657.238071,2300,0,3
1777452657.239597,2067,0,3
1777452657.2425652,1663,0,3
1777452657.245549,1657,0,3
1777452657.2485561,2264,0,3
1777452657.2516391,2387,0,3
1777452657.2577522,2275,0,3
1777452657.259188,1810,0,3
1777452657.261991,1602,0,3
1777452657.265144,1907,0,3
1777452657.2681751,2339,0,3
1777452657.2724302,2351,0,3
1777452657.272644,2030,0,3
1777452657.276087,1738,0,3
1777452657.2788181,1657,0,3
1777452657.281556,2161,0,3
1777452657.289335,2455,0,3
1777452657.2906308,2230,0,3
1777452657.2925792,1903,0,3
1777452657.295758,1557,0,3
1777452657.2980149,1864,0,3
1777452657.300972,2407,0,3
1777452657.303206,2378,0,3
1777452657.305829,2086,0,3
1777452657.308594,1736,0,3
1777452657.3115761,1645,0,3
1777452657.314552,2140,0,3
1777452657.317581,2378,0,3
1777452657.324255,2277,0,3
1777452657.3252769,1956,0,3
1777452657.327768,1595,0,3
1777452657.330739,1786,0,3
1777452657.33469,2394,0,3
1777452657.336523,2464,0,3
1777452657.339326,2118,0,3
1777452657.3419058,1818,0,3
1777452657.344675,1533,0,3
1777452657.351377,2092,0,3
1777452657.352073,2475,0,3
1777452657.353877,2315,0,3
1777452657.358774,1914,0,3
1777452657.361407,1618,0,3
1777452657.363484,1761,0,3
1777452657.366393,2307,0,3
1777452657.3690891,2418,0,3
1777452657.371713,2159,0,3
1777452657.3749068,1815,0,3
1777452657.377573,1573,0,3
1777452657.3874078,1989,0,3
1777452657.3886678,2382,0,3
1777452657.390814,2338,0,3
1777452657.394207,2013,0,3
1777452657.3950531,1684,0,3
1777452657.396312,1723,0,3
1777452657.4000242,2233,0,3
1777452657.4024372,2472,0,3
1777452657.405129,2271,0,3
1777452657.4077692,1915,0,3
1777452657.4105668,1519,0,3
1777452657.419958,2062,0,3
1777452657.422097,2287,0,3
1777452657.4223092,2211,0,3
1777452657.422629,2084,0,3
1777452657.427597,1824,0,3
1777452657.4331799,1560,0,3
1777452657.433405,2057,0,3
1777452657.43656,2457,0,3
1777452657.437908,2104,0,3
1777452657.440574,2061,0,3
1777452657.443557,1643,0,3
1777452657.446561,1862,0,3
1777452657.449549,2351,0,3
1777452657.456764,2457,0,3
1777452657.4585888,2114,0,3
1777452657.4597492,1766,0,3
1777452657.462063,1653,0,3
1777452657.465825,2119,0,3
1777452657.467913,2500,0,3
1777452657.473006,2293,0,3
1777452657.473655,2020,0,3
1777452657.4767082,1635,0,3
1777452657.479554,1926,0,3
1777452657.482553,2396,0,3
1777452657.489873,2413,0,3
1777452657.49161,2150,0,3
1777452657.492314,1865,0,3
1777452657.496802,1603,0,3
1777452657.499058,2090,0,3
1777452657.505076,2424,0,3
1777452657.505315,2394,0,3
1777452657.508513,2049,0,3
1777452657.5098538,1643,0,3
1777452657.5125508,1834,0,3
1777452657.515549,2386,0,3
1777452657.5185668,2568,0,3
1777452657.521543,2247,0,3
1777452657.528579,1852,0,3
1777452657.52931,1602,0,3
1777452657.5310311,2020,0,3
1777452657.534775,2442,0,3
1777452657.536832,2443,0,3
1777452657.543626,2124,0,3
1777452657.544116,1756,0,3
1777452657.547153,1776,0,3
1777452657.5485618,2351,0,3
1777452657.551421,2499,0,3
1777452657.559123,2323,0,3
1777452657.5599391,1973,0,3
1777452657.560585,1609,0,3
1777452657.566299,2009,0,3
1777452657.567057,2522,0,3
1777452657.57021,2463,0,3
1777452657.572567,2152,0,3
1777452657.5756319,1892,0,3
1777452657.578888,1822,0,3
1777452657.581577,2390,0,3
1777452657.584436,2624,0,3
1777452657.5874119,2469,0,3
1777452657.590416,2134,0,3
1777452657.593445,1806,0,3
1777452657.60044,2043,0,3
1777452657.600634,2734,0,3
1777452657.60375,2637,0,3
1777452657.606112,2488,0,3
1777452657.609687,2077,0,3
1777452657.61187,2049,0,3
1777452657.615253,2535,0,3
1777452657.617995,2762,0,3
1777452657.620675,2654,0,3
1777452657.623424,2326,0,3
1777452657.631807,2054,0,3
1777452657.633132,2145,0,3
1777452657.633281,2764,0,3
1777452657.6366038,2809,0,3
1777452657.639009,2482,0,3
1777452657.642417,2238,0,3
1777452657.647842,2157,0,3
1777452657.6482408,2383,0,3
1777452657.651367,2772,0,3
1777452657.653992,2773,0,3
1777452657.6566799,2483,0,3
1777452657.659429,2279,0,3
1777452657.662436,2373,0,3
1777452657.665741,3049,0,3
1777452657.674639,3110,0,3
1777452657.6767318,2992,0,3
1777452657.6791968,2733,0,3
1777452657.680459,2577,0,3
1777452657.681227,2992,0,3
1777452657.685736,3347,0,3
1777452657.6887648,3381,0,3
1777452657.6922839,3012,0,3
1777452657.692427,2729,0,3
1777452657.695441,2765,0,3
1777452657.704118,3294,0,3
1777452657.7044082,3437,0,3
1777452657.705086,3216,0,3
1777452657.708661,2796,0,3
1777452657.711749,2514,0,3
1777452657.714439,2812,0,3
1777452657.717431,3216,0,3
1777452657.721099,3079,0,3
1777452657.724386,2731,0,3
1777452657.725771,2445,0,3
1777452657.7285252,2405,0,3
1777452657.731436,2751,0,3
1777452657.734443,2881,0,3
1777452657.737431,2742,0,3
1777452657.746078,2486,0,3
1777452657.747336,2004,0,3
1777452657.7496152,2314,0,3
1777452657.749886,2778,0,3
1777452657.753933,2721,0,3
1777452657.756667,2362,0,3
1777452657.759845,2046,0,3
1777452657.7633002,1898,0,3
1777452657.7668412,2342,0,3
1777452657.7673988,2610,0,3
1777452657.770508,2536,0,3
1777452657.773578,2105,0,3
1777452657.780386,1895,0,3
1777452657.781791,2055,0,3
1777452657.782669,2523,0,3
1777452657.788286,2513,0,3
1777452657.789064,2232,0,3
1777452657.793808,2041,0,3
1777452657.797033,1868,0,3
1777452657.7975318,1984,0,3
1777452657.800909,2396,0,3
1777452657.803519,2460,0,3
1777452657.806433,2047,0,3
1777452657.8094149,1675,0,3
1777452657.812414,1899,0,3
1777452657.8205671,2433,0,3
1777452657.8206909,2400,0,3
1777452657.8249779,2205,0,3
1777452657.825217,2012,0,3
1777452657.828604,1839,0,3
1777452657.8304791,2052,0,3
1777452657.837603,2308,0,3
1777452657.837963,2347,0,3
1777452657.8411891,2098,0,3
1777452657.842535,1671,0,3
1777452657.845429,1831,0,3
1777452657.8486452,2232,0,3
1777452657.8547142,2321,0,3
1777452657.856574,2240,0,3
1777452657.8588958,1979,0,3
1777452657.862047,1639,0,3
1777452657.864683,2063,0,3
1777452657.867281,2487,0,3
1777452657.870692,2385,0,3
1777452657.87392,2084,0,3
1777452657.875445,1792,0,3
1777452657.878437,1763,0,3
1777452657.881427,2116,0,3
1777452657.884416,2369,0,3
1777452657.887419,2164,0,3
1777452657.893908,1778,0,3
1777452657.895051,1707,0,3
1777452657.89743,1760,0,3
1777452657.900336,2228,0,3
1777452657.9032261,2492,0,3
1777452657.908504,2160,0,3
1777452657.90864,1720,0,3
1777452657.912098,1732,0,3
1777452657.9146829,2175,0,3
1777452657.917511,2452,0,3
1777452657.924587,2309,0,3
1777452657.925163,1856,0,3
1777452657.9277701,1728,0,3
1777452657.931257,2051,0,3
1777452657.9328551,2567,0,3
1777452657.936097,2477,0,3
1777452657.939616,2138,0,3
1777452657.94281,2086,0,3
1777452657.944437,1600,0,3
1777452657.947423,2020,0,3
1777452657.9502988,2398,0,3
1777452657.953326,2433,0,3
1777452657.9563022,1994,0,3
1777452657.962186,1607,0,3
1777452657.963487,1727,0,3
1777452657.966264,2264,0,3
1777452657.969459,2313,0,3
1777452657.9718451,2277,0,3
1777452657.9786398,2014,0,3
1777452657.979177,1722,0,3
1777452657.982742,2013,0,3
1777452657.983295,2402,0,3
1777452657.986302,2264,0,3
1777452657.995594,2259,0,3
1777452657.996284,1920,0,3
1777452657.999485,1862,0,3
1777452657.999954,2342,0,3
1777452658.005131,2556,0,3
1777452658.005419,2421,0,3
1777452658.00921,1993,0,3
1777452658.01306,1571,0,3
1777452658.013323,2344,0,3
1777452658.016551,2791,0,3
1777452658.01931,2919,0,3
1777452658.02241,2786,0,3
1777452658.025304,2496,0,3
1777452658.028311,2592,0,3
1777452658.0362911,3042,0,3
1777452658.037889,3361,0,3
1777452658.041451,3386,0,3
1777452658.041895,3129,0,3
1777452658.044971,2888,0,3
1777452658.0470002,2957,0,3
1777452658.051153,3129,0,3
1777452658.058351,3213,0,3
1777452658.0586638,2880,0,3
1777452658.0587258,2587,0,3
1777452658.06142,2455,0,3
1777452658.0642738,2913,0,3
1777452658.071867,3167,0,3
1777452658.072536,2853,0,3
1777452658.0749938,2692,0,3
1777452658.0786428,2598,0,3
1777452658.081117,2670,0,3
1777452658.083981,3021,0,3
1777452658.087853,3293,0,3
1777452658.088295,2803,0,3
1777452658.0913742,2580,0,3
1777452658.094292,2532,0,3
1777452658.09728,2763,0,3
1777452658.100312,3162,0,3
1777452658.103279,2750,0,3
1777452658.112206,2679,0,3
1777452658.112857,2540,0,3
1777452658.115479,2788,0,3
1777452658.11589,3068,0,3
1777452658.1191208,3018,0,3
1777452658.121799,2800,0,3
1777452658.1276329,2377,0,3
1777452658.127852,2367,0,3
1777452658.131259,2857,0,3
1777452658.133983,3289,0,3
1777452658.1367428,2824,0,3
1777452658.14345,2425,0,3
1777452658.1446881,2371,0,3
1777452658.147152,2648,0,3
1777452658.150214,2905,0,3
1777452658.151863,3211,0,3
1777452658.1553779,3083,0,3
1777452658.1596491,2636,0,3
1777452658.162994,1992,0,3
1777452658.163449,2443,0,3
1777452658.166296,2817,0,3
1777452658.169323,2564,0,3
1777452658.1722932,2423,0,3
1777452658.175304,2044,0,3
1777452658.183753,2001,0,3
1777452658.184382,2630,0,3
1777452658.184551,2644,0,3
1777452658.187755,2579,0,3
1777452658.1910021,2325,0,3
1777452658.194311,2185,0,3
1777452658.196573,2125,0,3
1777452658.200995,2339,0,3
1777452658.204857,2291,0,3
1777452658.205293,2100,0,3
1777452658.208273,2132,0,3
1777452658.211523,1898,0,3
1777452658.2170088,2085,0,3
1777452658.217818,2478,0,3
1777452658.221693,2600,0,3
1777452658.22558,2134,0,3
1777452658.2272918,2089,0,3
1777452658.230675,2020,0,3
1777452658.234743,2236,0,3
1777452658.2353349,2387,0,3
1777452658.238633,2186,0,3
1777452658.24132,1928,0,3
1777452658.244305,1797,0,3
1777452658.247273,2036,0,3
1777452658.250754,2754,0,3
1777452658.2597702,2196,0,3
1777452658.260677,1720,0,3
1777452658.261621,1716,0,3
1777452658.2624269,1876,0,3
1777452658.267713,2290,0,3
1777452658.2684422,2373,0,3
1777452658.273699,1964,0,3
1777452658.2780302,2020,0,3
1777452658.278355,1854,0,3
1777452658.281736,1967,0,3
1777452658.283309,2376,0,3
1777452658.286299,2433,0,3
1777452658.293804,2188,0,3
1777452658.2940118,1594,0,3
1777452658.2975318,1650,0,3
1777452658.300441,2037,0,3
1777452658.303089,2245,0,3
1777452658.3057249,2243,0,3
1777452658.309852,2056,0,3
1777452658.310396,1691,0,3
1777452658.313341,1970,0,3
1777452658.316276,2373,0,3
1777452658.319298,2242,0,3
1777452658.322279,2032,0,3
1777452658.325301,1765,0,3
1777452658.334134,1768,0,3
1777452658.3347871,2175,0,3
1777452658.3371341,2353,0,3
1777452658.337368,2086,0,3
1777452658.340404,1896,0,3
1777452658.345196,1820,0,3
1777452658.349602,1771,0,3
1777452658.349788,2211,0,3
1777452658.3527548,2321,0,3
1777452658.35534,1927,0,3
1777452658.358316,1881,0,3
1777452658.3653362,1748,0,3
1777452658.366053,1926,0,3
1777452658.3693628,2349,0,3
1777452658.372878,2272,0,3
1777452658.374296,2084,0,3
1777452658.377801,1621,0,3
1777452658.382147,1776,0,3
1777452658.38242,2301,0,3
1777452658.385515,2347,0,3
1777452658.388201,2026,0,3
1777452658.391893,1914,0,3
1777452658.394494,1801,0,3
1777452658.397195,2019,0,3
1777452658.405761,2394,0,3
1777452658.406923,2344,0,3
1777452658.4075992,1961,0,3
1777452658.409771,1675,0,3
1777452658.413186,1807,0,3
1777452658.415491,2321,0,3
1777452658.418976,2409,0,3
1777452658.423399,2215,0,3
1777452658.426583,1866,0,3
1777452658.4279082,1616,0,3
1777452658.430482,2109,0,3
1777452658.44017,2268,0,3
1777452658.440875,2150,0,3
1777452658.4427211,2134,0,3
1777452658.443006,1880,0,3
1777452658.445844,1707,0,3
1777452658.4487019,2162,0,3
1777452658.454995,2322,0,3
1777452658.4553201,2281,0,3
1777452658.457942,1869,0,3
1777452658.4605298,1751,0,3
1777452658.4631932,1966,0,3
1777452658.466207,2309,0,3
1777452658.469167,2261,0,3
1777452658.4722,2151,0,3
1777452658.478823,1675,0,3
1777452658.48041,1868,0,3
1777452658.481905,2225,0,3
1777452658.485889,2228,0,3
1777452658.488425,2193,0,3
1777452658.492285,1966,0,3
1777452658.495148,1725,0,3
1777452658.4964979,1866,0,3
1777452658.4991791,2276,0,3
1777452658.505837,2306,0,3
1777452658.506977,2097,0,3
1777452658.5095801,1776,0,3
1777452658.5121238,1715,0,3
1777452658.516417,2046,0,3
1777452658.520396,2337,0,3
1777452658.520652,2095,0,3
1777452658.523252,1871,0,3
1777452658.52617,1588,0,3
1777452658.5291772,1830,0,3
1777452658.5321689,2200,0,3
1777452658.5351622,2258,0,3
1777452658.540253,2038,0,3
1777452658.542235,1794,0,3
1777452658.545839,1627,0,3
1777452658.548506,1906,0,3
1777452658.550891,2240,0,3
1777452658.554612,2142,0,3
1777452658.557485,2006,0,3
1777452658.559166,1831,0,3
1777452658.5621529,1687,0,3
1777452658.56811,2092,0,3
1777452658.5687108,2374,0,3
1777452658.57264,1906,0,3
1777452658.574722,1827,0,3
1777452658.577631,1617,0,3
1777452658.581449,1801,0,3
1777452658.584191,2146,0,3
1777452658.586782,2158,0,3
1777452658.589453,1792,0,3
1777452658.5921762,1624,0,3
1777452658.595176,1634,0,3
1777452658.602512,2162,0,3
1777452658.603272,2164,0,3
1777452658.605817,1959,0,3
1777452658.608638,1805,0,3
1777452658.6106849,1488,0,3
1777452658.613513,1520,0,3
1777452658.617486,2034,0,3
1777452658.620565,2136,0,3
1777452658.622164,1744,0,3
1777452658.625161,1461,0,3
1777452658.6319628,1579,0,3
1777452658.6330838,1888,0,3
1777452658.635713,2064,0,3
1777452658.6388521,1960,0,3
1777452658.6410758,1665,0,3
1777452658.6478488,1424,0,3
1777452658.648133,1611,0,3
1777452658.650825,2099,0,3
1777452658.652189,2120,0,3
1777452658.65516,1772,0,3
1777452658.658165,1583,0,3
1777452658.661149,1463,0,3
1777452658.6680949,1840,0,3
1777452658.668733,2247,0,3
1777452658.6717482,2070,0,3
1777452658.674577,1670,0,3
1777452658.6768289,1434,0,3
1777452658.6792488,1581,0,3
1777452658.6830778,2198,0,3
1777452658.685962,2091,0,3
1777452658.688549,1927,0,3
1777452658.6961641,1764,0,3
1777452658.6967008,1562,0,3
1777452658.6973891,1946,0,3
1777452658.702116,2113,0,3
1777452658.704216,2052,0,3
1777452658.706517,1732,0,3
1777452658.710455,1524,0,3
1777452658.7129889,1542,0,3
1777452658.7155788,2030,0,3
1777452658.718187,2088,0,3
1777452658.721178,1903,0,3
1777452658.724146,1580,0,3
1777452658.7302148,1400,0,3
1777452658.7303839,1744,0,3
1777452658.7337642,2050,0,3
1777452658.736796,2043,0,3
1777452658.7407339,1780,0,3
1777452658.7445152,1475,0,3
1777452658.7473102,1497,0,3
1777452658.748637,2003,0,3
1777452658.751214,2090,0,3
1777452658.758188,1942,0,3
1777452658.758389,1762,0,3
1777452658.761547,1341,0,3
1777452658.764148,1654,0,3
1777452658.772131,2077,0,3
1777452658.772316,1716,0,3
1777452658.772513,1533,0,3
1777452658.775291,1414,0,3
1777452658.778178,1552,0,3
1777452658.781164,1823,0,3
1777452658.784152,1907,0,3
1777452658.787147,1793,0,3
1777452658.793348,1617,0,3
1777452658.793932,1335,0,3
1777452658.798388,1619,0,3
1777452658.800113,2061,0,3
1777452658.803672,1904,0,3
1777452658.807503,1730,0,3
1777452658.809856,1467,0,3
1777452658.811179,1390,0,3
1777452658.814055,1824,0,3
1777452658.820208,2098,0,3
1777452658.8211489,1893,0,3
1777452658.824011,1736,0,3
1777452658.826432,1155,0,3
1777452658.8306282,1372,0,3
1777452658.834333,1948,0,3
1777452658.837069,2085,0,3
1777452658.838378,1888,0,3
1777452658.841056,1458,0,3
1777452658.844051,1329,0,3
1777452658.847022,1794,0,3
1777452658.855093,2081,0,3
1777452658.856802,2063,0,3
1777452658.860988,1638,0,3
1777452658.861714,1298,0,3
1777452658.864064,1413,0,3
1777452658.8697238,1964,0,3
1777452658.870054,2102,0,3
1777452658.872797,1611,0,3
1777452658.8741708,1417,0,3
1777452658.877035,1305,0,3
1777452658.8845599,1638,0,3
1777452658.8856928,1976,0,3
1777452658.8921,1993,0,3
1777452658.894857,1682,0,3
1777452658.895114,1370,0,3
1777452658.8991098,1461,0,3
1777452658.899491,1942,0,3
1777452658.902261,2067,0,3
1777452658.904032,1889,0,3
1777452658.907031,1476,0,3
1777452658.9100292,1283,0,3
1777452658.91302,1517,0,3
1777452658.9223108,1986,0,3
1777452658.922993,1992,0,3
1777452658.92369,1721,0,3
1777452658.925654,1446,0,3
1777452658.929711,1404,0,3
1777452658.9314759,1853,0,3
1777452658.93831,2064,0,3
1777452658.938756,1956,0,3
1777452658.942249,1582,0,3
1777452658.943593,1387,0,3
1777452658.946248,1609,0,3
1777452658.954165,2115,0,3
1777452658.955818,2067,0,3
1777452658.9585438,1896,0,3
1777452658.95876,1540,0,3
1777452658.9612732,1500,0,3
1777452658.966938,1887,0,3
1777452658.9671848,2157,0,3
1777452658.9716322,1988,0,3
1777452658.974891,1736,0,3
1777452658.9762292,1460,0,3
1777452658.979006,1646,0,3
1777452658.9820092,2137,0,3
1777452658.985004,2271,0,3
1777452658.988008,1900,0,3
1777452658.9960132,1626,0,3
1777452658.997314,1435,0,3
1777452658.9992661,1909,0,3
1777452659.0025668,2178,0,3
1777452659.0032058,2162,0,3
1777452659.007972,1840,0,3
1777452659.012616,1505,0,3
1777452659.012873,1669,0,3
1777452659.0160298,2118,0,3
1777452659.0188491,2279,0,3
1777452659.021652,2056,0,3
1777452659.02958,1744,0,3
1777452659.030347,1536,0,3
1777452659.032297,1912,0,3
1777452659.035411,2236,0,3
1777452659.0366662,2222,0,3
1777452659.040951,1891,0,3
1777452659.045239,1598,0,3
1777452659.0453818,1595,0,3
1777452659.048702,2106,0,3
1777452659.05133,2261,0,3
1777452659.0540202,2070,0,3
1777452659.057018,1768,0,3
1777452659.060009,1527,0,3
1777452659.068243,1771,0,3
1777452659.070558,2240,0,3
1777452659.072928,2263,0,3
1777452659.073421,1964,0,3
1777452659.075958,1726,0,3
1777452659.0789068,1600,0,3
1777452659.086889,2112,0,3
1777452659.0873952,2303,0,3
1777452659.08761,2196,0,3
1777452659.090872,1855,0,3
1777452659.094798,1611,0,3
1777452659.096288,1844,0,3
1777452659.1226869,2298,0,3
1777452659.122879,2341,0,3
1777452659.122953,2031,0,3
1777452659.1230688,1702,0,3
1777452659.123123,1739,0,3
1777452659.123635,2060,0,3
1777452659.123899,2374,0,3
1777452659.1241128,2282,0,3
1777452659.1251478,1908,0,3
1777452659.128138,1580,0,3
1777452659.130692,1825,0,3
1777452659.141633,2285,0,3
1777452659.146904,2304,0,3
1777452659.147455,2097,0,3
1777452659.150358,1742,0,3
1777452659.152351,1616,0,3
1777452659.15378,2081,0,3
1777452659.154597,2291,0,3
1777452659.155467,2163,0,3
1777452659.1578062,1954,0,3
1777452659.1622632,1638,0,3
1777452659.162679,1792,0,3
1777452659.166042,2262,0,3
1777452659.168013,2342,0,3
1777452659.171018,2108,0,3
1777452659.178575,1772,0,3
1777452659.1805708,1613,0,3
1777452659.183041,1999,0,3
1777452659.185212,2382,0,3
1777452659.1886232,2248,0,3
1777452659.1893492,1938,0,3
1777452659.192101,1598,0,3
1777452659.196671,1726,0,3
1777452659.199738,2257,0,3
1777452659.201088,2342,0,3
1777452659.203895,2153,0,3
1777452659.206898,1824,0,3
1777452659.209895,1563,0,3
1777452659.212924,1922,0,3
1777452659.220319,2279,0,3
1777452659.2218728,2283,0,3
1777452659.2226,1979,0,3
1777452659.225302,1667,0,3
1777452659.230845,1674,0,3
1777452659.2321742,2133,0,3
1777452659.234719,2317,0,3
1777452659.239351,2214,0,3
1777452659.240028,1885,0,3
1777452659.243808,1613,0,3
1777452659.246485,1868,0,3
1777452659.249151,2310,0,3
1777452659.256706,2327,0,3
1777452659.26092,2036,0,3
1777452659.263981,1682,0,3
1777452659.264128,1696,0,3
1777452659.2648268,2102,0,3
1777452659.267093,2304,0,3
1777452659.2703831,2179,0,3
1777452659.274658,1916,0,3
1777452659.278162,1615,0,3
1777452659.279489,1848,0,3
1777452659.282082,2332,0,3
1777452659.284925,2327,0,3
1777452659.287921,2088,0,3
1777452659.290895,1780,0,3
1777452659.298066,1668,0,3
1777452659.29878,2072,0,3
1777452659.301955,2346,0,3
1777452659.304517,2215,0,3
1777452659.3060968,1928,0,3
1777452659.310236,1608,0,3
1777452659.3147619,1755,0,3
1777452659.31494,2240,0,3
1777452659.317993,2381,0,3
1777452659.32093,2119,0,3
1777452659.323947,1792,0,3
1777452659.33,1631,0,3
1777452659.331109,2052,0,3
1777452659.33393,2356,0,3
1777452659.3363352,2265,0,3
1777452659.339784,2008,0,3
1777452659.3458712,1610,0,3
1777452659.346115,1727,0,3
1777452659.349416,2235,0,3
1777452659.350955,2368,0,3
1777452659.353908,2065,0,3
1777452659.356886,1863,0,3
1777452659.359909,1715,0,3
1777452659.362902,2003,0,3
1777452659.368774,2380,0,3
1777452659.372622,2291,0,3
1777452659.3727732,2091,0,3
1777452659.37555,1678,0,3
1777452659.3806999,1764,0,3
1777452659.3850508,2127,0,3
1777452659.3852139,2336,0,3
1777452659.388198,2146,0,3
1777452659.389917,1900,0,3
1777452659.392891,1575,0,3
1777452659.399515,1878,0,3
1777452659.400169,2363,0,3
1777452659.403271,2358,0,3
1777452659.406118,2010,0,3
1777452659.408085,1811,0,3
1777452659.411102,1683,0,3
1777452659.4151812,2087,0,3
1777452659.418148,2292,0,3
1777452659.4199061,2244,0,3
1777452659.422904,2013,0,3
1777452659.4259021,1638,0,3
1777452659.428898,1784,0,3
1777452659.4356859,2262,0,3
1777452659.436657,2373,0,3
1777452659.439295,2046,0,3
1777452659.441844,1910,0,3
1777452659.443954,1717,0,3
1777452659.449711,1924,0,3
1777452659.449916,2349,0,3
1777452659.453235,2095,0,3
1777452659.455916,2050,0,3
1777452659.462189,1519,0,3
1777452659.4631622,1902,0,3
1777452659.465576,2310,0,3
1777452659.468904,2336,0,3
1777452659.4724438,2087,0,3
1777452659.4789388,2027,0,3
1777452659.479019,1576,0,3
1777452659.480374,2004,0,3
1777452659.482974,2520,0,3
1777452659.485894,2198,0,3
1777452659.488894,1863,0,3
1777452659.497617,1626,0,3
1777452659.497761,1936,0,3
1777452659.498893,2202,0,3
1777452659.5009978,2481,0,3
1777452659.504116,1938,0,3
1777452659.507512,1862,0,3
1777452659.511113,1608,0,3
1777452659.513372,1978,0,3
1777452659.515948,2355,0,3
1777452659.519092,2182,0,3
1777452659.5242891,1869,0,3
1777452659.524895,1883,0,3
1777452659.527904,1991,0,3
1777452659.5314949,2067,0,3
1777452659.5343611,2363,0,3
1777452659.5379891,2262,0,3
1777452659.5402932,1887,0,3
1777452659.542903,1574,0,3
1777452659.545907,1963,0,3
1777452659.548905,2368,0,3
1777452659.551888,2195,0,3
1777452659.5595891,2013,0,3
1777452659.5601668,1769,0,3
1777452659.5638762,1696,0,3
1777452659.564804,2177,0,3
1777452659.568841,2406,0,3
1777452659.572462,2238,0,3
1777452659.57289,1940,0,3
1777452659.576062,1830,0,3
1777452659.578803,1851,0,3
1777452659.586765,2345,0,3
1777452659.58771,2376,0,3
1777452659.587863,2178,0,3
1777452659.5922391,1845,0,3
1777452659.593943,1703,0,3
1777452659.599815,2031,0,3
1777452659.5999942,2359,0,3
1777452659.603306,2228,0,3
1777452659.605878,2005,0,3
1777452659.608764,1624,0,3
1777452659.611767,1805,0,3
1777452659.614872,2291,0,3
1777452659.620339,2305,0,3
1777452659.6214411,2113,0,3
1777452659.6240692,1747,0,3
1777452659.627908,1563,0,3
1777452659.634479,1949,0,3
1777452659.63467,2353,0,3
1777452659.637632,2339,0,3
1777452659.6389482,2024,0,3
1777452659.6417952,1542,0,3
1777452659.649353,1700,0,3
1777452659.649494,2259,0,3
1777452659.651176,2363,0,3
1777452659.654319,2187,0,3
1777452659.657676,1867,0,3
1777452659.661259,1622,0,3
1777452659.663933,1968,0,3
1777452659.665762,2367,0,3
1777452659.66876,2344,0,3
1777452659.671755,2034,0,3
1777452659.6747541,1741,0,3
1777452659.6811368,1760,0,3
1777452659.682364,2224,0,3
1777452659.685089,2493,0,3
1777452659.687731,2352,0,3
1777452659.689945,1965,0,3
1777452659.6960099,1850,0,3
1777452659.6962419,2176,0,3
1777452659.699301,2590,0,3
1777452659.7019572,2551,0,3
1777452659.7047942,2233,0,3
1777452659.710561,1941,0,3
1777452659.7111082,1788,0,3
1777452659.714376,2378,0,3
1777452659.7176168,2679,0,3
1777452659.7199419,2510,0,3
1777452659.7259488,2217,0,3
1777452659.726233,1742,0,3
1777452659.729353,2121,0,3
1777452659.731988,2630,0,3
1777452659.734742,2529,0,3
1777452659.737751,2383,0,3
1777452659.740746,1953,0,3
1777452659.748597,1914,0,3
1777452659.751123,2246,0,3
1777452659.7515259,2539,0,3
1777452659.75415,2515,0,3
1777452659.756899,2189,0,3
1777452659.759541,1787,0,3
1777452659.763444,2001,0,3
1777452659.766479,2503,0,3
1777452659.767874,2489,0,3
1777452659.77075,2253,0,3
1777452659.778083,2072,0,3
1777452659.77932,1771,0,3
1777452659.781297,2269,0,3
1777452659.784082,2498,0,3
1777452659.78641,2444,0,3
1777452659.792542,2169,0,3
1777452659.7927868,1767,0,3
1777452659.795752,1897,0,3
1777452659.798392,2387,0,3
1777452659.80081,2424,0,3
1777452659.803742,2200,0,3
1777452659.806752,1952,0,3
1777452659.814492,1707,0,3
1777452659.815618,2079,0,3
1777452659.8181288,2378,0,3
1777452659.820554,2402,0,3
1777452659.8228412,2141,0,3
1777452659.82946,1855,0,3
1777452659.829988,1861,0,3
1777452659.832835,2368,0,3
1777452659.834207,2466,0,3
1777452659.836837,2211,0,3
1777452659.843316,1975,0,3
1777452659.845031,1811,0,3
1777452659.847598,2018,0,3
1777452659.85068,2429,0,3
1777452659.853207,2351,0,3
1777452659.855198,2125,0,3
1777452659.859122,1826,0,3
1777452659.8615701,1852,0,3
1777452659.864206,2404,0,3
1777452659.866873,2545,0,3
1777452659.869756,2356,0,3
1777452659.872753,2008,0,3
1777452659.880894,1698,0,3
1777452659.881589,1925,0,3
1777452659.8838952,2295,0,3
1777452659.887012,2421,0,3
1777452659.891392,2225,0,3
1777452659.895513,1915,0,3
1777452659.896011,1776,0,3
1777452659.898964,2310,0,3
1777452659.90034,2453,0,3
1777452659.902984,2264,0,3
1777452659.9119968,1963,0,3
1777452659.913332,1783,0,3
1777452659.919799,1897,0,3
1777452659.922994,2265,0,3
1777452659.926891,2460,0,3
1777452659.9273338,2181,0,3
1777452659.9282298,1907,0,3
1777452659.9309719,1700,0,3
1777452659.931239,2324,0,3
1777452659.9326432,2461,0,3
1777452659.93563,2508,0,3
1777452659.938636,1997,0,3
1777452659.941639,1682,0,3
1777452659.950164,1672,0,3
1777452659.950351,2147,0,3
1777452659.951033,2476,0,3
1777452659.9540539,2199,0,3
1777452659.9580622,1938,0,3
1777452659.961249,1807,0,3
1777452659.964907,2015,0,3
1777452659.967634,2400,0,3
1777452659.968947,2493,0,3
1777452659.971664,2068,0,3
1777452659.978643,1613,0,3
1777452659.9792728,1688,0,3
1777452659.981793,2347,0,3
1777452659.984406,2387,0,3
1777452659.986637,2300,0,3
1777452659.992535,2035,0,3
1777452659.992722,1672,0,3
1777452659.996168,2058,0,3
1777452659.998813,2650,0,3
1777452660.001665,2506,0,3
1777452660.004658,2046,0,3
1777452660.007781,1909,0,3
1777452660.013091,1967,0,3
1777452660.014712,2439,0,3
1777452660.0168,2534,0,3
1777452660.021064,2338,0,3
1777452660.0238552,2000,0,3
1777452660.027679,1972,0,3
1777452660.03054,2039,0,3
1777452660.031851,2422,0,3
1777452660.0346391,2361,0,3
1777452660.040639,2331,0,3
1777452660.04129,1988,0,3
1777452660.0443058,1804,0,3
1777452660.046806,2701,0,3
1777452660.051369,2632,0,3
1777452660.0580952,2284,0,3
1777452660.0581398,2388,0,3
1777452660.058628,1976,0,3
1777452660.061644,2377,0,3
1777452660.064638,2592,0,3
1777452660.067722,2660,0,3
1777452660.070876,2470,0,3
1777452660.076813,2740,0,3
1777452660.078062,2317,0,3
1777452660.080634,2396,0,3
1777452660.084067,3273,0,3
1777452660.086406,2885,0,3
1777452660.094904,2313,0,3
1777452660.095354,2279,0,3
1777452660.0958562,2566,0,3
1777452660.0994391,2895,0,3
1777452660.100794,3123,0,3
1777452660.10362,2673,0,3
1777452660.111308,2610,0,3
1777452660.1115022,2486,0,3
1777452660.115382,3177,0,3
1777452660.115809,3442,0,3
1777452660.118708,3246,0,3
1777452660.1217659,2870,0,3
1777452660.128035,2923,0,3
1777452660.1283891,3112,0,3
1777452660.1312902,3198,0,3
1777452660.1339772,3295,0,3
1777452660.1366432,3160,0,3
1777452660.139625,3027,0,3
1777452660.142655,2828,0,3
1777452660.145715,2981,0,3
1777452660.152148,3191,0,3
1777452660.15281,2900,0,3
1777452660.1553931,2930,0,3
1777452660.159381,2966,0,3
1777452660.1624808,2586,0,3
1777452660.1662369,3046,0,3
1777452660.1666229,3286,0,3
1777452660.169826,2946,0,3
1777452660.17263,2874,0,3
1777452660.179668,2825,0,3
1777452660.18033,2448,0,3
1777452660.183316,3120,0,3
1777452660.185678,3209,0,3
1777452660.18799,3016,0,3
1777452660.193855,2666,0,3
1777452660.193953,2451,0,3
1777452660.196758,2905,0,3
1777452660.199633,3141,0,3
1777452660.2026272,2632,0,3
1777452660.205626,2613,0,3
1777452660.2086442,2499,0,3
1777452660.21429,2455,0,3
1777452660.215269,2656,0,3
1777452660.2200398,2738,0,3
1777452660.2211452,2581,0,3
1777452660.227972,2605,0,3
1777452660.2283058,2310,0,3
1777452660.230548,2573,0,3
1777452660.233129,2815,0,3
1777452660.2356968,2589,0,3
1777452660.242626,2324,0,3
1777452660.243263,2195,0,3
1777452660.245342,2330,0,3
1777452660.2478678,2657,0,3
1777452660.252204,2628,0,3
1777452660.2557702,2617,0,3
1777452660.2580092,2443,0,3
1777452660.2595189,2106,0,3
1777452660.2625,2535,0,3
1777452660.26552,2494,0,3
1777452660.2684858,2591,0,3
1777452660.27584,2443,0,3
1777452660.276437,2050,0,3
1777452660.279414,1962,0,3
1777452660.2816489,2333,0,3
1777452660.2843258,2603,0,3
1777452660.290137,2399,0,3
1777452660.290279,2158,0,3
1777452660.293077,1925,0,3
1777452660.295699,2143,0,3
1777452660.2985191,2393,0,3
1777452660.304003,2512,0,3
1777452660.3050208,2194,0,3
1777452660.307866,1997,0,3
1777452660.3118951,1955,0,3
1777452660.314723,2151,0,3
1777452660.318321,2372,0,3
1777452660.3205981,2401,0,3
1777452660.3231812,2128,0,3
1777452660.3257542,1932,0,3
1777452660.328512,1955,0,3
1777452660.331487,2367,0,3
1777452660.3384268,2530,0,3
1777452660.339457,2199,0,3
1777452660.341454,1946,0,3
1777452660.344355,1805,0,3
1777452660.3486469,2091,0,3
1777452660.35283,2347,0,3
1777452660.355433,2314,0,3
1777452660.35566,2094,0,3
1777452660.3584929,1818,0,3
1777452660.3686552,2100,0,3
1777452660.37374,2333,0,3
1777452660.374945,2229,0,3
1777452660.378305,2111,0,3
1777452660.378539,1881,0,3
1777452660.382168,1759,0,3
1777452660.3824792,2133,0,3
1777452660.3828568,2161,0,3
1777452660.3855722,2178,0,3
1777452660.38849,1966,0,3
1777452660.391501,1961,0,3
1777452660.39449,1776,0,3
1777452660.397546,2228,0,3
1777452660.406912,2364,0,3
1777452660.40989,2159,0,3
1777452660.410531,1976,0,3
1777452660.414896,1811,0,3
1777452660.418873,2065,0,3
1777452660.4191139,2454,0,3
1777452660.419361,2284,0,3
1777452660.421994,2033,0,3
1777452660.4246578,1750,0,3
1777452660.4274921,1909,0,3
1777452660.434701,2186,0,3
1777452660.4354749,2384,0,3
1777452660.4370172,2011,0,3
1777452660.4415429,2053,0,3
1777452660.443696,1713,0,3
1777452660.450942,2098,0,3
1777452660.4513018,2233,0,3
1777452660.451624,2236,0,3
1777452660.45469,2077,0,3
1777452660.457511,1929,0,3
1777452660.460501,1826,0,3
1777452660.46349,2093,0,3
1777452660.466495,2362,0,3
1777452660.475414,2393,0,3
1777452660.476266,1944,0,3
1777452660.477052,1716,0,3
1777452660.479489,1877,0,3
1777452660.4826188,2441,0,3
1777452660.484888,2285,0,3
1777452660.487967,2077,0,3
1777452660.492525,1907,0,3
1777452660.495585,1796,0,3
1777452660.497014,2110,0,3
1777452660.499722,2468,0,3
1777452660.508537,2200,0,3
1777452660.50978,2090,0,3
1777452660.512161,1828,0,3
1777452660.5124302,1868,0,3
1777452660.515701,2336,0,3
1777452660.517791,2399,0,3
1777452660.521143,1996,0,3
1777452660.525394,1913,0,3
1777452660.528794,1819,0,3
1777452660.5302331,2119,0,3
1777452660.532869,2271,0,3
1777452660.535563,2184,0,3
1777452660.53849,1928,0,3
1777452660.541501,1731,0,3
1777452660.550657,1808,0,3
1777452660.550914,2164,0,3
1777452660.5516999,2269,0,3
1777452660.553727,2138,0,3
1777452660.558335,1887,0,3
1777452660.5619872,1801,0,3
1777452660.566507,1965,0,3
1777452660.566606,2260,0,3
1777452660.569761,2164,0,3
1777452660.571359,1907,0,3
1777452660.5743759,1661,0,3
1777452660.58195,1753,0,3
1777452660.58217,2065,0,3
1777452660.5863822,2120,0,3
1777452660.586804,1995,0,3
1777452660.591379,1716,0,3
1777452660.592903,1503,0,3
1777452660.599357,1840,0,3
1777452660.599864,2197,0,3
1777452660.6031392,2119,0,3
1777452660.604486,1837,0,3
1777452660.607381,1704,0,3
1777452660.610369,1685,0,3
1777452660.613364,1879,0,3
1777452660.616367,2059,0,3
1777452660.624029,2001,0,3
1777452660.6248362,1707,0,3
1777452660.627775,1462,0,3
1777452660.630531,1638,0,3
1777452660.63335,2115,0,3
1777452660.640969,2063,0,3
1777452660.6412249,1787,0,3
1777452660.641781,1729,0,3
1777452660.645045,1739,0,3
1777452660.646401,1854,0,3
1777452660.64936,2079,0,3
1777452660.658262,1986,0,3
1777452660.661821,1767,0,3
1777452660.6623669,1436,0,3
1777452660.666763,1747,0,3
1777452660.667061,1972,0,3
1777452660.668268,2071,0,3
1777452660.6721652,1859,0,3
1777452660.676793,1612,0,3
1777452660.67739,1643,0,3
1777452660.6805482,1761,0,3
1777452660.6823611,1962,0,3
1777452660.6854131,1968,0,3
1777452660.688371,1850,0,3
1777452660.691367,1535,0,3
1777452660.694365,1501,0,3
1777452660.7027898,1952,0,3
1777452660.703664,2057,0,3
1777452660.7037811,1765,0,3
1777452660.706591,1543,0,3
1777452660.7100632,1450,0,3
1777452660.714441,1846,0,3
1777452660.718579,2027,0,3
1777452660.7189162,2060,0,3
1777452660.7219992,1778,0,3
1777452660.7246022,1491,0,3
1777452660.727377,1619,0,3
1777452660.734008,2042,0,3
1777452660.735307,1929,0,3
1777452660.738297,1935,0,3
1777452660.740821,1695,0,3
1777452660.743099,1411,0,3
1777452660.746644,1636,0,3
1777452660.750908,1991,0,3
1777452660.751473,2068,0,3
1777452660.754925,1862,0,3
1777452660.7575018,1550,0,3
1777452660.760393,1383,0,3
1777452660.763368,1889,0,3
1777452660.7663932,2103,0,3
1777452660.7733061,2041,0,3
1777452660.773518,1595,0,3
1777452660.777214,1383,0,3
1777452660.780082,1616,0,3
1777452660.7815812,1936,0,3
1777452660.785022,1845,0,3
1777452660.789118,1684,0,3
1777452660.7922869,1430,0,3
1777452660.7936058,1232,0,3
1777452660.796397,1617,0,3
1777452660.803587,1934,0,3
1777452660.8074958,1862,0,3
1777452660.8079,1519,0,3
1777452660.8113651,1247,0,3
1777452660.813032,1349,0,3
1777452660.816125,1890,0,3
1777452660.820234,1935,0,3
1777452660.820562,1672,0,3
1777452660.8236291,1436,0,3
1777452660.826415,1316,0,3
1777452660.829393,1721,0,3
1777452660.832353,1800,0,3
1777452660.8353841,1772,0,3
1777452660.841744,1561,0,3
1777452660.842263,1302,0,3
1777452660.844704,1240,0,3
1777452660.8482702,1746,0,3
1777452660.851383,1849,0,3
1777452660.854909,1789,0,3
1777452660.8577092,1505,0,3
1777452660.859391,1242,0,3
1777452660.862389,1570,0,3
1777452660.86789,1910,0,3
1777452660.8688798,1877,0,3
1777452660.87141,1622,0,3
1777452660.8748438,1321,0,3
1777452660.877779,1251,0,3
1777452660.8813949,1765,0,3
1777452660.883956,1998,0,3
1777452660.886539,1759,0,3
1777452660.88939,1488,0,3
1777452660.89238,1355,0,3
1777452660.8954089,1559,0,3
1777452660.901334,1937,0,3
1777452660.902207,1922,0,3
1777452660.906581,1708,0,3
1777452660.908212,1406,0,3
1777452660.9105222,1403,0,3
1777452660.914616,1804,0,3
1777452660.9179149,2039,0,3
1777452660.922702,1904,0,3
1777452660.92324,1620,0,3
1777452660.92979,1432,0,3
1777452660.930007,1631,0,3
1777452660.933238,1975,0,3
1777452660.935392,2103,0,3
1777452660.940059,1819,0,3
1777452660.943721,1493,0,3
1777452660.944053,1498,0,3
1777452660.9467578,1823,0,3
1777452660.94945,2058,0,3
1777452660.95236,1998,0,3
1777452660.955364,1749,0,3
1777452660.958397,1412,0,3
1777452660.965308,1667,0,3
1777452660.965947,2146,0,3
1777452660.968159,2113,0,3
1777452660.9707038,1884,0,3
1777452660.975242,1644,0,3
1777452660.978745,1508,0,3
1777452660.9792771,1881,0,3
1777452660.982267,2123,0,3
1777452660.9852722,2047,0,3
1777452660.992026,1799,0,3
1777452660.992735,1538,0,3
1777452660.995272,1679,0,3
1777452660.997791,2101,0,3
1777452661.0054772,2256,0,3
1777452661.005682,2045,0,3
1777452661.00829,1690,0,3
1777452661.0096169,1500,0,3
1777452661.0122721,1861,0,3
1777452661.015258,2229,0,3
1777452661.018246,2153,0,3
1777452661.021256,1894,0,3
1777452661.0265138,1531,0,3
1777452661.029901,1561,0,3
1777452661.0324428,2098,0,3
1777452661.0339358,2226,0,3
1777452661.040385,2096,0,3
1777452661.040701,1769,0,3
1777452661.04337,1521,0,3
1777452661.045918,1824,0,3
1777452661.048525,2238,0,3
1777452661.05367,2201,0,3
1777452661.054537,1916,0,3
1777452661.058752,1658,0,3
1777452661.06076,1624,0,3
1777452661.066036,2024,0,3
1777452661.066389,2271,0,3
1777452661.069726,2087,0,3
1777452661.072327,1847,0,3
1777452661.0752482,1571,0,3
1777452661.078233,1856,0,3
1777452661.0857658,2287,0,3
1777452661.085867,2204,0,3
1777452661.088922,1950,0,3
1777452661.0907688,1671,0,3
1777452661.0948029,1628,0,3
1777452661.098064,2061,0,3
1777452661.100909,2245,0,3
1777452661.102248,2152,0,3
1777452661.105273,1830,0,3
1777452661.111367,1570,0,3
1777452661.112386,1841,0,3
1777452661.1150038,2286,0,3
1777452661.118164,2339,0,3
1777452661.121588,2030,0,3
1777452661.124896,1733,0,3
1777452661.127245,1592,0,3
1777452661.1298828,1974,0,3
1777452661.1325922,2276,0,3
1777452661.135285,2188,0,3
1777452661.1382349,1894,0,3
1777452661.146254,1603,0,3
1777452661.1473181,1652,0,3
1777452661.147943,2248,0,3
1777452661.152566,2315,0,3
1777452661.15401,2071,0,3
1777452661.156703,1846,0,3
1777452661.1602612,1692,0,3
1777452661.1629891,2027,0,3
1777452661.165731,2302,0,3
1777452661.16849,2217,0,3
1777452661.17665,1931,0,3
1777452661.176821,1657,0,3
1777452661.178967,1714,0,3
1777452661.181134,2180,0,3
1777452661.1836002,2271,0,3
1777452661.186757,2094,0,3
1777452661.1892638,1797,0,3
1777452661.192235,1594,0,3
1777452661.195235,1932,0,3
1777452661.1982331,2291,0,3
1777452661.2054179,2213,0,3
1777452661.206837,2031,0,3
1777452661.207927,1703,0,3
1777452661.211414,1713,0,3
1777452661.213696,2106,0,3
1777452661.2163892,2263,0,3
1777452661.2200398,2166,0,3
1777452661.222702,1817,0,3
1777452661.225264,1599,0,3
1777452661.2282612,1842,0,3
1777452661.233235,2239,0,3
1777452661.236359,2263,0,3
1777452661.238473,2014,0,3
1777452661.241036,1743,0,3
1777452661.24627,1694,0,3
1777452661.246453,2105,0,3
1777452661.249679,2428,0,3
1777452661.252274,2091,0,3
1777452661.255254,1838,0,3
1777452661.258233,1572,0,3
1777452661.265598,1815,0,3
1777452661.266496,2195,0,3
1777452661.268996,2261,0,3
1777452661.2710469,2100,0,3
1777452661.2740521,1769,0,3
1777452661.279318,1681,0,3
1777452661.27968,2046,0,3
1777452661.282838,2278,0,3
1777452661.285402,2224,0,3
1777452661.291591,2015,0,3
1777452661.291693,1695,0,3
1777452661.294891,1701,0,3
1777452661.297419,2230,0,3
1777452661.3016598,2236,0,3
1777452661.305181,2072,0,3
1777452661.307415,1852,0,3
1777452661.3092349,1647,0,3
1777452661.3122509,1986,0,3
1777452661.315226,2333,0,3
1777452661.3182578,2235,0,3
1777452661.325752,1956,0,3
1777452661.326854,1726,0,3
1777452661.3279848,1812,0,3
1777452661.331876,2251,0,3
1777452661.334048,2284,0,3
1777452661.340273,2102,0,3
1777452661.340427,1891,0,3
1777452661.342933,1634,0,3
1777452661.345501,1891,0,3
1777452661.352285,2332,0,3
1777452661.354089,2192,0,3
1777452661.354309,2074,0,3
1777452661.357259,1751,0,3
1777452661.361283,1738,0,3
1777452661.3641028,2225,0,3
1777452661.367769,2358,0,3
1777452661.3703601,2267,0,3
1777452661.372255,1932,0,3
1777452661.375283,1486,0,3
1777452661.378263,1882,0,3
1777452661.381232,2289,0,3
1777452661.387163,2272,0,3
1777452661.3877141,2012,0,3
1777452661.391155,1598,0,3
1777452661.393704,1728,0,3
1777452661.398008,1973,0,3
1777452661.403807,2500,0,3
1777452661.4039931,2244,0,3
1777452661.405298,1846,0,3
1777452661.408254,1614,0,3
1777452661.4130309,1981,0,3
1777452661.416158,2212,0,3
1777452661.418692,2194,0,3
1777452661.4207911,1960,0,3
1777452661.426413,1773,0,3
1777452661.426645,1691,0,3
1777452661.429389,1987,0,3
1777452661.432222,2347,0,3
1777452661.435254,2301,0,3
1777452661.4382432,1971,0,3
1777452661.445523,1675,0,3
1777452661.44695,1783,0,3
1777452661.447519,2428,0,3
1777452661.4518578,2200,0,3
1777452661.4546392,2065,0,3
1777452661.4564102,1876,0,3
1777452661.4598029,1674,0,3
1777452661.4623842,1748,0,3
1777452661.465133,2254,0,3
1777452661.4681118,2323,0,3
1777452661.47406,1926,0,3
1777452661.4747038,1598,0,3
1777452661.4774132,1597,0,3
1777452661.481826,2480,0,3
1777452661.484593,2483,0,3
1777452661.488137,1896,0,3
1777452661.491054,1652,0,3
1777452661.4923992,1651,0,3
1777452661.495112,1881,0,3
1777452661.498118,2387,0,3
1777452661.5010939,2287,0,3
1777452661.509442,1917,0,3
1777452661.510039,1374,0,3
1777452661.5106912,1706,0,3
1777452661.514996,2212,0,3
1777452661.517218,2334,0,3
1777452661.519855,2232,0,3
1777452661.523416,1792,0,3
1777452661.5262341,1632,0,3
1777452661.52812,1820,0,3
1777452661.5311239,2344,0,3
1777452661.5375412,2401,0,3
1777452661.538572,2194,0,3
1777452661.540284,1590,0,3
1777452661.544842,1679,0,3
1777452661.54712,2193,0,3
1777452661.5506382,2265,0,3
1777452661.553302,2181,0,3
1777452661.555136,1738,0,3
1777452661.558133,1571,0,3
1777452661.561147,1864,0,3
1777452661.564115,2235,0,3
1777452661.572993,2276,0,3
1777452661.573758,2003,0,3
1777452661.574847,1750,0,3
1777452661.5770009,1591,0,3
1777452661.579983,2077,0,3
1777452661.5838962,2329,0,3
1777452661.587434,2208,0,3
1777452661.590317,1939,0,3
1777452661.591632,1597,0,3
1777452661.594205,1813,0,3
1777452661.601593,2312,0,3
1777452661.601745,2348,0,3
1777452661.6042838,2078,0,3
1777452661.606731,1747,0,3
1777452661.614207,1605,0,3
1777452661.614387,2021,0,3
1777452661.6167119,2357,0,3
1777452661.61812,2222,0,3
1777452661.621093,1951,0,3
1777452661.624098,1659,0,3
1777452661.627095,1768,0,3
1777452661.634867,2322,0,3
1777452661.6355178,2299,0,3
1777452661.6364968,2118,0,3
1777452661.6403751,1787,0,3
1777452661.6432698,1576,0,3
1777452661.6485682,1922,0,3
1777452661.648875,2273,0,3
1777452661.6516638,2206,0,3
1777452661.654241,1952,0,3
1777452661.661797,1673,0,3
1777452661.663224,1609,0,3
1777452661.6638348,2212,0,3
1777452661.667787,2290,0,3
1777452661.669199,2094,0,3
1777452661.6721568,1781,0,3
1777452661.67574,1502,0,3
1777452661.6783628,1854,0,3
1777452661.681113,2298,0,3
1777452661.684096,2273,0,3
1777452661.687092,2030,0,3
1777452661.6901572,1713,0,3
1777452661.696945,1727,0,3
1777452661.699917,2172,0,3
1777452661.7001548,2401,0,3
1777452661.702142,2312,0,3
1777452661.706541,1907,0,3
1777452661.7096598,1675,0,3
1777452661.7120378,1837,0,3
1777452661.7146082,2306,0,3
1777452661.720819,2414,0,3
1777452661.720914,2142,0,3
1777452661.723638,1890,0,3
1777452661.726402,1892,0,3
1777452661.72929,2084,0,3
1777452661.7324119,2347,0,3
1777452661.735546,2485,0,3
1777452661.7381,1997,0,3
1777452661.74112,1672,0,3
1777452661.744116,1987,0,3
1777452661.7499928,2163,0,3
1777452661.750787,2316,0,3
1777452661.754671,2145,0,3
1777452661.756938,1866,0,3
1777452661.761843,1616,0,3
1777452661.762134,2077,0,3
1777452661.765219,2576,0,3
1777452661.7680798,2296,0,3
1777452661.772908,2012,0,3
1777452661.775543,1770,0,3
1777452661.7777238,1928,0,3
1777452661.7848032,2364,0,3
1777452661.785155,2337,0,3
1777452661.7876632,2170,0,3
1777452661.789094,1887,0,3
1777452661.7920902,1605,0,3
1777452661.79509,1963,0,3
1777452661.798101,2367,0,3
1777452661.805137,2293,0,3
1777452661.805669,2077,0,3
1777452661.807564,1560,0,3
1777452661.810652,1796,0,3
1777452661.817138,2241,0,3
1777452661.8192708,2285,0,3
1777452661.8194182,2203,0,3
1777452661.8220851,1832,0,3
1777452661.824998,1634,0,3
1777452661.830455,1930,0,3
1777452661.833384,2395,0,3
1777452661.835823,2314,0,3
1777452661.837863,2090,0,3
1777452661.8434088,1825,0,3
1777452661.8437078,1780,0,3
1777452661.8462641,2191,0,3
1777452661.84899,2343,0,3
1777452661.851978,2175,0,3
1777452661.854976,2058,0,3
1777452661.863193,1808,0,3
1777452661.8645241,2011,0,3
1777452661.8655229,2373,0,3
1777452661.867278,2309,0,3
1777452661.8703759,2206,0,3
1777452661.874557,1723,0,3
1777452661.8784041,1793,0,3
1777452661.8808599,2171,0,3
1777452661.882258,2265,0,3
1777452661.8849878,2334,0,3
1777452661.89512,2088,0,3
1777452661.895744,1835,0,3
1777452661.898871,1884,0,3
1777452661.9005198,2523,0,3
1777452661.90155,2429,0,3
1777452661.9071841,2055,0,3
1777452661.9076722,2001,0,3
1777452661.909813,1860,0,3
1777452661.912637,2024,0,3
1777452661.915154,2301,0,3
1777452661.91796,2382,0,3
1777452661.920969,2086,0,3
1777452661.929441,1756,0,3
1777452661.931245,1802,0,3
1777452661.931424,2611,0,3
1777452661.9340842,2370,0,3
1777452661.936867,2150,0,3
1777452661.94244,2100,0,3
1777452661.942823,1704,0,3
1777452661.945706,2214,0,3
1777452661.948343,2581,0,3
1777452661.951197,2465,0,3
1777452661.957406,1946,0,3
1777452661.96006,1955,0,3
1777452661.960358,2067,0,3
1777452661.965298,2111,0,3
1777452661.9714339,2699,0,3
1777452661.97185,2490,0,3
1777452661.972089,1985,0,3
1777452661.975206,2111,0,3
1777452661.977974,2162,0,3
1777452661.9809668,2659,0,3
1777452661.9839659,2646,0,3
1777452661.987017,2414,0,3
1777452661.996533,2213,0,3
1777452661.9974499,1991,0,3
1777452661.998147,2644,0,3
1777452662.0000892,2584,0,3
1777452662.002512,2491,0,3
1777452662.006144,2265,0,3
1777452662.008366,1991,0,3
1777452662.013082,2250,0,3
1777452662.01636,2413,0,3
1777452662.016969,2958,0,3
1777452662.01997,2328,0,3
1777452662.029761,2252,0,3
1777452662.030554,2312,0,3
1777452662.0307672,2600,0,3
1777452662.033108,2853,0,3
1777452662.036275,2688,0,3
1777452662.038548,2532,0,3
1777452662.046001,2255,0,3
1777452662.046463,2264,0,3
1777452662.046998,2787,0,3
1777452662.050525,2920,0,3
1777452662.053167,2245,0,3
1777452662.055967,2420,0,3
1777452662.059084,2497,0,3
1777452662.061976,2974,0,3
1777452662.071408,2962,0,3
1777452662.072185,2923,0,3
1777452662.074454,2547,0,3
1777452662.074917,2443,0,3
1777452662.077309,2602,0,3
1777452662.080365,3313,0,3
1777452662.087877,3259,0,3
1777452662.088189,2597,0,3
1777452662.091681,2313,0,3
1777452662.091986,2477,0,3
1777452662.094985,2682,0,3
1777452662.09811,3076,0,3
1777452662.10891,2916,0,3
1777452662.109235,2670,0,3
1777452662.1094599,2466,0,3
1777452662.112684,2417,0,3
1777452662.113464,2612,0,3
1777452662.1178722,3031,0,3
1777452662.122559,2477,0,3
1777452662.1231449,2509,0,3
1777452662.126385,2233,0,3
1777452662.1279979,2547,0,3
1777452662.130995,2916,0,3
1777452662.133966,2673,0,3
1777452662.136993,2537,0,3
1777452662.139967,2248,0,3
1777452662.148045,2556,0,3
1777452662.148746,2828,0,3
1777452662.149324,2962,0,3
1777452662.1535769,2722,0,3
1777452662.155745,2680,0,3
1777452662.1592488,2657,0,3
1777452662.163342,2636,0,3
1777452662.166035,3181,0,3
1777452662.1673548,3174,0,3
1777452662.170004,3186,0,3
1777452662.174058,2958,0,3
1777452662.178622,2566,0,3
1777452662.181947,2984,0,3
1777452662.1821408,3331,0,3
1777452662.185756,2716,0,3
1777452662.189663,2708,0,3
1777452662.193652,2584,0,3
1777452662.1940858,2723,0,3
1777452662.1976142,2973,0,3
1777452662.2001889,2761,0,3
1777452662.202986,2729,0,3
1777452662.205993,2707,0,3
1777452662.2091,2399,0,3
1777452662.214335,2963,0,3
1777452662.2175128,3027,0,3
1777452662.219635,3029,0,3
1777452662.2216709,2764,0,3
1777452662.224212,2553,0,3
1777452662.2277172,2509,0,3
1777452662.2302778,3113,0,3
1777452662.2330072,2793,0,3
1777452662.24048,2844,0,3
1777452662.241051,2501,0,3
1777452662.243778,2319,0,3
1777452662.2458491,2762,0,3
1777452662.2482529,3158,0,3
1777452662.253835,2558,0,3
1777452662.2540212,2413,0,3
1777452662.257343,2396,0,3
1777452662.259989,2394,0,3
1777452662.262984,2723,0,3
1777452662.26595,2691,0,3
1777452662.273569,2487,0,3
1777452662.274104,2197,0,3
1777452662.2765372,2031,0,3
1777452662.278531,2406,0,3
1777452662.281617,2710,0,3
1777452662.286835,2768,0,3
1777452662.287416,2362,0,3
1777452662.29032,1880,0,3
1777452662.292953,2048,0,3
1777452662.2961679,2418,0,3
1777452662.301177,2503,0,3
1777452662.3043761,2361,0,3
1777452662.306609,2084,0,3
1777452662.308749,2140,0,3
1777452662.31135,2252,0,3
1777452662.3149471,2223,0,3
1777452662.3175218,2390,0,3
1777452662.320101,2274,0,3
1777452662.3228512,1958,0,3
1777452662.325851,1943,0,3
1777452662.328914,2226,0,3
1777452662.33296,2429,0,3
1777452662.336179,2429,0,3
1777452662.3386052,1980,0,3
1777452662.3427231,1868,0,3
1777452662.346563,2160,0,3
1777452662.3470552,2297,0,3
1777452662.350431,2361,0,3
1777452662.3530822,2147,0,3
1777452662.360092,2011,0,3
1777452662.360676,1911,0,3
1777452662.3625212,2287,0,3
1777452662.366526,2231,0,3
1777452662.36846,2152,0,3
1777452662.371957,2010,0,3
1777452662.374642,1805,0,3
1777452662.3772318,1863,0,3
1777452662.379871,2262,0,3
1777452662.382865,2337,0,3
1777452662.385838,2166,0,3
1777452662.3912268,2074,0,3
1777452662.394185,1754,0,3
1777452662.3964422,2256,0,3
1777452662.398892,2454,0,3
1777452662.401234,2207,0,3
1777452662.404796,2092,0,3
1777452662.407636,1896,0,3
1777452662.410335,1781,0,3
1777452662.412981,2158,0,3
1777452662.418051,2330,0,3
1777452662.420802,2224,0,3
1777452662.42346,2006,0,3
1777452662.425726,1946,0,3
1777452662.428056,2063,0,3
1777452662.431511,2306,0,3
1777452662.4340138,2267,0,3
1777452662.436855,2175,0,3
1777452662.439845,2016,0,3
1777452662.4428642,1951,0,3
1777452662.450791,2396,0,3
1777452662.451842,2288,0,3
1777452662.4536908,2105,0,3
1777452662.456087,2052,0,3
1777452662.458254,1746,0,3
1777452662.46299,2018,0,3
1777452662.465525,2378,0,3
1777452662.4668748,2391,0,3
1777452662.469871,2327,0,3
1777452662.475932,1935,0,3
1777452662.477441,1894,0,3
1777452662.479449,2370,0,3
1777452662.481981,2366,0,3
1777452662.486114,2305,0,3
1777452662.4898748,2201,0,3
1777452662.492629,1570,0,3
1777452662.493946,1897,0,3
1777452662.496873,2257,0,3
1777452662.4998589,2466,0,3
1777452662.50283,2306,0,3
1777452662.50932,1976,0,3
1777452662.511916,1751,0,3
1777452662.512021,2210,0,3
1777452662.515732,2198,0,3
1777452662.518827,2234,0,3
1777452662.52242,2031,0,3
1777452662.5251358,1641,0,3
1777452662.526865,1797,0,3
1777452662.5298638,2061,0,3
1777452662.53598,2182,0,3
1777452662.538461,2002,0,3
1777452662.5408692,1837,0,3
1777452662.5431411,1737,0,3
1777452662.54792,1984,0,3
1777452662.548213,2222,0,3
1777452662.5513642,2131,0,3
1777452662.554032,2046,0,3
1777452662.556829,1736,0,3
1777452662.5598679,1841,0,3
1777452662.563068,2128,0,3
1777452662.570082,2163,0,3
1777452662.5707011,1995,0,3
1777452662.574921,1851,0,3
1777452662.575427,1738,0,3
1777452662.583264,1963,0,3
1777452662.583393,2207,0,3
1777452662.585686,2235,0,3
1777452662.587007,2015,0,3
1777452662.589934,1690,0,3
1777452662.5970292,1776,0,3
1777452662.5980318,2019,0,3
1777452662.600055,2190,0,3
1777452662.6025758,2130,0,3
1777452662.610379,1682,0,3
1777452662.610759,1554,0,3
1777452662.610879,1878,0,3
1777452662.614231,2109,0,3
1777452662.616864,2063,0,3
1777452662.6198301,1872,0,3
1777452662.622827,1575,0,3
1777452662.630123,1520,0,3
1777452662.631648,1872,0,3
1777452662.632256,1972,0,3
1777452662.6361868,1900,0,3
1777452662.638352,1801,0,3
1777452662.64093,1657,0,3
1777452662.6444201,1738,0,3
1777452662.647294,2024,0,3
1777452662.6499698,1911,0,3
1777452662.656246,1795,0,3
1777452662.657148,1539,0,3
1777452662.6597602,1634,0,3
1777452662.663162,1858,0,3
1777452662.6663308,2067,0,3
1777452662.669844,1838,0,3
1777452662.672493,1819,0,3
1777452662.673936,1537,0,3
1777452662.676825,1677,0,3
1777452662.679829,2097,0,3
1777452662.68282,2016,0,3
1777452662.690125,1831,0,3
1777452662.691583,1471,0,3
1777452662.6932302,1365,0,3
1777452662.695911,1758,0,3
1777452662.6982038,2103,0,3
1777452662.70404,1843,0,3
1777452662.704252,1694,0,3
1777452662.707196,1518,0,3
1777452662.709907,1537,0,3
1777452662.717359,1812,0,3
1777452662.717935,2169,0,3
1777452662.7209961,2080,0,3
1777452662.723424,1562,0,3
1777452662.72558,1587,0,3
1777452662.7312791,1809,0,3
1777452662.731646,2047,0,3
1777452662.734218,2031,0,3
1777452662.7369,1686,0,3
1777452662.739824,1366,0,3
1777452662.742836,1423,0,3
1777452662.74586,2101,0,3
1777452662.75207,1964,0,3
1777452662.752667,1865,0,3
1777452662.756027,1720,0,3
1777452662.758764,1464,0,3
1777452662.761274,1802,0,3
1777452662.7672472,2157,0,3
1777452662.7674298,1927,0,3
1777452662.769876,1762,0,3
1777452662.772835,1488,0,3
1777452662.7758908,1483,0,3
1777452662.782018,1864,0,3
1777452662.783092,2158,0,3
1777452662.7857401,1865,0,3
1777452662.788353,1689,0,3
1777452662.791295,1340,0,3
1777452662.796758,1643,0,3
1777452662.7969909,2014,0,3
1777452662.799838,1904,0,3
1777452662.8032682,1650,0,3
1777452662.805941,1554,0,3
1777452662.808823,1423,0,3
1777452662.811944,1701,0,3
1777452662.8173518,2044,0,3
1777452662.818059,1981,0,3
1777452662.821273,1670,0,3
1777452662.8250911,1206,0,3
1777452662.832125,1453,0,3
1777452662.832475,1997,0,3
1777452662.8329558,1938,0,3
1777452662.8363168,1714,0,3
1777452662.83893,1437,0,3
1777452662.846223,1361,0,3
1777452662.846845,1793,0,3
1777452662.849856,2045,0,3
1777452662.8514812,1895,0,3
1777452662.854816,1671,0,3
1777452662.860406,1335,0,3
1777452662.8606029,1453,0,3
1777452662.863429,1889,0,3
1777452662.8660889,1858,0,3
1777452662.868834,1703,0,3
1777452662.871839,1420,0,3
1777452662.874846,1319,0,3
1777452662.8836942,1685,0,3
1777452662.885398,2043,0,3
1777452662.885841,1919,0,3
1777452662.8883781,1618,0,3
1777452662.890032,1316,0,3
1777452662.893471,1362,0,3
1777452662.897061,1776,0,3
1777452662.899937,1926,0,3
1777452662.901833,1770,0,3
1777452662.904842,1499,0,3
1777452662.911168,1123,0,3
1777452662.9123719,1566,0,3
1777452662.914977,1944,0,3
1777452662.9182122,1830,0,3
1777452662.920483,1676,0,3
1777452662.925843,1457,0,3
1777452662.926097,1410,0,3
1777452662.928876,1804,0,3
1777452662.931854,2066,0,3
1777452662.934837,1789,0,3
1777452662.937825,1553,0,3
1777452662.941077,1370,0,3
1777452662.9458728,1642,0,3
1777452662.9473522,1910,0,3
1777452662.95001,2010,0,3
1777452662.953877,1679,0,3
1777452662.956919,1422,0,3
1777452662.960565,1395,0,3
1777452662.963222,1867,0,3
1777452662.9648361,2073,0,3
1777452662.96784,1947,0,3
1777452662.974032,1635,0,3
1777452662.97699,1374,0,3
1777452662.977188,1631,0,3
1777452662.98135,2114,0,3
1777452662.9842088,1980,0,3
1777452662.98785,1868,0,3
1777452662.990241,1579,0,3
1777452662.99184,1523,0,3
1777452662.994827,1844,0,3
1777452662.9978318,2044,0,3
1777452663.000832,2000,0,3
1777452663.0084548,1746,0,3
1777452663.0095518,1484,0,3
1777452663.010106,1564,0,3
1777452663.014268,2090,0,3
1777452663.016556,2180,0,3
1777452663.019697,1946,0,3
1777452663.0232499,1687,0,3
1777452663.0255518,1457,0,3
1777452663.028151,1869,0,3
1777452663.030852,2204,0,3
1777452663.036582,2099,0,3
1777452663.037514,1847,0,3
1777452663.040273,1609,0,3
1777452663.044207,1688,0,3
1777452663.046943,2114,0,3
1777452663.0504808,2241,0,3
1777452663.053365,2070,0,3
1777452663.0547352,1752,0,3
1777452663.058487,1553,0,3
1777452663.061059,1858,0,3
1777452663.063728,2177,0,3
1777452663.071023,2103,0,3
1777452663.071146,1918,0,3
1777452663.074052,1573,0,3
1777452663.076531,1624,0,3
1777452663.080551,2008,0,3
1777452663.084225,2260,0,3
1777452663.0867882,2112,0,3
1777452663.088114,1827,0,3
1777452663.0907478,1522,0,3
1777452663.098082,1832,0,3
1777452663.0987031,2173,0,3
1777452663.1012402,2261,0,3
1777452663.10373,1937,0,3
1777452663.108096,1716,0,3
1777452663.111594,1621,0,3
1777452663.111733,2031,0,3
1777452663.1149619,2220,0,3
1777452663.117693,2138,0,3
1777452663.120728,1864,0,3
1777452663.123688,1591,0,3
1777452663.129458,1739,0,3
1777452663.130761,2173,0,3
1777452663.1343832,2227,0,3
1777452663.136412,1940,0,3
1777452663.138756,1689,0,3
1777452663.141856,1643,0,3
1777452663.1449962,2008,0,3
1777452663.147708,2270,0,3
1777452663.153771,2118,0,3
1777452663.154696,1858,0,3
1777452663.158188,1593,0,3
1777452663.1608791,1800,0,3
1777452663.1656132,2175,0,3
1777452663.165758,2250,0,3
1777452663.168889,2021,0,3
1777452663.171725,1755,0,3
1777452663.174727,1634,0,3
1777452663.177726,1962,0,3
1777452663.184134,2330,0,3
1777452663.184293,2240,0,3
1777452663.188608,1894,0,3
1777452663.190558,1599,0,3
1777452663.195464,1761,0,3
1777452663.195752,2178,0,3
1777452663.198849,2303,0,3
1777452663.201697,2121,0,3
1777452663.208104,1813,0,3
1777452663.209036,1598,0,3
1777452663.216269,1919,0,3
1777452663.2166898,2334,0,3
1777452663.219838,2222,0,3
1777452663.2203279,1943,0,3
1777452663.223088,1768,0,3
1777452663.225775,1767,0,3
1777452663.228697,2149,0,3
1777452663.23169,2278,0,3
1777452663.238749,2124,0,3
1777452663.239261,1869,0,3
1777452663.2419388,1680,0,3
1777452663.244498,1838,0,3
1777452663.248499,2278,0,3
1777452663.251883,2215,0,3
1777452663.2544289,2098,0,3
1777452663.2559402,1701,0,3
1777452663.2587168,1766,0,3
1777452663.265504,2066,0,3
1777452663.266616,2245,0,3
1777452663.2685661,2221,0,3
1777452663.272758,1900,0,3
1777452663.275297,1599,0,3
1777452663.278794,1794,0,3
1777452663.280999,2374,0,3
1777452663.2826822,2191,0,3
1777452663.285686,1914,0,3
1777452663.288689,1778,0,3
1777452663.291692,1777,0,3
1777452663.300437,2025,0,3
1777452663.3027232,2308,0,3
1777452663.302971,2172,0,3
1777452663.305645,1868,0,3
1777452663.310262,1628,0,3
1777452663.314313,1829,0,3
1777452663.314477,2337,0,3
1777452663.317127,2351,0,3
1777452663.3186822,2030,0,3
1777452663.329212,1888,0,3
1777452663.3297799,1734,0,3
1777452663.331761,1901,0,3
1777452663.3319721,2360,0,3
1777452663.335427,2249,0,3
1777452663.337245,1964,0,3
1777452663.3424351,1644,0,3
1777452663.342795,1705,0,3
1777452663.346849,2217,0,3
1777452663.348693,2374,0,3
1777452663.351694,2137,0,3
1777452663.354696,1939,0,3
1777452663.363033,1678,0,3
1777452663.3644779,2064,0,3
1777452663.367059,2225,0,3
1777452663.367485,2246,0,3
1777452663.370197,2180,0,3
1777452663.378203,1579,0,3
1777452663.378701,1782,0,3
1777452663.378921,2062,0,3
1777452663.382299,2289,0,3
1777452663.385111,2118,0,3
1777452663.3936582,2026,0,3
1777452663.396197,1633,0,3
1777452663.3966699,1785,0,3
1777452663.399338,2299,0,3
1777452663.4019032,2390,0,3
1777452663.404553,2019,0,3
1777452663.409605,1801,0,3
1777452663.410079,1708,0,3
1777452663.412537,2034,0,3
1777452663.415137,2127,0,3
1777452663.4177291,2269,0,3
1777452663.420712,1788,0,3
1777452663.423713,1597,0,3
1777452663.426999,1879,0,3
1777452663.433442,2343,0,3
1777452663.434722,2327,0,3
1777452663.4377139,2069,0,3
1777452663.441802,1855,0,3
1777452663.443179,1826,0,3
1777452663.446381,2193,0,3
1777452663.4506009,2289,0,3
1777452663.451226,2332,0,3
1777452663.454498,1983,0,3
1777452663.457238,1606,0,3
1777452663.460033,1914,0,3
1777452663.466635,2223,0,3
1777452663.468579,2462,0,3
1777452663.469324,2207,0,3
1777452663.474287,1828,0,3
1777452663.4751081,1719,0,3
1777452663.4838982,2181,0,3
1777452663.484378,2360,0,3
1777452663.4846132,2305,0,3
1777452663.487625,1989,0,3
1777452663.490307,1780,0,3
1777452663.492952,1771,0,3
1777452663.49562,2276,0,3
1777452663.498805,2315,0,3
1777452663.501585,2136,0,3
1777452663.5096478,1820,0,3
1777452663.5133078,1678,0,3
1777452663.51372,2029,0,3
1777452663.516169,2375,0,3
1777452663.5174882,2358,0,3
1777452663.522232,1929,0,3
1777452663.526989,1763,0,3
1777452663.527561,1739,0,3
1777452663.5300548,2281,0,3
1777452663.531591,2370,0,3
1777452663.534585,2232,0,3
1777452663.5441,1917,0,3
1777452663.5447948,1680,0,3
1777452663.545578,1971,0,3
1777452663.548052,2471,0,3
1777452663.5506501,2353,0,3
1777452663.552812,2059,0,3
1777452663.560339,1753,0,3
1777452663.56054,1739,0,3
1777452663.56322,2239,0,3
1777452663.5645828,2396,0,3
1777452663.567583,2245,0,3
1777452663.570591,1919,0,3
1777452663.573586,1663,0,3
1777452663.576576,1967,0,3
1777452663.5846882,2376,0,3
1777452663.5859041,2443,0,3
1777452663.588854,2059,0,3
1777452663.5891368,1762,0,3
1777452663.593354,1774,0,3
1777452663.59678,2084,0,3
1777452663.600808,2325,0,3
1777452663.600925,2216,0,3
1777452663.60394,1978,0,3
1777452663.6065779,1613,0,3
1777452663.609558,1796,0,3
1777452663.6142368,2309,0,3
1777452663.6174111,2322,0,3
1777452663.619454,2123,0,3
1777452663.6238642,1817,0,3
1777452663.6274471,1667,0,3
1777452663.62766,1977,0,3
1777452663.6310341,2253,0,3
1777452663.6336,2248,0,3
1777452663.6366,1962,0,3
1777452663.639553,1635,0,3
1777452663.646997,1780,0,3
1777452663.6475468,2314,0,3
1777452663.6502578,2296,0,3
1777452663.652402,2176,0,3
1777452663.656857,1930,0,3
1777452663.6604412,1642,0,3
1777452663.660658,2012,0,3
1777452663.6639822,2386,0,3
1777452663.666608,2313,0,3
1777452663.674119,1963,0,3
1777452663.674635,1777,0,3
1777452663.676646,1861,0,3
1777452663.6789849,2287,0,3
1777452663.6831622,2412,0,3
1777452663.686523,2265,0,3
1777452663.6891148,2016,0,3
1777452663.6905549,1784,0,3
1777452663.6935859,2039,0,3
1777452663.6965919,2527,0,3
1777452663.699564,2439,0,3
1777452663.706162,2273,0,3
1777452663.706694,1895,0,3
1777452663.709748,1901,0,3
1777452663.7121558,2405,0,3
1777452663.716256,2623,0,3
1777452663.719577,2535,0,3
1777452663.721958,2237,0,3
1777452663.723617,2082,0,3
1777452663.726596,2366,0,3
1777452663.731491,2626,0,3
1777452663.7339242,2687,0,3
1777452663.7357519,2472,0,3
1777452663.739789,2138,0,3
1777452663.742933,2026,0,3
1777452663.744873,2468,0,3
1777452663.747471,2593,0,3
1777452663.750439,2553,0,3
1777452663.753469,2325,0,3
1777452663.761046,2007,0,3
1777452663.7640839,2079,0,3
1777452663.7643678,2639,0,3
1777452663.7674088,2611,0,3
1777452663.7696068,2458,0,3
1777452663.7746189,2080,0,3
1777452663.774802,1887,0,3
1777452663.778097,2175,0,3
1777452663.780662,2572,0,3
1777452663.787313,2482,0,3
1777452663.788237,2148,0,3
1777452663.790206,1867,0,3
1777452663.793186,1931,0,3
1777452663.796277,2516,0,3
1777452663.799356,2507,0,3
1777452663.801852,2299,0,3
1777452663.804667,2026,0,3
1777452663.807466,1736,0,3
1777452663.8104692,2130,0,3
1777452663.818054,2411,0,3
1777452663.8186529,2286,0,3
1777452663.821171,2093,0,3
1777452663.823749,1737,0,3
1777452663.827105,1873,0,3
1777452663.8302982,2311,0,3
1777452663.832918,2365,0,3
1777452663.834458,2292,0,3
1777452663.837549,2059,0,3
1777452663.8426392,1856,0,3
1777452663.845189,1949,0,3
1777452663.8470058,2297,0,3
1777452663.851178,2446,0,3
1777452663.854214,2134,0,3
1777452663.8568928,1721,0,3
1777452663.858468,1677,0,3
1777452663.861459,2105,0,3
1777452663.8644538,2470,0,3
1777452663.867446,2276,0,3
1777452663.872598,1801,0,3
1777452663.875075,1644,0,3
1777452663.877645,1988,0,3
1777452663.8795362,2581,0,3
1777452663.884493,2463,0,3
1777452663.88649,2079,0,3
1777452663.88846,1727,0,3
1777452663.891417,1797,0,3
1777452663.897376,2251,0,3
1777452663.8982651,2315,0,3
1777452663.901345,2118,0,3
1777452663.908602,1929,0,3
1777452663.908756,1678,0,3
1777452663.911183,1951,0,3
1777452663.9125051,2395,0,3
1777452663.9155571,2233,0,3
1777452663.918442,2187,0,3
1777452663.9214542,1969,0,3
1777452663.926568,1640,0,3
1777452663.929796,2037,0,3
1777452663.932598,2218,0,3
1777452663.936043,2099,0,3
1777452663.939602,1977,0,3
1777452663.939713,1614,0,3
1777452663.942518,1876,0,3
1777452663.9455428,2332,0,3
1777452663.952814,2489,0,3
1777452663.953877,2166,0,3
1777452663.954858,1855,0,3
1777452663.958314,1750,0,3
1777452663.9606469,1932,0,3
1777452663.9637818,2362,0,3
1777452663.9676301,2454,0,3
1777452663.9706209,2108,0,3
1777452663.97244,1826,0,3
1777452663.975443,1591,0,3
1777452663.978432,2266,0,3
1777452663.9814332,2370,0,3
1777452663.991146,2179,0,3
1777452663.991824,2047,0,3
1777452663.993802,1828,0,3
1777452663.994045,1848,0,3
1777452663.9979231,2250,0,3
1777452663.999986,2392,0,3
1777452664.005644,2294,0,3
1777452664.0059159,1975,0,3
1777452664.009086,1676,0,3
1777452664.011765,2219,0,3
1777452664.021031,2315,0,3
1777452664.021674,2389,0,3
1777452664.026289,1810,0,3
1777452664.028119,1672,0,3
1777452664.0297449,2048,0,3
1777452664.03592,2414,0,3
1777452664.036614,2426,0,3
1777452664.037149,2239,0,3
1777452664.039853,2020,0,3
1777452664.041334,1926,0,3
1777452664.044311,2509,0,3
1777452664.0481322,2673,0,3
1777452664.0507488,2397,0,3
1777452664.058717,2187,0,3
1777452664.061266,1940,0,3
1777452664.0637581,2132,0,3
1777452664.064964,2636,0,3
1777452664.065602,2627,0,3
1777452664.069264,2300,0,3
1777452664.073079,2199,0,3
1777452664.076202,2066,0,3
1777452664.077546,2312,0,3
1777452664.080311,2979,0,3
1777452664.086601,2561,0,3
1777452664.0874062,2108,0,3
1777452664.090546,1955,0,3
1777452664.0934982,2102,0,3
1777452664.095892,2556,0,3
1777452664.101791,2584,0,3
1777452664.102109,2598,0,3
1777452664.104434,1939,0,3
1777452664.107339,1915,0,3
1777452664.110305,2207,0,3
1777452664.1133142,2894,0,3
1777452664.1163101,2421,0,3
1777452664.126302,2343,0,3
1777452664.128673,1991,0,3
1777452664.130451,2362,0,3
1777452664.13121,2654,0,3
1777452664.1325,2681,0,3
1777452664.1352692,2054,0,3
1777452664.139231,1857,0,3
1777452664.1423402,1805,0,3
1777452664.143769,2052,0,3
1777452664.146461,2519,0,3
1777452664.154419,2413,0,3
1777452664.155655,2142,0,3
1777452664.157428,1889,0,3
1777452664.160384,1907,0,3
1777452664.161855,2204,0,3
1777452664.16513,2721,0,3
1777452664.168913,2526,0,3
1777452664.171563,2265,0,3
1777452664.173305,1550,0,3
1777452664.1763022,2075,0,3
1777452664.1793,2590,0,3
1777452664.182295,2510,0,3
1777452664.190173,2495,0,3
1777452664.190756,1845,0,3
1777452664.193107,1897,0,3
1777452664.1963892,2250,0,3
1777452664.1985102,2612,0,3
1777452664.20125,1843,0,3
1777452664.2051709,2129,0,3
1777452664.2073941,1720,0,3
1777452664.209295,2114,0,3
1777452664.212297,2446,0,3
1777452664.21841,2522,0,3
1777452664.219209,2164,0,3
1777452664.222414,1967,0,3
1777452664.225117,1977,0,3
1777452664.229651,2542,0,3
1777452664.233345,2554,0,3
1777452664.233566,2261,0,3
1777452664.2369862,2171,0,3
1777452664.2395678,1964,0,3
1777452664.242332,2105,0,3
1777452664.245313,2466,0,3
1777452664.248348,2406,0,3
1777452664.253382,2085,0,3
1777452664.256475,2002,0,3
1777452664.258883,1952,0,3
1777452664.2616792,2260,0,3
1777452664.264008,2515,0,3
1777452664.2677581,2687,0,3
1777452664.2706401,2418,0,3
1777452664.272325,2160,0,3
1777452664.275328,2272,0,3
1777452664.280886,2484,0,3
1777452664.281944,2623,0,3
1777452664.284362,2551,0,3
1777452664.287991,2320,0,3
1777452664.29116,1941,0,3
1777452664.294709,2290,0,3
1777452664.2975879,2684,0,3
1777452664.299329,2665,0,3
1777452664.302331,2379,0,3
1777452664.305305,2134,0,3
1777452664.308324,2203,0,3
1777452664.315727,2658,0,3
1777452664.316997,2763,0,3
1777452664.318079,2847,0,3
1777452664.32194,2320,0,3
1777452664.324498,2155,0,3
1777452664.331059,2161,0,3
1777452664.3312562,2691,0,3
1777452664.3343701,2725,0,3
1777452664.335725,2500,0,3
1777452664.338331,2274,0,3
1777452664.346448,2055,0,3
1777452664.349074,2416,0,3
1777452664.349237,2641,0,3
1777452664.3526468,2496,0,3
1777452664.353471,2387,0,3
1777452664.357119,2001,0,3
1777452664.36506,2264,0,3
1777452664.365195,2588,0,3
1777452664.365254,2558,0,3
1777452664.3681889,2205,0,3
1777452664.3712928,2103,0,3
1777452664.374393,2015,0,3
1777452664.402936,2191,0,3
1777452664.403027,2637,0,3
1777452664.403095,2392,0,3
1777452664.4031801,2179,0,3
1777452664.403232,1921,0,3
1777452664.403305,2002,0,3
1777452664.403342,2317,0,3
1777452664.403376,2385,0,3
1777452664.403413,2262,0,3
1777452664.404723,2086,0,3
1777452664.407414,1766,0,3
1777452664.4176571,2173,0,3
1777452664.4203782,2409,0,3
1777452664.420657,2417,0,3
1777452664.422702,2048,0,3
1777452664.424742,1860,0,3
1777452664.42562,2064,0,3
1777452664.429922,2219,0,3
1777452664.434162,2258,0,3
1777452664.434485,2350,0,3
1777452664.437762,2069,0,3
1777452664.440446,1847,0,3
1777452664.4432042,1909,0,3
1777452664.446178,2436,0,3
1777452664.4492118,2473,0,3
1777452664.4572759,2156,0,3
1777452664.457972,1815,0,3
1777452664.4587038,1999,0,3
1777452664.4612942,2150,0,3
1777452664.4646451,2407,0,3
1777452664.4683971,2310,0,3
1777452664.472538,2046,0,3
1777452664.47321,1863,0,3
1777452664.47664,2048,0,3
1777452664.4792168,2308,0,3
1777452664.4822001,2370,0,3
1777452664.487854,2214,0,3
1777452664.488898,1914,0,3
1777452664.491369,1918,0,3
1777452664.495272,2223,0,3
1777452664.498484,2505,0,3
1777452664.502253,2272,0,3
1777452664.504849,2105,0,3
1777452664.506161,1800,0,3
1777452664.5091982,2122,0,3
1777452664.512179,2274,0,3
1777452664.515166,2357,0,3
1777452664.523336,2146,0,3
1777452664.526389,2064,0,3
1777452664.5265532,1832,0,3
1777452664.5286,2238,0,3
1777452664.53047,2467,0,3
1777452664.533569,2321,0,3
1777452664.537143,2029,0,3
1777452664.5394409,2056,0,3
1777452664.5424771,2130,0,3
1777452664.545171,2291,0,3
1777452664.55168,2193,0,3
1777452664.552806,2076,0,3
1777452664.5551329,1997,0,3
1777452664.559092,1891,0,3
1777452664.5612202,2208,0,3
1777452664.5634098,2203,0,3
1777452664.567486,2222,0,3
1777452664.570204,2073,0,3
1777452664.572851,1936,0,3
1777452664.5754309,2020,0,3
1777452664.578184,2345,0,3
1777452664.5811908,2391,0,3
1777452664.5889559,2205,0,3
1777452664.589102,2046,0,3
1777452664.5920799,1765,0,3
1777452664.594595,2040,0,3
1777452664.596303,2450,0,3
1777452664.602505,2379,0,3
1777452664.6026042,2108,0,3
1777452664.605598,1821,0,3
1777452664.6081789,1843,0,3
1777452664.61117,2165,0,3
1777452664.618152,2343,0,3
1777452664.619224,2278,0,3
1777452664.6208699,2096,0,3
1777452664.6239822,2009,0,3
1777452664.6274838,1962,0,3
1777452664.631221,2295,0,3
1777452664.63393,2381,0,3
1777452664.635364,2206,0,3
1777452664.638228,1826,0,3
1777452664.641174,1907,0,3
1777452664.644178,2209,0,3
1777452664.652697,2198,0,3
1777452664.655447,2239,0,3
1777452664.658117,2079,0,3
1777452664.6603441,1811,0,3
1777452664.661497,2004,0,3
1777452664.667753,2305,0,3
1777452664.667952,2224,0,3
1777452664.6688519,2110,0,3
1777452664.671506,1838,0,3
1777452664.674241,1778,0,3
1777452664.6771882,2015,0,3
1777452664.6858869,2160,0,3
1777452664.690688,2111,0,3
1777452664.693491,1852,0,3
1777452664.693936,1670,0,3
1777452664.6953,1800,0,3
1777452664.7017841,2134,0,3
1777452664.70251,2200,0,3
1777452664.702719,1987,0,3
1777452664.7057762,1678,0,3
1777452664.707175,1737,0,3
1777452664.710061,1839,0,3
1777452664.713193,2164,0,3
1777452664.716627,1975,0,3
1777452664.7192802,1787,0,3
1777452664.726942,1617,0,3
1777452664.72832,1579,0,3
1777452664.728532,1942,0,3
1777452664.7338529,2194,0,3
1777452664.7345731,1882,0,3
1777452664.743344,1726,0,3
1777452664.743532,1618,0,3
1777452664.743701,1905,0,3
1777452664.747257,2205,0,3
1777452664.7490408,2084,0,3
1777452664.75203,1754,0,3
1777452664.760978,1634,0,3
1777452664.762296,1607,0,3
1777452664.764492,2002,0,3
1777452664.7647119,2160,0,3
1777452664.7672992,1952,0,3
1777452664.770865,1833,0,3
1777452664.773207,1581,0,3
1777452664.7775202,1755,0,3
1777452664.780904,2237,0,3
1777452664.7820852,2174,0,3
1777452664.785057,1958,0,3
1777452664.7881339,1650,0,3
1777452664.791056,1766,0,3
1777452664.794083,1945,0,3
1777452664.801374,2035,0,3
1777452664.802623,1971,0,3
1777452664.805042,1899,0,3
1777452664.8085241,1493,0,3
1777452664.809288,1897,0,3
1777452664.8180149,2125,0,3
1777452664.81842,2133,0,3
1777452664.818812,1871,0,3
1777452664.822002,1711,0,3
1777452664.8246841,1677,0,3
1777452664.827296,1891,0,3
1777452664.834023,2113,0,3
1777452664.834871,2089,0,3
1777452664.8383172,1864,0,3
1777452664.8407,1698,0,3
1777452664.8422358,1602,0,3
1777452664.850349,2020,0,3
1777452664.850673,2212,0,3
1777452664.851104,1959,0,3
1777452664.854932,1781,0,3
1777452664.857632,1526,0,3
1777452664.8605928,1811,0,3
1777452664.86345,2226,0,3
1777452664.866115,2108,0,3
1777452664.8749099,1817,0,3
1777452664.882157,1656,0,3
1777452664.883439,1568,0,3
1777452664.884151,2013,0,3
1777452664.884334,2154,0,3
1777452664.885663,1903,0,3
1777452664.89176,1637,0,3
1777452664.892152,1536,0,3
1777452664.895205,1764,0,3
1777452664.8966022,2150,0,3
1777452664.8992572,2144,0,3
1777452664.907927,1901,0,3
1777452664.909454,1662,0,3
1777452664.912506,1548,0,3
1777452664.9129322,1946,0,3
1777452664.915303,2128,0,3
1777452664.917471,2066,0,3
1777452664.921327,1761,0,3
1777452664.925706,1497,0,3
1777452664.926247,1782,0,3
1777452664.929385,2130,0,3
1777452664.932033,2149,0,3
1777452664.9350321,1958,0,3
1777452664.938272,1597,0,3
1777452664.9415302,1640,0,3
1777452664.9441469,1857,0,3
1777452664.951303,1996,0,3
1777452664.9532201,1929,0,3
1777452664.955273,1670,0,3
1777452664.958533,1418,0,3
1777452664.963868,1661,0,3
1777452664.964313,2068,0,3
1777452664.9687612,1892,0,3
1777452664.969437,1741,0,3
1777452664.972469,1532,0,3
1777452664.9740548,1549,0,3
1777452664.9771059,1807,0,3
1777452664.98609,2072,0,3
1777452664.9869661,1890,0,3
1777452664.987293,1703,0,3
1777452664.990112,1466,0,3
1777452664.9961312,1627,0,3
1777452664.996375,2041,0,3
1777452665.003517,2086,0,3
1777452665.0039911,1870,0,3
1777452665.004195,1628,0,3
1777452665.007672,1456,0,3
1777452665.010401,1818,0,3
1777452665.013095,2028,0,3
1777452665.01595,1989,0,3
1777452665.01892,1754,0,3
1777452665.0219278,1464,0,3
1777452665.029889,1607,0,3
1777452665.0300171,1997,0,3
1777452665.031649,2085,0,3
1777452665.034127,1862,0,3
1777452665.0383208,1658,0,3
1777452665.040364,1551,0,3
1777452665.04645,1868,0,3
1777452665.0466518,2035,0,3
1777452665.0499241,2080,0,3
1777452665.052505,1846,0,3
1777452665.055093,1588,0,3
1777452665.0621388,1633,0,3
1777452665.063405,2082,0,3
1777452665.0640981,2159,0,3
1777452665.068853,1991,0,3
1777452665.070434,1765,0,3
1777452665.0740979,1613,0,3
1777452665.0780642,1820,0,3
1777452665.0814679,2298,0,3
1777452665.0819468,2245,0,3
1777452665.0849411,1994,0,3
1777452665.0879428,1713,0,3
1777452665.09094,1841,0,3
1777452665.09394,1986,0,3
1777452665.101225,2275,0,3
1777452665.101846,2049,0,3
1777452665.104532,1893,0,3
1777452665.1075468,1624,0,3
1777452665.109494,1783,0,3
1777452665.11256,2192,0,3
1777452665.116568,2257,0,3
1777452665.1197271,1976,0,3
1777452665.121048,1770,0,3
1777452665.123946,1762,0,3
1777452665.13185,2066,0,3
1777452665.132892,2298,0,3
1777452665.133499,2175,0,3
1777452665.138154,1946,0,3
1777452665.13978,1661,0,3
1777452665.1432488,1831,0,3
1777452665.147209,2324,0,3
1777452665.150464,2325,0,3
1777452665.150944,2044,0,3
1777452665.153941,1813,0,3
1777452665.1569421,1640,0,3
1777452665.159924,2063,0,3
1777452665.162941,2345,0,3
1777452665.170669,2199,0,3
1777452665.171378,1979,0,3
1777452665.1720052,1659,0,3
1777452665.1768801,1816,0,3
1777452665.178394,2229,0,3
1777452665.181893,2308,0,3
1777452665.186174,2155,0,3
1777452665.1888058,1861,0,3
1777452665.19012,1686,0,3
1777452665.192935,1956,0,3
1777452665.199706,2284,0,3
1777452665.200213,2258,0,3
1777452665.202295,1977,0,3
1777452665.20508,1674,0,3
1777452665.2087839,1670,0,3
1777452665.2123342,2197,0,3
1777452665.21451,2290,0,3
1777452665.217431,2133,0,3
1777452665.219996,1868,0,3
1777452665.22291,1640,0,3
1777452665.225903,1931,0,3
1777452665.231921,2241,0,3
1777452665.2320352,2313,0,3
1777452665.236654,2025,0,3
1777452665.238049,1771,0,3
1777452665.241448,1670,0,3
1777452665.247891,2067,0,3
1777452665.2479732,2290,0,3
1777452665.250596,2229,0,3
1777452665.253317,1955,0,3
1777452665.2603898,1599,0,3
1777452665.2612128,1859,0,3
1777452665.263433,2277,0,3
1777452665.2661278,2310,0,3
1777452665.268033,2000,0,3
1777452665.274082,1742,0,3
1777452665.274344,1671,0,3
1777452665.277181,2039,0,3
1777452665.2799392,2265,0,3
1777452665.2829251,2165,0,3
1777452665.2859058,1915,0,3
1777452665.288809,1636,0,3
1777452665.2967172,1787,0,3
1777452665.298316,2189,0,3
1777452665.298722,2312,0,3
1777452665.301255,2081,0,3
1777452665.3089678,1726,0,3
1777452665.30921,1646,0,3
1777452665.311413,2019,0,3
1777452665.312821,2319,0,3
1777452665.315815,2178,0,3
1777452665.3223832,1964,0,3
1777452665.322897,1641,0,3
1777452665.325647,1694,0,3
1777452665.3286881,2231,0,3
1777452665.3326452,2301,0,3
1777452665.3360682,2077,0,3
1777452665.339048,1765,0,3
1777452665.340393,1615,0,3
1777452665.3429801,1933,0,3
1777452665.345818,2301,0,3
1777452665.34878,2255,0,3
1777452665.3565629,1947,0,3
1777452665.35819,1708,0,3
1777452665.3600361,1702,0,3
1777452665.362879,2121,0,3
1777452665.364394,2276,0,3
1777452665.367053,2141,0,3
1777452665.370502,1921,0,3
1777452665.373248,1589,0,3
1777452665.375867,1888,0,3
1777452665.383574,2302,0,3
1777452665.3846998,2299,0,3
1777452665.3856971,2056,0,3
1777452665.389899,1665,0,3
1777452665.391656,1681,0,3
1777452665.394379,2107,0,3
1777452665.3978372,2293,0,3
1777452665.400435,2151,0,3
1777452665.403106,1878,0,3
1777452665.405778,1629,0,3
1777452665.40876,1882,0,3
1777452665.4117918,2231,0,3
1777452665.418199,2300,0,3
1777452665.418444,2091,0,3
1777452665.421516,1774,0,3
1777452665.424066,1632,0,3
1777452665.4316769,2086,0,3
1777452665.431972,2303,0,3
1777452665.434844,2210,0,3
1777452665.436149,1928,0,3
1777452665.4387982,1654,0,3
1777452665.445767,1799,0,3
1777452665.44589,2268,0,3
1777452665.448596,2330,0,3
1777452665.4515672,2134,0,3
1777452665.45875,1853,0,3
1777452665.458946,1586,0,3
1777452665.461867,1966,0,3
1777452665.463326,2248,0,3
1777452665.466041,2309,0,3
1777452665.468796,1943,0,3
1777452665.471797,1768,0,3
1777452665.479656,1673,0,3
1777452665.480361,2249,0,3
1777452665.481878,2241,0,3
1777452665.4838989,2159,0,3
1777452665.488021,1826,0,3
1777452665.490643,1627,0,3
1777452665.4942,1977,0,3
1777452665.497098,2312,0,3
1777452665.498805,2264,0,3
1777452665.5024698,1852,0,3
1777452665.508561,1833,0,3
1777452665.509095,1855,0,3
1777452665.511232,2074,0,3
1777452665.514175,2263,0,3
1777452665.5180259,2167,0,3
1777452665.521465,1927,0,3
1777452665.5242612,1574,0,3
1777452665.525669,2056,0,3
1777452665.528667,2342,0,3
1777452665.5316942,2326,0,3
1777452665.534644,1988,0,3
1777452665.542706,1835,0,3
1777452665.5432892,1771,0,3
1777452665.5438561,2119,0,3
1777452665.547859,2399,0,3
1777452665.550029,2201,0,3
1777452665.555936,1874,0,3
1777452665.556192,1793,0,3
1777452665.558846,1896,0,3
1777452665.5616682,2363,0,3
1777452665.568937,2373,0,3
1777452665.569524,2127,0,3
1777452665.572434,1829,0,3
1777452665.5750139,1714,0,3
1777452665.576761,2170,0,3
1777452665.582609,2367,0,3
1777452665.5828822,2267,0,3
1777452665.586262,1955,0,3
1777452665.5888379,1829,0,3
1777452665.591692,1852,0,3
1777452665.594669,2277,0,3
1777452665.6022651,2339,0,3
1777452665.6039019,2171,0,3
1777452665.604488,1839,0,3
1777452665.608434,1703,0,3
1777452665.610521,2124,0,3
1777452665.612746,2346,0,3
1777452665.6162162,2286,0,3
1777452665.619143,2061,0,3
1777452665.621824,1765,0,3
1777452665.624663,1784,0,3
1777452665.6307042,2250,0,3
1777452665.6316931,2304,0,3
1777452665.633777,2146,0,3
1777452665.636966,1875,0,3
1777452665.6406028,1668,0,3
1777452665.6441169,1995,0,3
1777452665.646679,2341,0,3
1777452665.649264,2345,0,3
1777452665.651844,2023,0,3
1777452665.6546838,1860,0,3
1777452665.6576462,1844,0,3
1777452665.664084,2271,0,3
1777452665.665035,2300,0,3
1777452665.667787,2179,0,3
1777452665.67024,1935,0,3
1777452665.6745532,1724,0,3
1777452665.678293,1899,0,3
1777452665.678675,2348,0,3
1777452665.682209,2275,0,3
1777452665.684863,2071,0,3
1777452665.693026,1760,0,3
1777452665.693732,1767,0,3
1777452665.694258,2175,0,3
1777452665.69876,2333,0,3
1777452665.700702,2228,0,3
1777452665.706883,1953,0,3
1777452665.707346,1729,0,3
1777452665.70997,1921,0,3
1777452665.711658,2291,0,3
1777452665.714678,2336,0,3
1777452665.7176828,2159,0,3
1777452665.7206779,1843,0,3
1777452665.7275252,1723,0,3
1777452665.728147,2105,0,3
1777452665.730761,2323,0,3
1777452665.733289,2238,0,3
1777452665.7374039,2066,0,3
1777452665.740833,1758,0,3
1777452665.743385,1816,0,3
1777452665.744692,2208,0,3
1777452665.7475588,2362,0,3
1777452665.75454,2151,0,3
1777452665.755557,1943,0,3
1777452665.7572238,1668,0,3
1777452665.759597,2034,0,3
1777452665.767071,2312,0,3
1777452665.767242,2199,0,3
1777452665.770136,2016,0,3
1777452665.771554,1702,0,3
1777452665.774567,1763,0,3
1777452665.7775629,2333,0,3
1777452665.780552,2375,0,3
1777452665.7892742,2150,0,3
1777452665.791283,1896,0,3
1777452665.7915,1627,0,3
1777452665.793907,2061,0,3
1777452665.796524,2421,0,3
1777452665.799051,2399,0,3
1777452665.802777,2007,0,3
1777452665.805789,1718,0,3
1777452665.8075352,1776,0,3
1777452665.8105652,2162,0,3
1777452665.8161101,2392,0,3
1777452665.816801,2284,0,3
1777452665.8199859,1977,0,3
1777452665.823972,1669,0,3
1777452665.827932,1896,0,3
1777452665.831518,2392,0,3
1777452665.831894,2179,0,3
1777452665.834659,2041,0,3
1777452665.837535,1696,0,3
1777452665.8405702,1682,0,3
1777452665.8435159,2134,0,3
1777452665.851157,2310,0,3
1777452665.8522,2094,0,3
1777452665.85276,1938,0,3
1777452665.85709,1825,0,3
1777452665.858898,1974,0,3
1777452665.862209,2484,0,3
1777452665.865623,2378,0,3
1777452665.8683782,2042,0,3
1777452665.870948,1768,0,3
1777452665.873554,1748,0,3
1777452665.87963,2284,0,3
1777452665.8810089,2328,0,3
1777452665.882947,2126,0,3
1777452665.88748,1912,0,3
1777452665.889971,1697,0,3
1777452665.8936,1926,0,3
1777452665.8968651,2360,0,3
1777452665.8975182,2279,0,3
1777452665.900535,2047,0,3
1777452665.9035149,1885,0,3
1777452665.906538,1732,0,3
1777452665.909701,1951,0,3
1777452665.9153879,2311,0,3
1777452665.915982,2292,0,3
1777452665.918602,2032,0,3
1777452665.923095,1734,0,3
1777452665.925455,1746,0,3
1777452665.9289238,2359,0,3
1777452665.93179,2300,0,3
1777452665.9334269,2161,0,3
1777452665.936436,1867,0,3
1777452665.9415958,1777,0,3
1777452665.944532,2007,0,3
1777452665.9468071,2208,0,3
1777452665.949056,2416,0,3
1777452665.954299,2016,0,3
1777452665.954481,1679,0,3
1777452665.9578109,1677,0,3
1777452665.960497,2115,0,3
1777452665.96343,2527,0,3
1777452665.9664059,2235,0,3
1777452665.974366,1800,0,3
1777452665.975281,1623,0,3
1777452665.9758751,2070,0,3
1777452665.979868,2478,0,3
1777452665.9819012,2499,0,3
1777452665.986645,2163,0,3
1777452665.98909,1772,0,3
1777452665.99041,1838,0,3
1777452665.993408,2231,0,3
1777452666.000212,2299,0,3
1777452666.001176,2223,0,3
1777452666.002721,1959,0,3
1777452666.006495,1730,0,3
1777452666.0127108,1763,0,3
1777452666.0128798,2201,0,3
1777452666.015664,2272,0,3
1777452666.017399,2265,0,3
1777452666.0204082,1796,0,3
1777452666.0234041,1630,0,3
1777452666.02639,1954,0,3
1777452666.032248,2303,0,3
1777452666.032892,2309,0,3
1777452666.0371041,2031,0,3
1777452666.039066,1649,0,3
1777452666.041491,1860,0,3
1777452666.0446799,2389,0,3
1777452666.0478342,2387,0,3
1777452666.050401,2191,0,3
1777452666.056156,1929,0,3
1777452666.057091,1685,0,3
1777452666.060697,2132,0,3
1777452666.063025,2236,0,3
1777452666.06824,2188,0,3
1777452666.0684748,2019,0,3
1777452666.0716312,1786,0,3
1777452666.074385,1785,0,3
1777452666.0773811,2307,0,3
1777452666.0803719,2414,0,3
1777452666.0861921,2239,0,3
1777452666.0874,2014,0,3
1777452666.090424,1519,0,3
1777452666.097449,1857,0,3
1777452666.097554,2302,0,3
1777452666.100009,2316,0,3
1777452666.1013901,1948,0,3
1777452666.104394,1562,0,3
1777452666.111146,1929,0,3
1777452666.112622,2215,0,3
1777452666.1160011,2277,0,3
1777452666.116642,2402,0,3
1777452666.122525,2120,0,3
1777452666.12292,1785,0,3
1777452666.1255622,1998,0,3
1777452666.128416,2213,0,3
1777452666.131408,2642,0,3
1777452666.134419,1843,0,3
1777452666.1375291,1665,0,3
1777452666.144638,1684,0,3
1777452666.146302,2269,0,3
1777452666.148426,2690,0,3
1777452666.150105,2281,0,3
1777452666.152838,2019,0,3
1777452666.156457,1808,0,3
1777452666.158973,2059,0,3
1777452666.161623,2675,0,3
1777452666.169603,2396,0,3
1777452666.171969,2437,0,3
1777452666.175265,1800,0,3
1777452666.1768699,1750,0,3
1777452666.177633,2203,0,3
1777452666.180009,2605,0,3
1777452666.183817,2580,0,3
1777452666.1868281,2257,0,3
1777452666.188274,1993,0,3
1777452666.1912801,2053,0,3
1777452666.19463,2658,0,3
1777452666.197301,2652,0,3
1777452666.205388,2562,0,3
1777452666.2088552,2450,0,3
1777452666.210793,2102,0,3
1777452666.211927,2553,0,3
1777452666.2150521,2662,0,3
1777452666.217054,2769,0,3
1777452666.2209191,2308,0,3
1777452666.2213628,2177,0,3
1777452666.2246652,2543,0,3
1777452666.227314,2954,0,3
1777452666.235046,2658,0,3
1777452666.236682,2646,0,3
1777452666.238454,2449,0,3
1777452666.241199,2316,0,3
1777452666.2434921,2759,0,3
1777452666.249419,2659,0,3
1777452666.24975,2838,0,3
1777452666.252498,2316,0,3
1777452666.254264,2226,0,3
1777452666.2572858,2255,0,3
1777452666.260268,2861,0,3
1777452666.263257,3092,0,3
1777452666.2714229,2829,0,3
1777452666.271586,2833,0,3
1777452666.275834,2493,0,3
1777452666.278254,2731,0,3
1777452666.278958,3176,0,3
1777452666.2856598,3170,0,3
1777452666.28613,2792,0,3
1777452666.288841,2588,0,3
1777452666.290273,2559,0,3
1777452666.2932632,2840,0,3
1777452666.301566,2876,0,3
1777452666.304182,2849,0,3
1777452666.3044538,2692,0,3
1777452666.308665,2352,0,3
1777452666.309812,2339,0,3
1777452666.31291,2896,0,3
1777452666.317707,2843,0,3
1777452666.317984,2675,0,3
1777452666.320817,2216,0,3
1777452666.323473,2297,0,3
1777452666.326247,2545,0,3
1777452666.329248,2582,0,3
1777452666.3322492,2632,0,3
1777452666.3353658,2438,0,3
1777452666.3429089,2263,0,3
1777452666.344379,2268,0,3
1777452666.346389,2592,0,3
1777452666.348748,2698,0,3
1777452666.3515992,2479,0,3
1777452666.3551931,2402,0,3
1777452666.3597429,2009,0,3
1777452666.3601239,2310,0,3
1777452666.363452,2707,0,3
1777452666.365258,2584,0,3
1777452666.368246,2377,0,3
1777452666.375915,2086,0,3
1777452666.377294,2237,0,3
1777452666.378001,2491,0,3
1777452666.380377,2492,0,3
1777452666.384524,2325,0,3
1777452666.3888378,2213,0,3
1777452666.393093,2046,0,3
1777452666.393503,2284,0,3
1777452666.396718,2433,0,3
1777452666.398148,2465,0,3
1777452666.40114,2491,0,3
1777452666.4041421,1939,0,3
1777452666.4071412,2022,0,3
1777452666.410188,2281,0,3
1777452666.41829,2374,0,3
1777452666.4197068,2269,0,3
1777452666.4218152,2107,0,3
1777452666.4221718,1948,0,3
1777452666.4258199,2122,0,3
1777452666.4306052,2670,0,3
1777452666.434973,2288,0,3
1777452666.4354281,2199,0,3
1777452666.4386759,1897,0,3
1777452666.440214,1905,0,3
1777452666.44315,2404,0,3
1777452666.4462101,2329,0,3
1777452666.4541152,2217,0,3
1777452666.454357,2128,0,3
1777452666.457085,1889,0,3
1777452666.459873,1927,0,3
1777452666.463305,2449,0,3
1777452666.466104,2245,0,3
1777452666.470249,2286,0,3
1777452666.47057,1952,0,3
1777452666.47379,1921,0,3
1777452666.4763992,2025,0,3
1777452666.479158,2336,0,3
1777452666.4821289,2315,0,3
1777452666.485156,2203,0,3
1777452666.493964,1906,0,3
1777452666.494124,1936,0,3
1777452666.495275,2230,0,3
1777452666.497726,2247,0,3
1777452666.501473,2224,0,3
1777452666.503786,2013,0,3
1777452666.506707,1948,0,3
1777452666.510688,2168,0,3
1777452666.5139358,2317,0,3
1777452666.515258,2450,0,3
1777452666.518153,2127,0,3
1777452666.526418,1947,0,3
1777452666.527123,1906,0,3
1777452666.529377,2211,0,3
1777452666.5323362,2256,0,3
1777452666.533969,2362,0,3
1777452666.537614,1997,0,3
1777452666.5415602,1764,0,3
1777452666.542271,2021,0,3
1777452666.5451741,2540,0,3
1777452666.548169,2298,0,3
1777452666.5511649,2104,0,3
1777452666.554164,2125,0,3
1777452666.55717,1865,0,3
1777452666.562378,2268,0,3
1777452666.564069,2233,0,3
1777452666.567348,2200,0,3
1777452666.569443,2049,0,3
1777452666.5758872,1893,0,3
1777452666.576045,2109,0,3
1777452666.57885,2392,0,3
1777452666.581433,2269,0,3
1777452666.588765,2135,0,3
1777452666.589283,1915,0,3
1777452666.592074,1993,0,3
1777452666.594433,2208,0,3
1777452666.5962281,2359,0,3
1777452666.6022289,2355,0,3
1777452666.60234,1987,0,3
1777452666.6057558,1923,0,3
1777452666.608315,2043,0,3
1777452666.6111622,2395,0,3
1777452666.614161,2493,0,3
1777452666.62204,2232,0,3
1777452666.622117,1947,0,3
1777452666.625111,1781,0,3
1777452666.627063,2045,0,3
1777452666.629243,2274,0,3
1777452666.6351721,2291,0,3
1777452666.6353002,2101,0,3
1777452666.6386838,1865,0,3
1777452666.6412559,1955,0,3
1777452666.6476119,2316,0,3
1777452666.648115,2297,0,3
1777452666.65056,2180,0,3
1777452666.653801,2031,0,3
1777452666.65654,1747,0,3
1777452666.659669,1899,0,3
1777452666.6627789,2234,0,3
1777452666.665339,2150,0,3
1777452666.668045,1964,0,3
1777452666.671029,1609,0,3
1777452666.679799,1726,0,3
1777452666.681707,2097,0,3
1777452666.682142,2198,0,3
1777452666.684991,2126,0,3
1777452666.688683,2004,0,3
1777452666.691932,1572,0,3
1777452666.6921,1788,0,3
1777452666.695338,2137,0,3
1777452666.698006,2242,0,3
1777452666.7057831,1874,0,3
1777452666.707312,1557,0,3
1777452666.707466,1567,0,3
1777452666.7112472,1978,0,3
1777452666.7136052,2104,0,3
1777452666.716794,1846,0,3
1777452666.719264,1534,0,3
1777452666.722055,1314,0,3
1777452666.725014,1721,0,3
1777452666.7280278,2157,0,3
1777452666.735035,1878,0,3
1777452666.735915,1710,0,3
1777452666.7377212,1510,0,3
1777452666.740819,1484,0,3
1777452666.746992,1965,0,3
1777452666.747075,2214,0,3
1777452666.749818,1955,0,3
1777452666.7524831,1783,0,3
1777452666.759215,1406,0,3
1777452666.759787,1537,0,3
1777452666.762384,2018,0,3
1777452666.764253,2082,0,3
1777452666.768627,1732,0,3
1777452666.771816,1659,0,3
1777452666.7737322,1400,0,3
1777452666.7763042,1691,0,3
1777452666.779039,2116,0,3
1777452666.782036,1951,0,3
1777452666.785219,1813,0,3
1777452666.7901409,1614,0,3
1777452666.793451,1629,0,3
1777452666.7958589,2003,0,3
1777452666.7975419,1895,0,3
1777452666.800355,1829,0,3
1777452666.803653,1676,0,3
1777452666.806126,1392,0,3
1777452666.809033,1768,0,3
1777452666.815108,2146,0,3
1777452666.815764,2011,0,3
1777452666.818691,1720,0,3
1777452666.821223,1506,0,3
1777452666.825433,1595,0,3
1777452666.8285959,2073,0,3
1777452666.830975,2082,0,3
1777452666.8335428,1780,0,3
1777452666.836104,1432,0,3
1777452666.8390322,1341,0,3
1777452666.8421319,1520,0,3
1777452666.849607,1989,0,3
1777452666.851616,1928,0,3
1777452666.8518138,1635,0,3
1777452666.8557389,1403,0,3
1777452666.858291,1502,0,3
1777452666.861848,1830,0,3
1777452666.864358,1953,0,3
1777452666.866036,1765,0,3
1777452666.869031,1676,0,3
1777452666.874052,1525,0,3
1777452666.876072,1808,0,3
1777452666.880026,2072,0,3
1777452666.88214,2014,0,3
1777452666.8845398,1721,0,3
1777452666.8881202,1618,0,3
1777452666.8910878,1578,0,3
1777452666.8928902,1846,0,3
1777452666.895894,1963,0,3
1777452666.898893,1885,0,3
1777452666.9019,1632,0,3
1777452666.910113,1322,0,3
1777452666.910304,1530,0,3
1777452666.911357,1967,0,3
1777452666.915276,1929,0,3
1777452666.917498,1686,0,3
1777452666.9203699,1335,0,3
1777452666.923954,1269,0,3
1777452666.926682,1561,0,3
1777452666.929282,1806,0,3
1777452666.936662,1759,0,3
1777452666.937236,1554,0,3
1777452666.938199,1247,0,3
1777452666.9425752,1466,0,3
1777452666.9452019,1779,0,3
1777452666.947137,1852,0,3
1777452666.9506571,1702,0,3
1777452666.953218,1430,0,3
1777452666.955932,1306,0,3
1777452666.9588852,1568,0,3
1777452666.961878,2006,0,3
1777452666.9649122,1860,0,3
1777452666.970916,1605,0,3
1777452666.972382,1421,0,3
1777452666.9741728,1435,0,3
1777452666.9774048,1849,0,3
1777452666.980905,1925,0,3
1777452666.9844532,1774,0,3
1777452666.986893,1521,0,3
1777452666.989483,1317,0,3
1777452666.996885,1655,0,3
1777452666.9969869,1971,0,3
1777452666.999774,1986,0,3
1777452667.0022242,1744,0,3
1777452667.0041091,1469,0,3
1777452667.010064,1530,0,3
1777452667.0102668,1843,0,3
1777452667.013128,2079,0,3
1777452667.015896,1949,0,3
1777452667.0188968,1626,0,3
1777452667.021858,1406,0,3
1777452667.024931,1665,0,3
1777452667.030575,2052,0,3
1777452667.03116,2054,0,3
1777452667.035718,1765,0,3
1777452667.0372741,1508,0,3
1777452667.0426471,1547,0,3
1777452667.042968,1997,0,3
1777452667.0461109,2033,0,3
1777452667.048946,2034,0,3
1777452667.055085,1757,0,3
1777452667.05568,1444,0,3
1777452667.058955,1657,0,3
1777452667.061821,2106,0,3
1777452667.0690958,2171,0,3
1777452667.069429,1850,0,3
1777452667.0698931,1681,0,3
1777452667.073131,1516,0,3
1777452667.0758872,1936,0,3
1777452667.078888,2178,0,3
1777452667.081867,2096,0,3
1777452667.089886,1854,0,3
1777452667.090383,1574,0,3
1777452667.091826,1682,0,3
1777452667.093863,2128,0,3
1777452667.098478,2174,0,3
1777452667.102104,2027,0,3
1777452667.1051,1789,0,3
1777452667.106477,1638,0,3
1777452667.109177,1817,0,3
1777452667.116707,2174,0,3
1777452667.117306,2122,0,3
1777452667.118766,1903,0,3
1777452667.1222882,1593,0,3
1777452667.124476,1673,0,3
1777452667.130542,2099,0,3
1777452667.130807,2227,0,3
1777452667.133547,2065,0,3
1777452667.1363158,1769,0,3
1777452667.13889,1557,0,3
1777452667.141769,1908,0,3
1777452667.1447659,2317,0,3
1777452667.150282,2183,0,3
1777452667.151538,1928,0,3
1777452667.155812,1675,0,3
1777452667.157969,1673,0,3
1777452667.1604211,2158,0,3
1777452667.164104,2222,0,3
1777452667.1667168,2134,0,3
1777452667.169386,1834,0,3
1777452667.17203,1598,0,3
1777452667.1774762,1869,0,3
1777452667.1779919,2234,0,3
1777452667.18341,2196,0,3
1777452667.1852129,2016,0,3
1777452667.190204,1794,0,3
1777452667.1908832,1677,0,3
1777452667.193616,2097,0,3
1777452667.196349,2279,0,3
1777452667.199051,2116,0,3
1777452667.2017658,1872,0,3
1777452667.204757,1628,0,3
1777452667.2127419,1803,0,3
1777452667.213519,2222,0,3
1777452667.2152991,2263,0,3
1777452667.218155,2045,0,3
1777452667.220001,1769,0,3
1777452667.2228632,1593,0,3
1777452667.2266939,1999,0,3
1777452667.2296598,2307,0,3
1777452667.2322938,2179,0,3
1777452667.240503,1924,0,3
1777452667.2410638,1607,0,3
1777452667.241754,1803,0,3
1777452667.243941,2175,0,3
1777452667.247085,2295,0,3
1777452667.250635,2018,0,3
1777452667.2542012,1747,0,3
1777452667.257107,1630,0,3
1777452667.258762,2030,0,3
1777452667.261744,2315,0,3
1777452667.2647731,2197,0,3
1777452667.267748,1918,0,3
1777452667.274579,1681,0,3
1777452667.275557,1718,0,3
1777452667.278262,2218,0,3
1777452667.280726,2291,0,3
1777452667.2830899,2055,0,3
1777452667.2883148,1828,0,3
1777452667.288844,1622,0,3
1777452667.2920861,1868,0,3
1777452667.2947881,2385,0,3
1777452667.302012,2272,0,3
1777452667.303047,2012,0,3
1777452667.3052,1723,0,3
1777452667.3070872,1669,0,3
1777452667.311168,2199,0,3
1777452667.314743,2287,0,3
1777452667.316991,2078,0,3
1777452667.318779,1897,0,3
1777452667.3217652,1646,0,3
1777452667.3247528,1871,0,3
1777452667.327758,2270,0,3
1777452667.337195,2301,0,3
1777452667.337762,2091,0,3
1777452667.3394098,1767,0,3
1777452667.341181,1728,0,3
1777452667.343414,2083,0,3
1777452667.346454,2306,0,3
1777452667.349887,2200,0,3
1777452667.352819,1804,0,3
1777452667.3554518,1559,0,3
1777452667.35804,1840,0,3
1777452667.363754,2256,0,3
1777452667.3639219,2279,0,3
1777452667.368279,2049,0,3
1777452667.3702998,1734,0,3
1777452667.3758998,1685,0,3
1777452667.3762639,2096,0,3
1777452667.3790069,2376,0,3
1777452667.38166,2246,0,3
1777452667.384629,1925,0,3
1777452667.38763,1623,0,3
1777452667.39063,1729,0,3
1777452667.3964648,2277,0,3
1777452667.397045,2276,0,3
1777452667.400003,2111,0,3
1777452667.403141,1842,0,3
1777452667.4066381,1663,0,3
1777452667.4099982,1926,0,3
1777452667.412401,2337,0,3
1777452667.414973,2186,0,3
1777452667.422862,1993,0,3
1777452667.4239979,1709,0,3
1777452667.425668,1753,0,3
1777452667.4281678,2226,0,3
1777452667.430305,2304,0,3
1777452667.435573,2122,0,3
1777452667.43567,1811,0,3
1777452667.4389062,1649,0,3
1777452667.441656,1981,0,3
1777452667.444641,2327,0,3
1777452667.447642,2294,0,3
1777452667.4540591,2000,0,3
1777452667.454549,1630,0,3
1777452667.4568,1735,0,3
1777452667.459666,2197,0,3
1777452667.4627259,2375,0,3
1777452667.465843,2159,0,3
1777452667.4690182,1851,0,3
1777452667.471637,1552,0,3
1777452667.4777951,1896,0,3
1777452667.478339,2378,0,3
1777452667.481931,2218,0,3
1777452667.4838321,2023,0,3
1777452667.489103,1734,0,3
1777452667.491103,1710,0,3
1777452667.492634,2102,0,3
1777452667.495635,2427,0,3
1777452667.498634,2198,0,3
1777452667.5016289,1894,0,3
1777452667.50669,1680,0,3
1777452667.509471,1877,0,3
1777452667.511371,2244,0,3
1777452667.515382,2333,0,3
1777452667.518463,2070,0,3
1777452667.5208168,1845,0,3
1777452667.522659,1633,0,3
1777452667.525704,2074,0,3
1777452667.530119,2290,0,3
1777452667.532992,2304,0,3
1777452667.535247,1964,0,3
1777452667.5421638,1629,0,3
1777452667.544139,1819,0,3
1777452667.5459552,2302,0,3
1777452667.5474281,2315,0,3
1777452667.5500522,2015,0,3
1777452667.552684,1854,0,3
1777452667.555632,1697,0,3
1777452667.560699,2001,0,3
1777452667.564003,2326,0,3
1777452667.565675,2279,0,3
1777452667.568953,1933,0,3
1777452667.570967,1654,0,3
1777452667.574595,1773,0,3
1777452667.577158,2238,0,3
1777452667.579775,2352,0,3
1777452667.587955,2136,0,3
1777452667.5899131,1915,0,3
1777452667.5925481,1639,0,3
1777452667.593565,1928,0,3
1777452667.599995,2341,0,3
1777452667.600356,2313,0,3
1777452667.6008909,1992,0,3
1777452667.603903,1705,0,3
1777452667.606584,1724,0,3
1777452667.610045,2189,0,3
1777452667.612721,2347,0,3
1777452667.618787,2179,0,3
1777452667.6198452,1920,0,3
1777452667.622306,1667,0,3
1777452667.625665,1960,0,3
1777452667.628861,2286,0,3
1777452667.632652,2263,0,3
1777452667.635514,2042,0,3
1777452667.636846,1820,0,3
1777452667.639518,1633,0,3
1777452667.649028,2113,0,3
1777452667.649369,2288,0,3
1777452667.651721,2241,0,3
1777452667.653314,1898,0,3
1777452667.657011,1612,0,3
1777452667.66083,1940,0,3
1777452667.661463,2284,0,3
1777452667.664288,2356,0,3
1777452667.666902,2076,0,3
1777452667.669503,1807,0,3
1777452667.672501,1700,0,3
1777452667.675495,2101,0,3
1777452667.685005,2327,0,3
1777452667.688213,2171,0,3
1777452667.68834,1913,0,3
1777452667.6894138,1662,0,3
1777452667.695922,1787,0,3
1777452667.696516,2291,0,3
1777452667.696958,2355,0,3
1777452667.6998668,2093,0,3
1777452667.702594,1812,0,3
1777452667.710891,1674,0,3
1777452667.711652,2034,0,3
1777452667.713844,2335,0,3
1777452667.715874,2340,0,3
1777452667.718197,1973,0,3
1777452667.724451,1664,0,3
1777452667.725041,1744,0,3
1777452667.7278268,2273,0,3
1777452667.7294772,2291,0,3
1777452667.732467,2106,0,3
1777452667.735466,1863,0,3
1777452667.7384782,1599,0,3
1777452667.745665,1982,0,3
1777452667.7468412,2356,0,3
1777452667.749172,2296,0,3
1777452667.752225,2029,0,3
1777452667.755533,1763,0,3
1777452667.75844,1799,0,3
1777452667.76273,2188,0,3
1777452667.763031,2305,0,3
1777452667.765748,2149,0,3
1777452667.768505,1917,0,3
1777452667.771501,1605,0,3
1777452667.77941,1886,0,3
1777452667.781329,2357,0,3
1777452667.781535,2390,0,3
1777452667.78383,1990,0,3
1777452667.7881658,1708,0,3
1777452667.792536,1836,0,3
1777452667.797075,2102,0,3
1777452667.7973728,2384,0,3
1777452667.800836,2123,0,3
1777452667.8022761,2025,0,3
1777452667.805036,1549,0,3
1777452667.807671,1846,0,3
1777452667.8104918,2353,0,3
1777452667.813486,2346,0,3
1777452667.821943,2090,0,3
1777452667.822689,1924,0,3
1777452667.8240058,1710,0,3
1777452667.828801,2063,0,3
1777452667.829053,2430,0,3
1777452667.8343759,2275,0,3
1777452667.834495,1982,0,3
1777452667.839107,1696,0,3
1777452667.842089,1877,0,3
1777452667.8435469,2385,0,3
1777452667.846488,2406,0,3
1777452667.85458,2164,0,3
1777452667.856637,1934,0,3
1777452667.861352,1704,0,3
1777452667.862526,2052,0,3
1777452667.863829,2468,0,3
1777452667.8661819,2194,0,3
1777452667.868416,2052,0,3
1777452667.873164,1808,0,3
1777452667.874089,1801,0,3
1777452667.876837,2268,0,3
1777452667.8795469,2382,0,3
1777452667.882515,2182,0,3
1777452667.8854752,1931,0,3
1777452667.888492,1719,0,3
1777452667.891513,2089,0,3
1777452667.898686,2437,0,3
1777452667.8994062,2327,0,3
1777452667.902998,2053,0,3
1777452667.9035158,1766,0,3
1777452667.9077601,1857,0,3
1777452667.911742,2323,0,3
1777452667.915665,2406,0,3
1777452667.9159,2325,0,3
1777452667.919054,1968,0,3
1777452667.921636,1675,0,3
1777452667.924482,1949,0,3
1777452667.931145,2397,0,3
1777452667.93229,2394,0,3
1777452667.935157,2179,0,3
1777452667.937252,1831,0,3
1777452667.940203,1682,0,3
1777452667.943105,2184,0,3
1777452667.94711,2352,0,3
1777452667.950258,2265,0,3
1777452667.951587,2001,0,3
1777452667.95436,1733,0,3
1777452667.957354,1926,0,3
1777452667.961177,2417,0,3
1777452667.968111,2383,0,3
1777452667.9681861,2120,0,3
1777452667.9711308,1846,0,3
1777452667.97357,1702,0,3
1777452667.975614,2168,0,3
1777452667.981087,2391,0,3
1777452667.9814389,2330,0,3
1777452667.984709,1991,0,3
1777452667.987363,1694,0,3
1777452667.994195,1880,0,3
1777452667.995209,2340,0,3
1777452667.9972758,2395,0,3
1777452667.9995751,2192,0,3
1777452668.003969,1854,0,3
1777452668.007338,1657,0,3
1777452668.0099268,2041,0,3
1777452668.011381,2358,0,3
1777452668.0143712,2349,0,3
1777452668.0173728,2016,0,3
1777452668.020383,1753,0,3
1777452668.0274198,1866,0,3
1777452668.027943,2255,0,3
1777452668.029877,2271,0,3
1777452668.033642,2109,0,3
1777452668.0366468,1879,0,3
1777452668.040093,1769,0,3
1777452668.0427032,1955,0,3
1777452668.0443761,2443,0,3
1777452668.0473752,2296,0,3
1777452668.053345,2015,0,3
1777452668.05432,1725,0,3
1777452668.05647,1882,0,3
1777452668.059839,2242,0,3
1777452668.0628102,2321,0,3
1777452668.066174,2135,0,3
1777452668.068398,1879,0,3
1777452668.07137,1624,0,3
1777452668.0743492,1902,0,3
1777452668.0773351,2412,0,3
1777452668.0836859,2298,0,3
1777452668.084598,2082,0,3
1777452668.0864482,1756,0,3
1777452668.089948,1847,0,3
1777452668.0953212,2241,0,3
1777452668.095516,2312,0,3
1777452668.098677,2231,0,3
1777452668.101372,2015,0,3
1777452668.1068642,1631,0,3
1777452668.1077602,2010,0,3
1777452668.112118,2290,0,3
1777452668.115927,2383,0,3
1777452668.1199648,1988,0,3
1777452668.1203,1849,0,3
1777452668.123192,1731,0,3
1777452668.1258738,2093,0,3
1777452668.1284962,2407,0,3
1777452668.1314318,2310,0,3
1777452668.134464,2076,0,3
1777452668.139234,1723,0,3
1777452668.140873,1985,0,3
1777452668.144523,2487,0,3
1777452668.146677,2266,0,3
1777452668.152061,2293,0,3
1777452668.152368,2106,0,3
1777452668.155382,1776,0,3
1777452668.15834,2089,0,3
1777452668.163618,2426,0,3
1777452668.164902,2293,0,3
1777452668.168891,2150,0,3
1777452668.170881,1899,0,3
1777452668.179103,1875,0,3
1777452668.179248,2257,0,3
1777452668.179369,2540,0,3
1777452668.182372,2461,0,3
1777452668.185371,2064,0,3
1777452668.188362,1855,0,3
1777452668.19577,2147,0,3
1777452668.196457,2457,0,3
1777452668.198858,2409,0,3
1777452668.201324,2486,0,3
1777452668.203986,1848,0,3
1777452668.209561,2294,0,3
1777452668.212275,2714,0,3
1777452668.2123892,2780,0,3
1777452668.21537,2811,0,3
1777452668.2242692,2590,0,3
1777452668.227116,2545,0,3
1777452668.227521,2896,0,3
1777452668.230342,2961,0,3
1777452668.230561,3085,0,3
1777452668.239189,2817,0,3
1777452668.239579,2785,0,3
1777452668.239895,2636,0,3
1777452668.242838,2961,0,3
1777452668.245337,3215,0,3
1777452668.24825,3166,0,3
1777452668.251232,2880,0,3
1777452668.254283,2487,0,3
1777452668.262919,2578,0,3
1777452668.2674,3027,0,3
1777452668.268827,2987,0,3
1777452668.2690408,2723,0,3
1777452668.2702699,2537,0,3
1777452668.2767649,2187,0,3
1777452668.277249,2693,0,3
1777452668.2801092,2880,0,3
1777452668.28147,2984,0,3
1777452668.2844312,2611,0,3
1777452668.291828,2430,0,3
1777452668.2942662,2576,0,3
1777452668.2976582,3298,0,3
1777452668.298395,3174,0,3
1777452668.302366,2950,0,3
1777452668.3062751,2950,0,3
1777452668.3067782,2550,0,3
1777452668.309807,2996,0,3
1777452668.3112378,2858,0,3
1777452668.31426,2804,0,3
1777452668.3172438,2743,0,3
1777452668.320309,2950,0,3
1777452668.323483,2502,0,3
1777452668.326847,2577,0,3
1777452668.329757,2780,0,3
