timestamp,ch1,ch2,label
1777452877.262532,2210,0,8
1777452877.263755,2380,0,8
1777452877.265873,2439,0,8
1777452877.268438,1729,0,8
1777452877.271381,1451,0,8
1777452877.274268,1913,0,8
1777452877.276902,2506,0,8
1777452877.2798898,2304,0,8
1777452877.282878,1901,0,8
1777452877.2916732,1542,0,8
1777452877.293403,1792,0,8
1777452877.2943418,2454,0,8
1777452877.295321,2417,0,8
1777452877.298594,2141,0,8
1777452877.300765,1873,0,8
1777452877.3037682,1644,0,8
1777452877.30736,1905,0,8
1777452877.309977,2391,0,8
1777452877.316132,2401,0,8
1777452877.316642,2259,0,8
1777452877.319634,1655,0,8
1777452877.323283,1509,0,8
1777452877.326304,2072,0,8
1777452877.327793,2453,0,8
1777452877.330755,2483,0,8
1777452877.333747,1832,0,8
1777452877.3367941,1715,0,8
1777452877.3410938,1801,0,8
1777452877.344051,2367,0,8
1777452877.346477,2459,0,8
1777452877.350469,2212,0,8
1777452877.3527832,1794,0,8
1777452877.355366,1485,0,8
1777452877.361907,2083,0,8
1777452877.3627589,2543,0,8
1777452877.364623,2384,0,8
1777452877.3681998,2128,0,8
1777452877.3700328,1542,0,8
1777452877.373398,1972,0,8
1777452877.3760278,2518,0,8
1777452877.378756,2400,0,8
1777452877.381752,2186,0,8
1777452877.391103,1701,0,8
1777452877.391562,1645,0,8
1777452877.391736,1911,0,8
1777452877.3948832,2359,0,8
1777452877.398936,2512,0,8
1777452877.402227,2064,0,8
1777452877.4027462,1501,0,8
1777452877.40994,1835,0,8
1777452877.411227,2466,0,8
1777452877.414397,2405,0,8
1777452877.414965,2195,0,8
1777452877.419829,2086,0,8
1777452877.422535,1474,0,8
1777452877.423886,2191,0,8
1777452877.42675,2609,0,8
1777452877.429746,2707,0,8
1777452877.4327428,2464,0,8
1777452877.4399428,2021,0,8
1777452877.440544,2110,0,8
1777452877.442197,2977,0,8
1777452877.4463649,3026,0,8
1777452877.448884,2933,0,8
1777452877.4523451,2714,0,8
1777452877.453745,2442,0,8
1777452877.456823,2887,0,8
1777452877.462361,3608,0,8
1777452877.46294,3656,0,8
1777452877.467641,3359,0,8
1777452877.4702148,3016,0,8
1777452877.4725661,3178,0,8
1777452877.475942,3739,0,8
1777452877.47774,4063,0,8
1777452877.4814851,3946,0,8
1777452877.484232,3513,0,8
1777452877.486848,3368,0,8
1777452877.492459,3573,0,8
1777452877.493122,4086,0,8
1777452877.496186,4009,0,8
1777452877.4995232,3888,0,8
1777452877.502422,3377,0,8
1777452877.50683,3356,0,8
1777452877.508244,3797,0,8
1777452877.5109031,3832,0,8
1777452877.5184572,3911,0,8
1777452877.5192819,3491,0,8
1777452877.522638,3103,0,8
1777452877.522938,3123,0,8
1777452877.53041,3617,0,8
1777452877.530976,3745,0,8
1777452877.5354471,3595,0,8
1777452877.5356832,3086,0,8
1777452877.538429,2889,0,8
1777452877.541045,3445,0,8
1777452877.543798,3404,0,8
1777452877.5468328,3446,0,8
1777452877.55427,3270,0,8
1777452877.554396,2771,0,8
1777452877.5577972,3107,0,8
1777452877.5607848,3398,0,8
1777452877.562685,3713,0,8
1777452877.564948,3128,0,8
1777452877.568326,3242,0,8
1777452877.570901,2988,0,8
1777452877.5775099,3391,0,8
1777452877.5788548,3444,0,8
1777452877.5808809,3560,0,8
1777452877.5836108,3279,0,8
1777452877.5871549,2826,0,8
1777452877.58884,3116,0,8
1777452877.59191,3793,0,8
1777452877.5947819,3718,0,8
1777452877.597771,3337,0,8
1777452877.600745,2842,0,8
1777452877.6067379,2748,0,8
1777452877.6072378,3162,0,8
1777452877.6110778,3262,0,8
1777452877.613025,2973,0,8
1777452877.616747,3072,0,8
1777452877.619073,2977,0,8
1777452877.621679,2783,0,8
1777452877.628223,3033,0,8
1777452877.628704,3314,0,8
1777452877.63124,3701,0,8
1777452877.634401,2968,0,8
1777452877.637056,2665,0,8
1777452877.640345,2610,0,8
1777452877.6427178,3311,0,8
1777452877.6456242,3066,0,8
1777452877.6486468,2983,0,8
1777452877.656388,2658,0,8
1777452877.6568398,2837,0,8
1777452877.6590238,2648,0,8
1777452877.661216,3073,0,8
1777452877.665108,2939,0,8
1777452877.666689,2580,0,8
1777452877.6698382,2576,0,8
1777452877.672649,2385,0,8
1777452877.678284,2919,0,8
1777452877.6791308,3008,0,8
1777452877.682464,2769,0,8
1777452877.686671,2489,0,8
1777452877.6883142,2718,0,8
1777452877.690712,2474,0,8
1777452877.693642,2621,0,8
1777452877.696643,2629,0,8
1777452877.699611,2668,0,8
1777452877.704885,2312,0,8
1777452877.706235,2248,0,8
1777452877.709641,2501,0,8
1777452877.71298,2803,0,8
1777452877.714724,2611,0,8
1777452877.717643,2382,0,8
1777452877.720642,2203,0,8
1777452877.724989,2437,0,8
1777452877.727489,2571,0,8
1777452877.7303,2779,0,8
1777452877.734714,2211,0,8
1777452877.736827,2058,0,8
1777452877.738645,2201,0,8
1777452877.741646,2087,0,8
1777452877.7446442,2567,0,8
1777452877.750722,2268,0,8
1777452877.750804,2028,0,8
1777452877.754831,2159,0,8
1777452877.756873,1962,0,8
1777452877.76035,2182,0,8
1777452877.762687,2365,0,8
1777452877.7656162,2231,0,8
1777452877.773431,2099,0,8
1777452877.774513,1935,0,8
1777452877.775249,1978,0,8
1777452877.779008,2400,0,8
1777452877.7810209,2029,0,8
1777452877.7848241,1941,0,8
1777452877.787348,1836,0,8
1777452877.789997,2084,0,8
1777452877.792684,2197,0,8
1777452877.795604,2280,0,8
1777452877.803854,2157,0,8
1777452877.805799,1997,0,8
1777452877.805901,1891,0,8
1777452877.8084722,2309,0,8
1777452877.811859,2212,0,8
1777452877.813629,2249,0,8
1777452877.816952,1953,0,8
1777452877.819691,1493,0,8
1777452877.825736,1802,0,8
1777452877.8264241,2364,0,8
1777452877.828777,2169,0,8
1777452877.8329659,2138,0,8
1777452877.8350909,1885,0,8
1777452877.8392398,1878,0,8
1777452877.8406,2422,0,8
1777452877.843613,2304,0,8
1777452877.8466299,2284,0,8
1777452877.849617,1974,0,8
1777452877.855691,2154,0,8
1777452877.856266,1680,0,8
1777452877.859057,1985,0,8
1777452877.861962,2219,0,8
1777452877.867011,2303,0,8
1777452877.869184,1884,0,8
1777452877.870643,1692,0,8
1777452877.873611,2065,0,8
1777452877.879871,2048,0,8
1777452877.880384,2178,0,8
1777452877.884348,2036,0,8
1777452877.886249,1624,0,8
1777452877.890403,1839,0,8
1777452877.8923671,2200,0,8
1777452877.894936,2193,0,8
1777452877.8976471,2153,0,8
1777452877.900641,2041,0,8
1777452877.903831,1817,0,8
1777452877.911268,1995,0,8
1777452877.911413,2204,0,8
1777452877.913672,2170,0,8
1777452877.915987,2125,0,8
1777452877.919542,2049,0,8
1777452877.9218931,1550,0,8
1777452877.924644,1911,0,8
1777452877.930945,2354,0,8
1777452877.931444,2316,0,8
1777452877.935363,1879,0,8
1777452877.936896,1713,0,8
1777452877.939753,1851,0,8
1777452877.944247,2152,0,8
1777452877.945559,2200,0,8
1777452877.948519,2004,0,8
1777452877.951494,1825,0,8
1777452877.954512,1876,0,8
1777452877.9599612,2068,0,8
1777452877.961514,2188,0,8
1777452877.9653802,2169,0,8
1777452877.967324,2133,0,8
1777452877.9711308,1743,0,8
1777452877.973547,1929,0,8
1777452877.97611,2194,0,8
1777452877.984504,2207,0,8
1777452877.984653,2006,0,8
1777452877.9863648,1971,0,8
1777452877.988876,1865,0,8
1777452877.993424,2029,0,8
1777452877.995826,2266,0,8
1777452877.9983501,2209,0,8
1777452877.999655,2105,0,8
1777452878.00252,2130,0,8
1777452878.005495,1778,0,8
1777452878.008488,2196,0,8
1777452878.0147,2356,0,8
1777452878.015306,2124,0,8
1777452878.01889,1974,0,8
1777452878.021327,1813,0,8
1777452878.025312,1988,0,8
1777452878.027792,2267,0,8
1777452878.029484,2301,0,8
1777452878.032487,2190,0,8
1777452878.0376399,1892,0,8
1777452878.039893,1916,0,8
1777452878.042751,2099,0,8
1777452878.045917,2442,0,8
1777452878.048247,2074,0,8
1777452878.0507488,1980,0,8
1777452878.053508,1850,0,8
1777452878.056494,1972,0,8
1777452878.059513,2407,0,8
1777452878.066237,2358,0,8
1777452878.067195,2264,0,8
1777452878.069324,2002,0,8
1777452878.0731132,2046,0,8
1777452878.07559,2291,0,8
1777452878.077874,2356,0,8
1777452878.081101,2394,0,8
1777452878.0836658,2060,0,8
1777452878.089964,1971,0,8
1777452878.091222,2031,0,8
1777452878.0929651,2239,0,8
1777452878.096305,2346,0,8
1777452878.099094,2397,0,8
1777452878.1015701,2040,0,8
1777452878.1046882,1739,0,8
1777452878.107519,2160,0,8
1777452878.110479,2360,0,8
1777452878.113514,2333,0,8
1777452878.120872,2054,0,8
1777452878.1214132,1979,0,8
1777452878.1236448,2061,0,8
1777452878.126097,2398,0,8
1777452878.1304681,2396,0,8
1777452878.13308,2286,0,8
1777452878.13593,2146,0,8
1777452878.13752,1972,0,8
1777452878.14048,2136,0,8
1777452878.146708,2307,0,8
1777452878.148205,2312,0,8
1777452878.149933,2129,0,8
1777452878.153881,1839,0,8
1777452878.156539,1881,0,8
1777452878.1593652,2232,0,8
1777452878.162254,2338,0,8
1777452878.1650019,2117,0,8
1777452878.167595,1922,0,8
1777452878.170491,1770,0,8
1777452878.1735291,1998,0,8
1777452878.180632,2217,0,8
1777452878.181149,2189,0,8
1777452878.18327,2035,0,8
1777452878.186201,1862,0,8
1777452878.189186,1794,0,8
1777452878.191722,2136,0,8
1777452878.194855,2282,0,8
1777452878.19757,2169,0,8
1777452878.2061582,1961,0,8
1777452878.206988,1721,0,8
1777452878.208179,1859,0,8
1777452878.209815,2157,0,8
1777452878.21372,2200,0,8
1777452878.216767,2063,0,8
1777452878.219428,1709,0,8
1777452878.2222888,1677,0,8
1777452878.2248588,1933,0,8
1777452878.227435,2058,0,8
1777452878.230384,2115,0,8
1777452878.233369,1903,0,8
1777452878.2399948,1685,0,8
1777452878.241101,1784,0,8
1777452878.2431371,2087,0,8
1777452878.2461271,2094,0,8
1777452878.2499049,1992,0,8
1777452878.252633,1866,0,8
1777452878.255539,1692,0,8
1777452878.257386,1925,0,8
1777452878.260392,2171,0,8
1777452878.26603,2121,0,8
1777452878.2670798,1809,0,8
1777452878.27166,1687,0,8
1777452878.273178,1841,0,8
1777452878.27943,2094,0,8
1777452878.279562,2126,0,8
1777452878.282326,2072,0,8
1777452878.28437,1893,0,8
1777452878.287369,1714,0,8
1777452878.290358,1876,0,8
1777452878.2933528,2215,0,8
1777452878.301471,2050,0,8
1777452878.302763,1964,0,8
1777452878.305204,1735,0,8
1777452878.305505,1764,0,8
1777452878.309525,2051,0,8
1777452878.3125062,2194,0,8
1777452878.315451,2122,0,8
1777452878.3181329,1871,0,8
1777452878.3207219,1606,0,8
1777452878.323385,1968,0,8
1777452878.329983,2150,0,8
1777452878.331063,2145,0,8
1777452878.334325,1943,0,8
1777452878.33609,1694,0,8
1777452878.339642,1731,0,8
1777452878.34269,1984,0,8
1777452878.3452759,2270,0,8
1777452878.347918,2080,0,8
1777452878.3505201,1865,0,8
1777452878.35336,1582,0,8
1777452878.356382,1800,0,8
1777452878.3630211,2160,0,8
1777452878.364169,2180,0,8
1777452878.366267,1992,0,8
1777452878.368852,1825,0,8
1777452878.373375,1716,0,8
1777452878.3763032,1952,0,8
1777452878.379211,2110,0,8
1777452878.380555,2053,0,8
1777452878.3833861,1850,0,8
1777452878.390749,1649,0,8
1777452878.3927062,1760,0,8
1777452878.3929129,2081,0,8
1777452878.3961248,2183,0,8
1777452878.39957,1896,0,8
1777452878.4025102,1648,0,8
1777452878.404758,1685,0,8
1777452878.407437,1837,0,8
1777452878.410377,1956,0,8
1777452878.41336,1916,0,8
1777452878.416348,1760,0,8
1777452878.423591,1533,0,8
1777452878.424916,1556,0,8
1777452878.42591,1934,0,8
1777452878.4305558,2103,0,8
1777452878.43293,1987,0,8
1777452878.434748,1769,0,8
1777452878.437838,1534,0,8
1777452878.440518,1777,0,8
1777452878.4433122,1971,0,8
1777452878.446335,1931,0,8
1777452878.4518652,1678,0,8
1777452878.452424,1481,0,8
1777452878.457259,1394,0,8
1777452878.459361,1796,0,8
1777452878.4617012,1903,0,8
1777452878.464776,1823,0,8
1777452878.4675121,1631,0,8
1777452878.470305,1397,0,8
1777452878.473261,1652,0,8
1777452878.476244,1985,0,8
1777452878.479438,1979,0,8
1777452878.4852202,1786,0,8
1777452878.485396,1453,0,8
1777452878.48835,1477,0,8
1777452878.492554,1772,0,8
1777452878.4951968,1940,0,8
1777452878.498325,1864,0,8
1777452878.50127,1632,0,8
1777452878.503825,1436,0,8
1777452878.506551,1629,0,8
1777452878.5134761,1930,0,8
1777452878.514105,1947,0,8
1777452878.515637,1728,0,8
1777452878.51892,1555,0,8
1777452878.521622,1429,0,8
1777452878.524502,1822,0,8
1777452878.52765,1933,0,8
1777452878.530354,1853,0,8
1777452878.5332658,1731,0,8
1777452878.5362618,1485,0,8
1777452878.542492,1578,0,8
1777452878.542946,1943,0,8
1777452878.545276,2037,0,8
1777452878.548404,1811,0,8
1777452878.55378,1601,0,8
1777452878.5543098,1519,0,8
1777452878.55726,1705,0,8
1777452878.5602539,1988,0,8
1777452878.565037,1940,0,8
1777452878.56652,1790,0,8
1777452878.5702999,1456,0,8
1777452878.57285,1526,0,8
1777452878.577155,1948,0,8
1777452878.579139,2046,0,8
1777452878.581698,1869,0,8
1777452878.5842829,1643,0,8
1777452878.5872488,1505,0,8
1777452878.594555,1689,0,8
1777452878.595053,2063,0,8
1777452878.597472,1990,0,8
1777452878.599585,1743,0,8
1777452878.60331,1549,0,8
1777452878.606179,1559,0,8
1777452878.608532,1911,0,8
1777452878.6112561,1986,0,8
1777452878.617734,1885,0,8
1777452878.6185758,1677,0,8
1777452878.620356,1482,0,8
1777452878.623758,1773,0,8
1777452878.6289291,2036,0,8
1777452878.6293278,2047,0,8
1777452878.6323452,1866,0,8
1777452878.635242,1647,0,8
1777452878.63826,1542,0,8
1777452878.641223,1863,0,8
1777452878.64688,2081,0,8
1777452878.650035,2042,0,8
1777452878.651658,1820,0,8
1777452878.654128,1453,0,8
1777452878.656801,1672,0,8
1777452878.660383,2019,0,8
1777452878.662668,2138,0,8
1777452878.665379,2064,0,8
1777452878.6727428,1674,0,8
1777452878.6733692,1554,0,8
1777452878.678303,1917,0,8
1777452878.679301,2115,0,8
1777452878.682046,2069,0,8
1777452878.685442,1810,0,8
1777452878.687851,1528,0,8
1777452878.6894321,1738,0,8
1777452878.6921449,1934,0,8
1777452878.6950889,2117,0,8
1777452878.698091,1918,0,8
1777452878.707329,1669,0,8
1777452878.707857,1572,0,8
1777452878.7100081,1833,0,8
1777452878.710238,2104,0,8
1777452878.714207,2054,0,8
1777452878.717279,1825,0,8
1777452878.72035,1614,0,8
1777452878.722102,1607,0,8
1777452878.725109,2029,0,8
1777452878.731539,2142,0,8
1777452878.7367082,1996,0,8
1777452878.737416,1742,0,8
1777452878.737997,1523,0,8
1777452878.741536,1775,0,8
1777452878.745535,2105,0,8
1777452878.74786,2118,0,8
1777452878.749443,1870,0,8
1777452878.7521029,1626,0,8
1777452878.755105,1621,0,8
1777452878.758106,1997,0,8
1777452878.7611089,2180,0,8
1777452878.766277,2036,0,8
1777452878.7699971,1765,0,8
1777452878.7718122,1534,0,8
1777452878.7774231,1756,0,8
1777452878.781489,2081,0,8
1777452878.781709,2106,0,8
1777452878.783943,1945,0,8
1777452878.78531,1653,0,8
1777452878.788099,1616,0,8
1777452878.796885,1972,0,8
1777452878.797454,2180,0,8
1777452878.798075,2080,0,8
1777452878.801326,1790,0,8
1777452878.803652,1520,0,8
1777452878.8100932,1739,0,8
1777452878.8103318,2146,0,8
1777452878.813249,2155,0,8
1777452878.815097,1999,0,8
1777452878.8180978,1672,0,8
1777452878.8210912,1545,0,8
1777452878.824106,1957,0,8
1777452878.8340402,2181,0,8
1777452878.836104,2086,0,8
1777452878.836527,1855,0,8
1777452878.8389099,1565,0,8
1777452878.84016,1682,0,8
1777452878.842858,2117,0,8
1777452878.8451562,2168,0,8
1777452878.849117,2007,0,8
1777452878.8522,1755,0,8
1777452878.854114,1612,0,8
1777452878.857101,1927,0,8
1777452878.8646882,2198,0,8
1777452878.8670552,2182,0,8
1777452878.868962,1893,0,8
1777452878.869144,1603,0,8
1777452878.872788,1684,0,8
1777452878.881418,2122,0,8
1777452878.8820422,2177,0,8
1777452878.8822699,2075,0,8
1777452878.88533,1797,0,8
1777452878.887088,1598,0,8
1777452878.890099,1894,0,8
1777452878.8930938,2225,0,8
1777452878.8961,2115,0,8
1777452878.8989718,1955,0,8
1777452878.907477,1694,0,8
1777452878.908706,1607,0,8
1777452878.910935,2058,0,8
1777452878.914486,2210,0,8
1777452878.9158452,2049,0,8
1777452878.917536,1826,0,8
1777452878.923506,1583,0,8
1777452878.9238012,1816,0,8
1777452878.926443,2215,0,8
1777452878.929101,2242,0,8
1777452878.932,1998,0,8
1777452878.939357,1662,0,8
1777452878.943517,1642,0,8
1777452878.943966,2017,0,8
1777452878.944211,2228,0,8
1777452878.948212,2140,0,8
1777452878.95044,1901,0,8
1777452878.956809,1577,0,8
1777452878.957473,1791,0,8
1777452878.9600341,2213,0,8
1777452878.962652,2241,0,8
1777452878.965257,2011,0,8
1777452878.967989,1732,0,8
1777452878.971018,1677,0,8
1777452878.974005,2026,0,8
1777452878.981206,2304,0,8
1777452878.982995,2181,0,8
1777452878.983658,1945,0,8
1777452878.9873862,1671,0,8
1777452878.99016,1775,0,8
1777452878.9939342,2234,0,8
1777452878.9978838,2261,0,8
1777452878.9982028,2182,0,8
1777452879.001232,1907,0,8
1777452879.003996,1609,0,8
1777452879.0070012,1917,0,8
1777452879.0130298,2185,0,8
1777452879.0142,2266,0,8
1777452879.016995,1883,0,8
1777452879.020109,1630,0,8
1777452879.022923,1724,0,8
1777452879.025644,2186,0,8
1777452879.029448,2330,0,8
1777452879.032005,2315,0,8
1777452879.03458,1930,0,8
1777452879.0371451,1596,0,8
1777452879.039962,1994,0,8
1777452879.042992,2243,0,8
1777452879.049675,2208,0,8
1777452879.050712,2008,0,8
1777452879.053547,1748,0,8
1777452879.056324,1481,0,8
1777452879.0601559,2214,0,8
1777452879.063468,2385,0,8
1777452879.0640872,2187,0,8
1777452879.0671098,1957,0,8
1777452879.069968,1710,0,8
1777452879.076454,1867,0,8
1777452879.076961,2304,0,8
1777452879.079812,2252,0,8
1777452879.082198,2083,0,8
1777452879.086424,1809,0,8
1777452879.0897422,1629,0,8
1777452879.0924742,2011,0,8
1777452879.094,2480,0,8
1777452879.096997,2372,0,8
1777452879.0999959,1848,0,8
1777452879.102988,1641,0,8
1777452879.109874,1871,0,8
1777452879.109983,2297,0,8
1777452879.112672,2396,0,8
1777452879.115107,2181,0,8
1777452879.119322,1846,0,8
1777452879.1225972,1824,0,8
1777452879.124833,2013,0,8
1777452879.1274052,2279,0,8
1777452879.129994,2263,0,8
1777452879.136019,1988,0,8
1777452879.1373289,1740,0,8
1777452879.139341,1882,0,8
1777452879.1433148,2306,0,8
1777452879.145612,2179,0,8
1777452879.148482,2210,0,8
1777452879.151001,1948,0,8
1777452879.15397,1752,0,8
1777452879.157002,1967,0,8
1777452879.1599941,2374,0,8
1777452879.1667159,2324,0,8
1777452879.166807,2026,0,8
1777452879.169301,1730,0,8
1777452879.172041,1803,0,8
1777452879.17524,2226,0,8
1777452879.178252,2367,0,8
1777452879.181359,2211,0,8
1777452879.184049,1965,0,8
1777452879.190897,1656,0,8
1777452879.192514,1929,0,8
1777452879.195172,2388,0,8
1777452879.199542,2308,0,8
1777452879.199834,2115,0,8
1777452879.203137,2027,0,8
1777452879.205821,1769,0,8
1777452879.208419,2258,0,8
1777452879.2110238,2311,0,8
1777452879.213995,2337,0,8
1777452879.221479,1853,0,8
1777452879.223211,1736,0,8
1777452879.224695,2076,0,8
1777452879.2270038,2271,0,8
1777452879.2293172,2401,0,8
1777452879.233962,2280,0,8
1777452879.2363038,1936,0,8
1777452879.237855,1852,0,8
1777452879.2408488,2174,0,8
1777452879.245737,2499,0,8
1777452879.24718,2334,0,8
1777452879.250865,2007,0,8
1777452879.2547042,1848,0,8
1777452879.257668,2066,0,8
1777452879.2600372,2326,0,8
1777452879.262563,2432,0,8
1777452879.26512,2427,0,8
1777452879.267974,2131,0,8
1777452879.270855,2110,0,8
1777452879.276169,2240,0,8
1777452879.279221,2521,0,8
1777452879.281474,2461,0,8
1777452879.2833622,2267,0,8
1777452879.2883232,1957,0,8
1777452879.2904289,2336,0,8
1777452879.2918558,2304,0,8
1777452879.294828,2672,0,8
1777452879.300461,2584,0,8
1777452879.301462,2379,0,8
1777452879.305335,2177,0,8
1777452879.307301,2522,0,8
1777452879.312263,2934,0,8
1777452879.312952,2593,0,8
1777452879.3158689,2646,0,8
1777452879.3188329,2536,0,8
1777452879.321835,2442,0,8
1777452879.324832,2791,0,8
1777452879.3316228,3023,0,8
1777452879.33219,2927,0,8
1777452879.334008,2782,0,8
1777452879.337263,2285,0,8
1777452879.340207,2583,0,8
1777452879.3432078,2961,0,8
1777452879.346391,3049,0,8
1777452879.3489542,2589,0,8
1777452879.3555741,2206,0,8
1777452879.356181,2563,0,8
1777452879.3587189,2674,0,8
1777452879.3620071,3037,0,8
1777452879.365124,2549,0,8
1777452879.3680289,2426,0,8
1777452879.3705559,2205,0,8
1777452879.3731232,2532,0,8
1777452879.375872,2680,0,8
1777452879.378869,2977,0,8
1777452879.381841,2688,0,8
1777452879.388433,2650,0,8
1777452879.389597,2619,0,8
1777452879.3912761,2866,0,8
1777452879.395348,2765,0,8
1777452879.397965,2814,0,8
1777452879.4011872,2495,0,8
1777452879.403965,2206,0,8
1777452879.405838,2449,0,8
1777452879.4088671,2525,0,8
1777452879.4155679,2614,0,8
1777452879.416898,2678,0,8
1777452879.4189298,2736,0,8
1777452879.4218109,2517,0,8
1777452879.424257,2674,0,8
1777452879.429798,2793,0,8
1777452879.430128,2811,0,8
1777452879.4334688,2957,0,8
1777452879.436047,1986,0,8
1777452879.4388711,2018,0,8
1777452879.441865,2570,0,8
1777452879.445075,2724,0,8
1777452879.451233,2968,0,8
1777452879.45388,1920,0,8
1777452879.454001,2122,0,8
1777452879.457739,2324,0,8
1777452879.460923,2549,0,8
1777452879.464214,2609,0,8
1777452879.466971,2470,0,8
1777452879.4695601,1868,0,8
1777452879.472341,2076,0,8
1777452879.4773571,2385,0,8
1777452879.4779918,2539,0,8
1777452879.480891,2330,0,8
1777452879.483965,2160,0,8
1777452879.487356,1656,0,8
1777452879.490587,2154,0,8
1777452879.493385,2694,0,8
1777452879.495997,2590,0,8
1777452879.4988532,2140,0,8
1777452879.501842,1985,0,8
1777452879.50484,2007,0,8
1777452879.510415,2270,0,8
1777452879.5110872,2676,0,8
1777452879.513898,1641,0,8
1777452879.517142,2400,0,8
1777452879.5207539,1876,0,8
1777452879.524124,2224,0,8
1777452879.5268202,2072,0,8
1777452879.5293891,2229,0,8
1777452879.5319612,2275,0,8
1777452879.537815,2309,0,8
1777452879.538432,1837,0,8
1777452879.5428438,2236,0,8
1777452879.54511,2497,0,8
1777452879.5511549,2155,0,8
1777452879.551471,2251,0,8
1777452879.553569,1900,0,8
1777452879.556149,2123,0,8
1777452879.558856,2551,0,8
1777452879.561857,2394,0,8
1777452879.5648372,2280,0,8
1777452879.571566,2090,0,8
1777452879.5726311,1913,0,8
1777452879.5750148,1920,0,8
1777452879.577533,2263,0,8
1777452879.581752,2251,0,8
1777452879.58512,1902,0,8
1777452879.587847,1976,0,8
1777452879.589186,2057,0,8
1777452879.591766,2691,0,8
1777452879.598142,1774,0,8
1777452879.5996642,2084,0,8
1777452879.601778,2220,0,8
1777452879.604631,2091,0,8
1777452879.608532,2032,0,8
1777452879.6122088,2030,0,8
1777452879.614937,2071,0,8
1777452879.61626,2212,0,8
1777452879.618846,2050,0,8
1777452879.6217139,1842,0,8
1777452879.624743,2165,0,8
1777452879.633378,2581,0,8
1777452879.6346,2255,0,8
1777452879.6351712,1958,0,8
1777452879.638942,1721,0,8
1777452879.64171,2102,0,8
1777452879.644362,2138,0,8
1777452879.647764,1998,0,8
1777452879.650677,1941,0,8
1777452879.6519969,2018,0,8
1777452879.654717,1945,0,8
1777452879.660644,2082,0,8
1777452879.660845,2231,0,8
1777452879.663918,2314,0,8
1777452879.667379,2141,0,8
1777452879.670586,1809,0,8
1777452879.674043,1985,0,8
1777452879.6766999,2129,0,8
1777452879.6792781,2080,0,8
1777452879.681848,2008,0,8
1777452879.684735,1751,0,8
1777452879.687704,1851,0,8
1777452879.693494,2073,0,8
1777452879.694104,2461,0,8
1777452879.697999,1926,0,8
1777452879.699877,1990,0,8
1777452879.702778,1864,0,8
1777452879.7064261,1718,0,8
1777452879.709436,2231,0,8
1777452879.7120798,2168,0,8
1777452879.719559,1957,0,8
1777452879.7211452,1807,0,8
1777452879.72314,1729,0,8
1777452879.725753,1959,0,8
1777452879.728526,2237,0,8
1777452879.730495,2221,0,8
1777452879.734268,2063,0,8
1777452879.7368162,1800,0,8
1777452879.738694,1805,0,8
1777452879.741709,2097,0,8
1777452879.744708,2211,0,8
1777452879.747707,2201,0,8
1777452879.757143,2066,0,8
1777452879.7600188,1849,0,8
1777452879.760491,2039,0,8
1777452879.762774,2284,0,8
1777452879.764538,2317,0,8
1777452879.766249,2063,0,8
1777452879.772202,1851,0,8
1777452879.772644,2085,0,8
1777452879.775445,1974,0,8
1777452879.7780778,2266,0,8
1777452879.7810109,2239,0,8
1777452879.788372,1935,0,8
1777452879.790087,1817,0,8
1777452879.790394,1997,0,8
1777452879.793222,2344,0,8
1777452879.798038,2140,0,8
1777452879.801698,2183,0,8
1777452879.802115,2286,0,8
1777452879.805229,1568,0,8
1777452879.8078651,2117,0,8
1777452879.810695,2291,0,8
1777452879.8137112,2317,0,8
1777452879.816694,2114,0,8
1777452879.823908,2015,0,8
1777452879.824528,2086,0,8
1777452879.827317,2415,0,8
1777452879.831254,2415,0,8
1777452879.831861,2364,0,8
1777452879.839034,2259,0,8
1777452879.839647,1847,0,8
1777452879.842654,2173,0,8
1777452879.8440251,2189,0,8
1777452879.846736,2228,0,8
1777452879.8552508,2081,0,8
1777452879.85662,1868,0,8
1777452879.857383,1989,0,8
1777452879.859332,2306,0,8
1777452879.862508,2364,0,8
1777452879.866902,2274,0,8
1777452879.8707242,2062,0,8
1777452879.8710241,1823,0,8
1777452879.874002,2014,0,8
1777452879.876717,2217,0,8
1777452879.879703,2265,0,8
1777452879.882692,2149,0,8
1777452879.8857012,1696,0,8
1777452879.892403,1812,0,8
1777452879.89364,2119,0,8
1777452879.896246,2298,0,8
1777452879.898431,2163,0,8
1777452879.901319,1966,0,8
1777452879.907281,1819,0,8
1777452879.907584,1939,0,8
1777452879.910433,2223,0,8
1777452879.912956,2224,0,8
1777452879.915756,2071,0,8
1777452879.922262,1955,0,8
1777452879.925267,1898,0,8
1777452879.927765,2300,0,8
1777452879.930198,2204,0,8
1777452879.931513,1999,0,8
1777452879.933984,2052,0,8
1777452879.937851,1798,0,8
1777452879.940886,1894,0,8
1777452879.942572,2111,0,8
1777452879.9455721,2158,0,8
1777452879.9485812,1969,0,8
1777452879.951597,1877,0,8
1777452879.959192,1915,0,8
1777452879.959384,1990,0,8
1777452879.962392,2339,0,8
1777452879.964624,2225,0,8
1777452879.966906,2100,0,8
1777452879.97278,1791,0,8
1777452879.973124,1914,0,8
1777452879.975731,2019,0,8
1777452879.9786088,2131,0,8
1777452879.9867089,1964,0,8
1777452879.988485,1839,0,8
1777452879.9886332,1785,0,8
1777452879.9910421,1937,0,8
1777452879.994007,2223,0,8
1777452879.998026,2170,0,8
1777452880.001559,1891,0,8
1777452880.0044532,1736,0,8
1777452880.005708,1773,0,8
1777452880.008609,2149,0,8
1777452880.011613,2098,0,8
1777452880.0145988,1997,0,8
1777452880.021635,1922,0,8
1777452880.0226629,1641,0,8
1777452880.024981,1837,0,8
1777452880.027148,2167,0,8
1777452880.0318332,2179,0,8
1777452880.0353951,2056,0,8
1777452880.0356832,1688,0,8
1777452880.038922,1706,0,8
1777452880.041611,2041,0,8
1777452880.0479958,2125,0,8
1777452880.048597,2021,0,8
1777452880.05141,2065,0,8
1777452880.054938,1683,0,8
1777452880.058002,1895,0,8
1777452880.064235,2216,0,8
1777452880.0645812,2199,0,8
1777452880.065999,1928,0,8
1777452880.0686452,1725,0,8
1777452880.07158,1724,0,8
1777452880.07459,2046,0,8
1777452880.082876,2059,0,8
1777452880.0840802,2024,0,8
1777452880.0860622,1820,0,8
1777452880.0890281,1604,0,8
1777452880.090271,1759,0,8
1777452880.093768,2097,0,8
1777452880.097578,2079,0,8
1777452880.100503,1929,0,8
1777452880.101844,1741,0,8
1777452880.104578,1583,0,8
1777452880.1145291,1883,0,8
1777452880.114882,2069,0,8
1777452880.117672,1985,0,8
1777452880.119814,1762,0,8
1777452880.1228101,1557,0,8
1777452880.123024,1714,0,8
1777452880.1288698,2117,0,8
1777452880.129548,2030,0,8
1777452880.131955,1887,0,8
1777452880.1345658,1690,0,8
1777452880.137581,1590,0,8
1777452880.140578,1961,0,8
1777452880.148266,2062,0,8
1777452880.149151,2009,0,8
1777452880.152381,1788,0,8
1777452880.155593,1556,0,8
1777452880.156696,1671,0,8
1777452880.160002,2016,0,8
1777452880.163691,2039,0,8
1777452880.166525,1918,0,8
1777452880.167861,1702,0,8
1777452880.17086,1501,0,8
1777452880.178352,1761,0,8
1777452880.17909,2045,0,8
1777452880.180959,1894,0,8
1777452880.1829681,1795,0,8
1777452880.186948,1481,0,8
1777452880.191133,1555,0,8
1777452880.191464,1939,0,8
1777452880.195719,2128,0,8
1777452880.199081,1938,0,8
1777452880.2004411,1691,0,8
1777452880.2034528,1490,0,8
1777452880.207138,1772,0,8
1777452880.209745,2101,0,8
1777452880.212706,1990,0,8
1777452880.2189178,1713,0,8
1777452880.220725,1497,0,8
1777452880.223298,1489,0,8
1777452880.225665,1847,0,8
1777452880.2283509,2100,0,8
1777452880.2314339,1937,0,8
1777452880.235862,1583,0,8
1777452880.23924,1515,0,8
1777452880.239446,1704,0,8
1777452880.242452,2032,0,8
1777452880.251828,2029,0,8
1777452880.252584,1926,0,8
1777452880.2528121,1546,0,8
1777452880.255312,1575,0,8
1777452880.258411,1905,0,8
1777452880.263401,2103,0,8
1777452880.2637591,2026,0,8
1777452880.268259,1702,0,8
1777452880.271321,1401,0,8
1777452880.272674,1600,0,8
1777452880.275459,1963,0,8
1777452880.278442,1920,0,8
1777452880.281441,1774,0,8
1777452880.2844381,1554,0,8
1777452880.292511,1522,0,8
1777452880.292654,1799,0,8
1777452880.2955499,2008,0,8
1777452880.299096,1912,0,8
1777452880.300391,1661,0,8
1777452880.3041558,1379,0,8
1777452880.308728,1532,0,8
1777452880.3090482,1927,0,8
1777452880.312287,1999,0,8
1777452880.3149052,1888,0,8
1777452880.3175292,1472,0,8
1777452880.3247612,1466,0,8
1777452880.3260338,1845,0,8
1777452880.326839,2044,0,8
1777452880.3294668,2024,0,8
1777452880.3343098,1745,0,8
1777452880.337675,1434,0,8
1777452880.3417192,1486,0,8
1777452880.342283,1880,0,8
1777452880.345696,2030,0,8
1777452880.3474402,1931,0,8
1777452880.35043,1745,0,8
1777452880.3534322,1462,0,8
1777452880.356444,1668,0,8
1777452880.359437,2106,0,8
1777452880.3664541,1901,0,8
1777452880.3671198,1758,0,8
1777452880.370053,1483,0,8
1777452880.373206,1532,0,8
1777452880.375464,1950,0,8
1777452880.378847,2117,0,8
1777452880.383483,1990,0,8
1777452880.3839,1648,0,8
1777452880.386972,1504,0,8
1777452880.3896692,1757,0,8
1777452880.392454,2093,0,8
1777452880.40157,2169,0,8
1777452880.4051561,1887,0,8
1777452880.408072,1591,0,8
1777452880.4097412,1471,0,8
1777452880.410372,1946,0,8
1777452880.411175,2157,0,8
1777452880.4145842,1949,0,8
1777452880.419125,1787,0,8
1777452880.420043,1452,0,8
1777452880.422477,1667,0,8
1777452880.425463,2058,0,8
1777452880.4284632,2071,0,8
1777452880.431442,1885,0,8
1777452880.4344609,1619,0,8
1777452880.437435,1504,0,8
1777452880.443475,1855,0,8
1777452880.444135,2092,0,8
1777452880.447443,2024,0,8
1777452880.449863,1699,0,8
1777452880.453485,1467,0,8
1777452880.459687,1596,0,8
1777452880.460175,2054,0,8
1777452880.4627469,2083,0,8
1777452880.464461,1901,0,8
1777452880.467457,1668,0,8
1777452880.474887,1549,0,8
1777452880.4755661,1824,0,8
1777452880.478998,2128,0,8
1777452880.481327,2060,0,8
1777452880.483537,1864,0,8
1777452880.4869702,1530,0,8
1777452880.490955,1623,0,8
1777452880.491541,2063,0,8
1777452880.4949608,2177,0,8
1777452880.497536,2030,0,8
1777452880.500483,1684,0,8
1777452880.503469,1546,0,8
1777452880.506468,1860,0,8
1777452880.513283,2214,0,8
1777452880.515402,2190,0,8
1777452880.5171268,1918,0,8
1777452880.520003,1606,0,8
1777452880.521486,1626,0,8
1777452880.524907,1994,0,8
1777452880.528812,2165,0,8
1777452880.5319722,2028,0,8
1777452880.533358,1790,0,8
1777452880.536339,1629,0,8
1777452880.5434089,1827,0,8
1777452880.543572,2208,0,8
1777452880.547172,2223,0,8
1777452880.550071,1981,0,8
1777452880.551556,1693,0,8
1777452880.554832,1605,0,8
1777452880.558756,1969,0,8
1777452880.562025,2222,0,8
1777452880.5633512,2162,0,8
1777452880.566327,1849,0,8
1777452880.569331,1596,0,8
1777452880.572334,1751,0,8
1777452880.579954,2191,0,8
1777452880.580085,2288,0,8
1777452880.5824609,2077,0,8
1777452880.58482,1778,0,8
1777452880.5888672,1629,0,8
1777452880.592305,1938,0,8
1777452880.595149,2282,0,8
1777452880.596451,2201,0,8
1777452880.599333,1909,0,8
1777452880.605014,1729,0,8
1777452880.606032,1805,0,8
1777452880.608372,2243,0,8
1777452880.611497,2232,0,8
1777452880.614878,2114,0,8
1777452880.6182458,1860,0,8
1777452880.620835,1658,0,8
1777452880.623416,1942,0,8
1777452880.626327,2330,0,8
1777452880.629327,2211,0,8
1777452880.632302,1982,0,8
1777452880.640227,1630,0,8
1777452880.641034,1695,0,8
1777452880.6429482,2155,0,8
1777452880.645708,2290,0,8
1777452880.647708,2106,0,8
1777452880.6504152,1847,0,8
1777452880.656702,1624,0,8
1777452880.656798,1891,0,8
1777452880.6593652,2339,0,8
1777452880.667187,2199,0,8
1777452880.667763,1961,0,8
1777452880.668405,1695,0,8
1777452880.6727,1693,0,8
1777452880.675029,2102,0,8
1777452880.677411,2186,0,8
1777452880.681026,2108,0,8
1777452880.683755,1869,0,8
1777452880.686341,1554,0,8
1777452880.689312,1882,0,8
1777452880.692349,2282,0,8
1777452880.695319,2293,0,8
1777452880.700706,2032,0,8
1777452880.701782,1726,0,8
1777452880.704366,1713,0,8
1777452880.708961,2102,0,8
1777452880.714605,2233,0,8
1777452880.714908,2149,0,8
1777452880.7175832,1988,0,8
1777452880.719349,1593,0,8
1777452880.7223449,1733,0,8
1777452880.728798,2173,0,8
1777452880.730379,2270,0,8
1777452880.732172,2076,0,8
1777452880.7346501,1771,0,8
1777452880.738873,1652,0,8
1777452880.7424362,1958,0,8
1777452880.745346,2263,0,8
1777452880.746654,2174,0,8
1777452880.749234,1946,0,8
1777452880.752223,1677,0,8
1777452880.7552269,1763,0,8
1777452880.763113,2163,0,8
1777452880.7642272,2262,0,8
1777452880.764765,2116,0,8
1777452880.7689202,1843,0,8
1777452880.7706099,1682,0,8
1777452880.7737658,1989,0,8
1777452880.777181,2299,0,8
1777452880.7798998,2223,0,8
1777452880.782485,1923,0,8
1777452880.7852201,1720,0,8
1777452880.790515,1702,0,8
1777452880.793443,2102,0,8
1777452880.796407,2244,0,8
1777452880.798592,2122,0,8
1777452880.8004348,1865,0,8
1777452880.803802,1629,0,8
1777452880.8064919,1878,0,8
1777452880.8092108,2232,0,8
1777452880.812232,2225,0,8
1777452880.815199,2037,0,8
1777452880.818214,1763,0,8
1777452880.825212,1672,0,8
1777452880.825815,2079,0,8
1777452880.8275661,2266,0,8
1777452880.83097,2178,0,8
1777452880.8344362,1908,0,8
1777452880.837918,1582,0,8
1777452880.84051,1876,0,8
1777452880.8422039,2324,0,8
1777452880.8452082,2213,0,8
1777452880.8520918,1986,0,8
1777452880.852266,1713,0,8
1777452880.855186,1639,0,8
1777452880.859544,2029,0,8
1777452880.861305,2277,0,8
1777452880.8667378,2177,0,8
1777452880.86697,1942,0,8
1777452880.869575,1615,0,8
1777452880.872206,1793,0,8
1777452880.87521,2268,0,8
1777452880.878174,2255,0,8
1777452880.881202,2077,0,8
1777452880.8872461,1758,0,8
1777452880.8879402,1627,0,8
1777452880.8907351,1962,0,8
1777452880.893688,2221,0,8
1777452880.897482,2270,0,8
1777452880.9008021,1993,0,8
1777452880.903538,1686,0,8
1777452880.90521,1736,0,8
1777452880.908182,2132,0,8
1777452880.913978,2390,0,8
1777452880.914561,2090,0,8
1777452880.9175181,1820,0,8
1777452880.9206772,1506,0,8
1777452880.9275131,2045,0,8
1777452880.9277902,2222,0,8
1777452880.930532,2185,0,8
1777452880.932215,2003,0,8
1777452880.9353018,1697,0,8
1777452880.9382122,1697,0,8
1777452880.941186,2117,0,8
1777452880.9477482,2293,0,8
1777452880.9483368,2159,0,8
1777452880.9507341,1827,0,8
1777452880.95421,1658,0,8
1777452880.957727,1923,0,8
1777452880.961278,2313,0,8
1777452880.9640472,2332,0,8
1777452880.965371,2063,0,8
1777452880.968277,1810,0,8
1777452880.975115,1715,0,8
1777452880.976693,2160,0,8
1777452880.978213,2476,0,8
1777452880.980271,2138,0,8
1777452880.9847791,1908,0,8
1777452880.988278,1628,0,8
1777452880.991138,1844,0,8
1777452880.9924579,2333,0,8
1777452880.9952059,2305,0,8
1777452880.998227,2091,0,8
1777452881.001207,1815,0,8
1777452881.008975,1771,0,8
1777452881.009577,2078,0,8
1777452881.012059,2296,0,8
1777452881.014624,2263,0,8
1777452881.0164149,2032,0,8
1777452881.0224268,1639,0,8
1777452881.022634,1848,0,8
1777452881.025268,2320,0,8
1777452881.02819,2367,0,8
1777452881.035084,2133,0,8
1777452881.036139,1897,0,8
1777452881.039073,1726,0,8
1777452881.041954,2104,0,8
1777452881.043345,2363,0,8
1777452881.049394,2283,0,8
1777452881.0495842,2006,0,8
1777452881.052278,1719,0,8
1777452881.055209,1859,0,8
1777452881.05887,2379,0,8
1777452881.0615199,2417,0,8
1777452881.0641122,2185,0,8
1777452881.0713081,1839,0,8
1777452881.0726101,1731,0,8
1777452881.074682,1966,0,8
1777452881.0770319,2360,0,8
1777452881.079696,2247,0,8
1777452881.0851562,2038,0,8
1777452881.0854368,1763,0,8
1777452881.0883021,1821,0,8
1777452881.0910661,2287,0,8
1777452881.099013,2428,0,8
1777452881.099545,2271,0,8
1777452881.102038,1965,0,8
1777452881.1042318,1695,0,8
1777452881.106369,1942,0,8
1777452881.112187,2320,0,8
1777452881.11244,2237,0,8
1777452881.1152189,2240,0,8
1777452881.1180868,1814,0,8
1777452881.121068,1800,0,8
1777452881.124063,2280,0,8
1777452881.127201,2518,0,8
1777452881.1329112,2247,0,8
1777452881.1335979,1916,0,8
1777452881.136178,2185,0,8
1777452881.139978,1914,0,8
1777452881.1463192,2479,0,8
1777452881.146636,2480,0,8
1777452881.148862,2162,0,8
1777452881.151082,1911,0,8
1777452881.1540558,1905,0,8
1777452881.160046,2278,0,8
1777452881.1610408,2425,0,8
1777452881.163106,2340,0,8
1777452881.1672902,2192,0,8
1777452881.170125,1974,0,8
1777452881.1732638,2066,0,8
1777452881.1758878,2280,0,8
1777452881.178563,2437,0,8
1777452881.181175,2392,0,8
1777452881.184065,2008,0,8
1777452881.187062,2071,0,8
1777452881.1944351,2246,0,8
1777452881.197122,2282,0,8
1777452881.1973262,2473,0,8
1777452881.200145,2050,0,8
1777452881.2025301,1914,0,8
1777452881.205119,2035,0,8
1777452881.208859,2359,0,8
1777452881.211759,2721,0,8
1777452881.2143528,2272,0,8
1777452881.217097,2055,0,8
1777452881.223501,1912,0,8
1777452881.224598,2379,0,8
1777452881.22621,2794,0,8
1777452881.2307642,2671,0,8
1777452881.2332108,2170,0,8
1777452881.2365582,2103,0,8
1777452881.239296,2393,0,8
1777452881.2410822,2563,0,8
1777452881.2440882,2826,0,8
1777452881.247081,2794,0,8
1777452881.2500951,2521,0,8
1777452881.257497,2437,0,8
1777452881.257597,2968,0,8
1777452881.2602491,3433,0,8
1777452881.262712,3108,0,8
1777452881.267175,2991,0,8
1777452881.270567,3130,0,8
1777452881.271072,2595,0,8
1777452881.274289,3181,0,8
1777452881.277081,3135,0,8
1777452881.2838132,2994,0,8
1777452881.2839239,2994,0,8
1777452881.287499,2614,0,8
1777452881.291015,2745,0,8
1777452881.293215,3242,0,8
1777452881.29576,2950,0,8
1777452881.299196,2998,0,8
1777452881.301884,2904,0,8
1777452881.304466,2773,0,8
1777452881.307092,2738,0,8
1777452881.310082,3091,0,8
1777452881.313052,3043,0,8
1777452881.318845,2759,0,8
1777452881.3195279,2332,0,8
1777452881.322908,2518,0,8
1777452881.3253918,2967,0,8
1777452881.329931,2901,0,8
1777452881.333369,2563,0,8
1777452881.336076,2366,0,8
1777452881.3374012,2309,0,8
1777452881.339968,2500,0,8
1777452881.347682,2745,0,8
1777452881.350174,2665,0,8
1777452881.350414,2853,0,8
1777452881.352447,2265,0,8
1777452881.3604841,2191,0,8
1777452881.360725,2834,0,8
1777452881.361042,2781,0,8
1777452881.364366,2280,0,8
1777452881.3669639,2438,0,8
1777452881.3699389,2350,0,8
1777452881.372965,2432,0,8
1777452881.380505,2575,0,8
1777452881.3811479,2615,0,8
1777452881.3842208,2386,0,8
1777452881.387595,2342,0,8
1777452881.388619,2287,0,8
1777452881.39375,2504,0,8
1777452881.393995,2520,0,8
1777452881.397107,2342,0,8
1777452881.39997,2326,0,8
1777452881.406948,1934,0,8
1777452881.407663,2404,0,8
1777452881.410177,2384,0,8
1777452881.412796,2616,0,8
1777452881.416856,2146,0,8
1777452881.4197729,1947,0,8
1777452881.422243,2305,0,8
1777452881.423959,2255,0,8
1777452881.426928,2276,0,8
1777452881.429924,2300,0,8
1777452881.432959,2146,0,8
1777452881.437809,1919,0,8
1777452881.440681,1949,0,8
1777452881.442931,2348,0,8
1777452881.445405,2522,0,8
1777452881.449932,2140,0,8
1777452881.452359,2056,0,8
1777452881.453943,1895,0,8
1777452881.4569669,1899,0,8
1777452881.462003,2390,0,8
1777452881.4647858,2212,0,8
1777452881.4670231,2157,0,8
1777452881.469005,1839,0,8
1777452881.4738739,1984,0,8
1777452881.4758332,2231,0,8
1777452881.478421,2336,0,8
1777452881.4809809,2191,0,8
1777452881.483944,2118,0,8
1777452881.486944,1789,0,8
1777452881.491394,1964,0,8
1777452881.493283,2461,0,8
1777452881.496406,1819,0,8
1777452881.504103,2139,0,8
1777452881.504574,1881,0,8
1777452881.507143,1874,0,8
1777452881.5087712,2148,0,8
1777452881.511416,2511,0,8
1777452881.517403,2195,0,8
1777452881.520982,1790,0,8
1777452881.523094,1928,0,8
1777452881.524619,2128,0,8
1777452881.530066,2490,0,8
1777452881.5304441,2035,0,8
1777452881.5330582,1938,0,8
1777452881.534919,1958,0,8
1777452881.53793,1698,0,8
1777452881.540926,2247,0,8
1777452881.548636,2329,0,8
1777452881.550223,2119,0,8
1777452881.550842,2189,0,8
1777452881.553799,1822,0,8
1777452881.561952,1924,0,8
1777452881.5624151,2376,0,8
1777452881.562656,2322,0,8
1777452881.565475,2125,0,8
1777452881.568126,1933,0,8
1777452881.57092,1753,0,8
1777452881.576716,2325,0,8
1777452881.580514,2208,0,8
1777452881.583305,2241,0,8
1777452881.5844212,2054,0,8
1777452881.591415,1720,0,8
1777452881.5919418,2007,0,8
1777452881.592191,2225,0,8
1777452881.594887,2255,0,8
1777452881.597812,1894,0,8
1777452881.600804,1752,0,8
1777452881.603798,1752,0,8
1777452881.606824,2203,0,8
1777452881.615707,2218,0,8
1777452881.6158998,2276,0,8
1777452881.616256,1983,0,8
1777452881.621313,1715,0,8
1777452881.623494,2079,0,8
1777452881.627087,1934,0,8
1777452881.630132,2264,0,8
1777452881.6315122,1991,0,8
1777452881.6341271,1911,0,8
1777452881.6416461,1793,0,8
1777452881.6444328,1911,0,8
1777452881.644657,2278,0,8
1777452881.6472619,2261,0,8
1777452881.650013,2253,0,8
1777452881.6554382,1742,0,8
1777452881.6558459,1873,0,8
1777452881.659783,2269,0,8
1777452881.6619468,2207,0,8
1777452881.6638122,2134,0,8
1777452881.6667972,1903,0,8
1777452881.6698,1714,0,8
1777452881.6769102,1994,0,8
1777452881.677556,2310,0,8
1777452881.680724,2246,0,8
1777452881.683548,2070,0,8
1777452881.6856918,1929,0,8
1777452881.6889012,1952,0,8
1777452881.693193,1832,0,8
1777452881.693954,2215,0,8
1777452881.697387,2247,0,8
1777452881.6997912,1976,0,8
1777452881.708517,1834,0,8
1777452881.7092218,2078,0,8
1777452881.709406,2443,0,8
1777452881.712202,2411,0,8
1777452881.7150269,2338,0,8
1777452881.7198641,2062,0,8
1777452881.723982,1893,0,8
1777452881.7242591,2200,0,8
1777452881.727511,2316,0,8
1777452881.730198,2265,0,8
1777452881.732821,2055,0,8
1777452881.7358458,1973,0,8
1777452881.738802,2012,0,8
1777452881.741803,2341,0,8
1777452881.749131,2388,0,8
1777452881.749946,2480,0,8
1777452881.75284,1801,0,8
1777452881.755383,2009,0,8
1777452881.758235,2202,0,8
1777452881.765257,2213,0,8
1777452881.7655182,2079,0,8
1777452881.76587,2133,0,8
1777452881.7694159,2042,0,8
1777452881.772049,1976,0,8
1777452881.774793,2270,0,8
1777452881.7813919,2256,0,8
1777452881.78272,2403,0,8
1777452881.7877781,2161,0,8
1777452881.7889569,1923,0,8
1777452881.792187,2310,0,8
1777452881.7945752,2396,0,8
1777452881.7988281,2327,0,8
1777452881.79911,2040,0,8
1777452881.802475,2143,0,8
1777452881.805151,2077,0,8
1777452881.807971,2134,0,8
1777452881.8108191,2272,0,8
1777452881.813817,2143,0,8
1777452881.822788,2196,0,8
1777452881.823606,1880,0,8
1777452881.824458,2014,0,8
1777452881.827753,2354,0,8
1777452881.8321989,2350,0,8
1777452881.832991,2196,0,8
1777452881.836822,2084,0,8
1777452881.8414562,1879,0,8
1777452881.841768,2233,0,8
1777452881.845131,2304,0,8
1777452881.846806,2320,0,8
1777452881.8497112,2042,0,8
1777452881.8573408,1891,0,8
1777452881.8580961,1922,0,8
1777452881.861748,2191,0,8
1777452881.8621042,2207,0,8
1777452881.864991,2242,0,8
1777452881.869952,2037,0,8
1777452881.8739939,1960,0,8
1777452881.8742101,2174,0,8
1777452881.8775492,2220,0,8
1777452881.880151,2284,0,8
1777452881.882744,2120,0,8
1777452881.885708,1890,0,8
1777452881.888709,1922,0,8
1777452881.8972359,2251,0,8
1777452881.899009,2291,0,8
1777452881.899209,2144,0,8
1777452881.9015522,1962,0,8
1777452881.9045188,1892,0,8
1777452881.9075708,2116,0,8
1777452881.913504,2246,0,8
1777452881.913729,2267,0,8
1777452881.916932,2061,0,8
1777452881.918724,1807,0,8
1777452881.921706,1846,0,8
1777452881.928769,2181,0,8
1777452881.9288929,2311,0,8
1777452881.932332,2142,0,8
1777452881.935116,1826,0,8
1777452881.937215,1830,0,8
1777452881.942781,2048,0,8
1777452881.942963,2174,0,8
1777452881.94572,2200,0,8
1777452881.948694,2029,0,8
1777452881.951703,1842,0,8
1777452881.954698,1958,0,8
1777452881.9577,2163,0,8
1777452881.962502,2226,0,8
1777452881.965771,2151,0,8
1777452881.9683971,1959,0,8
1777452881.970062,1759,0,8
1777452881.972725,1985,0,8
1777452881.976129,2163,0,8
1777452881.97898,2194,0,8
1777452881.9817128,2010,0,8
1777452881.988411,1956,0,8
1777452881.9889002,1814,0,8
1777452881.991955,2048,0,8
1777452881.994424,2224,0,8
1777452881.9985778,2189,0,8
1777452882.00212,1973,0,8
1777452882.004359,1780,0,8
1777452882.0057,1894,0,8
1777452882.008668,2267,0,8
1777452882.011689,2176,0,8
1777452882.014703,2090,0,8
1777452882.021318,1842,0,8
1777452882.021878,1861,0,8
1777452882.0244632,2003,0,8
1777452882.0279381,2163,0,8
1777452882.030829,2144,0,8
1777452882.0338712,1977,0,8
1777452882.036267,1837,0,8
1777452882.0388422,1899,0,8
1777452882.04581,2090,0,8
1777452882.046647,2170,0,8
1777452882.048428,2084,0,8
1777452882.051608,1808,0,8
1777452882.0543418,1719,0,8
1777452882.05728,1947,0,8
1777452882.059809,2105,0,8
1777452882.062687,2187,0,8
1777452882.065553,2028,0,8
1777452882.0685508,1807,0,8
1777452882.076807,1845,0,8
1777452882.0779479,2073,0,8
1777452882.080531,2154,0,8
1777452882.08091,2189,0,8
1777452882.084707,1874,0,8
1777452882.087239,1593,0,8
1777452882.09037,1815,0,8
1777452882.0929532,2140,0,8
1777452882.0955808,2013,0,8
1777452882.1023538,1906,0,8
1777452882.102923,1647,0,8
1777452882.1056142,1700,0,8
1777452882.108245,2018,0,8
1777452882.1148732,2142,0,8
1777452882.1151402,1965,0,8
1777452882.117568,1843,0,8
1777452882.1201348,1488,0,8
1777452882.122706,1779,0,8
1777452882.125559,2052,0,8
1777452882.1285381,2013,0,8
1777452882.135057,1875,0,8
1777452882.135679,1547,0,8
1777452882.139039,1508,0,8
1777452882.140697,1918,0,8
1777452882.150898,2112,0,8
1777452882.151785,1911,0,8
1777452882.152096,1702,0,8
1777452882.152525,1530,0,8
1777452882.180115,1668,0,8
1777452882.1803021,1945,0,8
1777452882.180362,1817,0,8
1777452882.180415,1776,0,8
1777452882.180514,1610,0,8
1777452882.1805718,1464,0,8
1777452882.180657,1789,0,8
1777452882.1807811,1986,0,8
1777452882.18084,1876,0,8
1777452882.182535,1755,0,8
1777452882.185534,1533,0,8
1777452882.188822,1617,0,8
1777452882.196685,2001,0,8
1777452882.198803,2037,0,8
1777452882.199125,1838,0,8
1777452882.202325,1590,0,8
1777452882.204184,1434,0,8
1777452882.20657,1799,0,8
1777452882.210034,1955,0,8
1777452882.2126741,1899,0,8
1777452882.215573,1657,0,8
1777452882.223665,1506,0,8
1777452882.2237902,1499,0,8
1777452882.226651,1821,0,8
1777452882.2294059,2020,0,8
1777452882.231838,1813,0,8
1777452882.2374778,1635,0,8
1777452882.237658,1492,0,8
1777452882.240593,1734,0,8
1777452882.242545,1990,0,8
1777452882.245567,1998,0,8
1777452882.2485828,1757,0,8
1777452882.25156,1527,0,8
1777452882.2576158,1425,0,8
1777452882.2581692,1812,0,8
1777452882.26106,1935,0,8
1777452882.264093,1827,0,8
1777452882.268019,1624,0,8
1777452882.2740211,1384,0,8
1777452882.2740648,1640,0,8
1777452882.2755651,2006,0,8
1777452882.278558,1909,0,8
1777452882.284231,1708,0,8
1777452882.285562,1465,0,8
1777452882.2882822,1330,0,8
1777452882.291157,1717,0,8
1777452882.295572,1798,0,8
1777452882.29917,1789,0,8
1777452882.299562,1624,0,8
1777452882.302763,1360,0,8
1777452882.305558,1524,0,8
1777452882.3085692,1889,0,8
1777452882.311538,1946,0,8
1777452882.319124,1734,0,8
1777452882.32102,1437,0,8
1777452882.322649,1390,0,8
1777452882.325126,1739,0,8
1777452882.3269188,1922,0,8
1777452882.329561,1881,0,8
1777452882.332881,1616,0,8
1777452882.335625,1445,0,8
1777452882.3384588,1615,0,8
1777452882.3458052,1977,0,8
1777452882.3467991,1872,0,8
1777452882.3496199,1883,0,8
1777452882.351966,1623,0,8
1777452882.354523,1382,0,8
1777452882.3595772,1759,0,8
1777452882.3597598,1999,0,8
1777452882.362632,1993,0,8
1777452882.365451,1763,0,8
1777452882.368451,1491,0,8
1777452882.3714051,1532,0,8
1777452882.374418,1881,0,8
1777452882.379276,2071,0,8
1777452882.381448,1748,0,8
1777452882.384939,1582,0,8
1777452882.387337,1344,0,8
1777452882.389507,1620,0,8
1777452882.392947,1931,0,8
1777452882.3957388,1854,0,8
1777452882.398466,1693,0,8
1777452882.405733,1483,0,8
1777452882.406288,1481,0,8
1777452882.408946,1897,0,8
1777452882.410941,2001,0,8
1777452882.415246,1998,0,8
1777452882.418983,1650,0,8
1777452882.421708,1398,0,8
1777452882.4230988,1648,0,8
1777452882.4257011,1910,0,8
1777452882.4284182,2014,0,8
1777452882.4314072,1740,0,8
1777452882.439475,1503,0,8
1777452882.4405499,1488,0,8
1777452882.4414568,1877,0,8
1777452882.4455109,2077,0,8
1777452882.4478211,1946,0,8
1777452882.4501991,1758,0,8
1777452882.453713,1407,0,8
1777452882.455935,1640,0,8
1777452882.458653,2024,0,8
1777452882.461441,2016,0,8
1777452882.466521,1833,0,8
1777452882.468703,1582,0,8
1777452882.4707048,1401,0,8
1777452882.474268,1896,0,8
1777452882.477824,2127,0,8
1777452882.4811368,1975,0,8
1777452882.4838321,1723,0,8
1777452882.485386,1473,0,8
1777452882.4883862,1633,0,8
1777452882.491402,2039,0,8
1777452882.494397,2101,0,8
1777452882.502571,1841,0,8
1777452882.504853,1660,0,8
1777452882.5065641,1488,0,8
1777452882.50688,1814,0,8
1777452882.5095072,2094,0,8
1777452882.513715,2082,0,8
1777452882.51719,1788,0,8
1777452882.519459,1530,0,8
1777452882.522068,1663,0,8
1777452882.52464,2044,0,8
1777452882.530794,2133,0,8
1777452882.5314171,1959,0,8
1777452882.5338728,1689,0,8
1777452882.537566,1505,0,8
1777452882.540587,1786,0,8
1777452882.5439339,2073,0,8
1777452882.5461838,2048,0,8
1777452882.548755,1824,0,8
1777452882.551432,1581,0,8
1777452882.554415,1537,0,8
1777452882.557415,1960,0,8
1777452882.5643818,2154,0,8
1777452882.564948,2011,0,8
1777452882.567533,1691,0,8
1777452882.569994,1444,0,8
1777452882.574326,1687,0,8
1777452882.5776792,2116,0,8
1777452882.580419,2184,0,8
1777452882.581729,1917,0,8
1777452882.584317,1631,0,8
1777452882.591255,1530,0,8
1777452882.591773,1959,0,8
1777452882.5944781,2151,0,8
1777452882.597002,2072,0,8
1777452882.601103,1793,0,8
1777452882.604542,1443,0,8
1777452882.606735,1726,0,8
1777452882.6082911,2126,0,8
1777452882.6113138,2160,0,8
1777452882.614281,1992,0,8
1777452882.617312,1674,0,8
1777452882.624363,1522,0,8
1777452882.624584,1954,0,8
1777452882.627695,2223,0,8
1777452882.630263,2142,0,8
1777452882.632969,1860,0,8
1777452882.63831,1523,0,8
1777452882.6403,1694,0,8
1777452882.641694,2173,0,8
1777452882.644309,2249,0,8
1777452882.653924,1960,0,8
1777452882.654371,1728,0,8
1777452882.657525,1499,0,8
1777452882.657711,1885,0,8
1777452882.660141,2160,0,8
1777452882.6652749,2142,0,8
1777452882.665375,1894,0,8
1777452882.668301,1594,0,8
1777452882.671297,1655,0,8
1777452882.6742861,2118,0,8
1777452882.6772852,2181,0,8
1777452882.68047,2051,0,8
1777452882.685579,1749,0,8
1777452882.689538,1506,0,8
1777452882.689704,1890,0,8
1777452882.693676,2161,0,8
1777452882.69672,2193,0,8
1777452882.700426,1964,0,8
1777452882.703109,1693,0,8
1777452882.704509,1647,0,8
1777452882.707294,2041,0,8
1777452882.7139368,2251,0,8
1777452882.717654,2096,0,8
1777452882.717897,1801,0,8
1777452882.7205062,1565,0,8
1777452882.722662,1785,0,8
1777452882.725863,2206,0,8
1777452882.729247,2322,0,8
1777452882.731863,1982,0,8
1777452882.734443,1506,0,8
1777452882.7372742,1513,0,8
1777452882.740315,1952,0,8
1777452882.743281,2276,0,8
1777452882.7493691,2144,0,8
1777452882.749991,1787,0,8
1777452882.752862,1583,0,8
1777452882.755359,1716,0,8
1777452882.759563,2142,0,8
1777452882.763137,2194,0,8
1777452882.765554,2082,0,8
1777452882.767295,1643,0,8
1777452882.770281,1581,0,8
1777452882.777798,1954,0,8
1777452882.778531,2158,0,8
1777452882.7811232,2218,0,8
1777452882.783829,1923,0,8
1777452882.786162,1625,0,8
1777452882.791955,1719,0,8
1777452882.79206,2174,0,8
1777452882.795028,2178,0,8
1777452882.797598,2088,0,8
1777452882.800365,1819,0,8
1777452882.803188,1633,0,8
1777452882.8061628,1955,0,8
1777452882.813557,2347,0,8
1777452882.814692,2230,0,8
1777452882.815495,1889,0,8
1777452882.82023,1828,0,8
1777452882.8221068,1726,0,8
1777452882.824506,2164,0,8
1777452882.827915,2209,0,8
1777452882.830842,2071,0,8
1777452882.833515,1877,0,8
1777452882.842577,1715,0,8
1777452882.8459609,1929,0,8
1777452882.846391,2240,0,8
1777452882.846667,2359,0,8
1777452882.84993,2088,0,8
1777452882.852106,1668,0,8
1777452882.857131,1856,0,8
1777452882.857265,2131,0,8
1777452882.86076,2240,0,8
1777452882.863329,2108,0,8
1777452882.8661451,2080,0,8
1777452882.86916,1706,0,8
1777452882.872172,1993,0,8
1777452882.8776152,2245,0,8
1777452882.8784902,2236,0,8
1777452882.883026,2075,0,8
1777452882.8851562,1895,0,8
1777452882.891474,1636,0,8
1777452882.891626,2075,0,8
1777452882.893997,2245,0,8
1777452882.896596,2213,0,8
1777452882.899161,1865,0,8
1777452882.9063911,1848,0,8
1777452882.9074209,1823,0,8
1777452882.909023,2380,0,8
1777452882.9115882,2486,0,8
1777452882.915838,2061,0,8
1777452882.9191701,2042,0,8
1777452882.92133,1815,0,8
1777452882.92316,2172,0,8
1777452882.926145,2341,0,8
1777452882.929148,2459,0,8
1777452882.9321449,2037,0,8
1777452882.9426408,1729,0,8
1777452882.944321,1995,0,8
1777452882.9446762,2228,0,8
1777452882.94766,2338,0,8
1777452882.9524338,2408,0,8
1777452882.956219,1785,0,8
1777452882.956745,1843,0,8
1777452882.9595451,2212,0,8
1777452882.9596312,2385,0,8
1777452882.962293,2375,0,8
1777452882.9652889,2234,0,8
1777452882.9718888,1832,0,8
1777452882.9748669,1915,0,8
1777452882.978155,2606,0,8
1777452882.9793952,2325,0,8
1777452882.985947,2194,0,8
1777452882.986295,2103,0,8
1777452882.9868312,1905,0,8
1777452882.989621,2056,0,8
1777452882.9923599,2298,0,8
1777452882.995156,2489,0,8
1777452882.9982789,2134,0,8
1777452883.0011551,1947,0,8
1777452883.00854,1997,0,8
1777452883.0115032,2325,0,8
1777452883.0123122,2677,0,8
1777452883.015378,2333,0,8
1777452883.0194,2435,0,8
1777452883.019701,1767,0,8
1777452883.026161,2034,0,8
1777452883.026259,2504,0,8
1777452883.028024,2482,0,8
1777452883.031496,2307,0,8
1777452883.037995,2040,0,8
1777452883.0439198,1959,0,8
1777452883.0450099,2305,0,8
1777452883.045687,2694,0,8
1777452883.046772,2369,0,8
1777452883.05274,2459,0,8
1777452883.052882,2026,0,8
1777452883.0558789,2193,0,8
1777452883.058584,2972,0,8
1777452883.0613172,2364,0,8
1777452883.064127,2474,0,8
1777452883.067041,2443,0,8
1777452883.077733,2522,0,8
1777452883.0797372,2466,0,8
1777452883.083092,2867,0,8
1777452883.0838459,2538,0,8
1777452883.0841742,2550,0,8
1777452883.088487,2605,0,8
1777452883.088892,2636,0,8
1777452883.093013,3181,0,8
1777452883.095662,3280,0,8
1777452883.0970309,2927,0,8
1777452883.1000278,3155,0,8
1777452883.103025,3109,0,8
1777452883.110028,3166,0,8
1777452883.111304,3700,0,8
1777452883.116786,3556,0,8
1777452883.1169238,3383,0,8
1777452883.1185331,3012,0,8
1777452883.122891,3325,0,8
1777452883.1267872,3490,0,8
1777452883.12706,3323,0,8
1777452883.130359,3590,0,8
1777452883.133183,3039,0,8
1777452883.136255,2891,0,8
1777452883.139371,3441,0,8
1777452883.14205,3145,0,8
1777452883.145055,2926,0,8
1777452883.151527,3166,0,8
1777452883.155141,2869,0,8
1777452883.1552541,2969,0,8
1777452883.159082,3084,0,8
1777452883.1605701,3111,0,8
1777452883.167714,3102,0,8
1777452883.167947,2819,0,8
1777452883.171138,2887,0,8
1777452883.1725152,2819,0,8
1777452883.175152,2327,0,8
1777452883.178231,2641,0,8
1777452883.1853771,2742,0,8
1777452883.185599,2334,0,8
1777452883.190007,2077,0,8
1777452883.192673,2498,0,8
1777452883.194632,2728,0,8
1777452883.199121,2832,0,8
1777452883.199473,2206,0,8
1777452883.2042549,2286,0,8
1777452883.207458,2164,0,8
1777452883.208011,3141,0,8
1777452883.2110431,2508,0,8
1777452883.21411,1978,0,8
1777452883.2169259,2201,0,8
1777452883.22012,2309,0,8
1777452883.223434,2319,0,8
1777452883.2292721,2435,0,8
1777452883.229957,2314,0,8
1777452883.234145,2373,0,8
1777452883.2388768,2240,0,8
1777452883.23975,2209,0,8
1777452883.2475479,2208,0,8
1777452883.24777,2238,0,8
1777452883.248055,2444,0,8
1777452883.2509482,2090,0,8
1777452883.252922,1986,0,8
1777452883.255908,2186,0,8
1777452883.265277,2325,0,8
1777452883.265931,1975,0,8
1777452883.2666812,2182,0,8
1777452883.268838,2018,0,8
1777452883.272038,2103,0,8
1777452883.2748501,2318,0,8
1777452883.2815711,1831,0,8
1777452883.2823,2167,0,8
1777452883.283173,2159,0,8
1777452883.286491,1928,0,8
1777452883.2891788,1772,0,8
1777452883.29192,2192,0,8
1777452883.294913,2481,0,8
1777452883.297936,2102,0,8
1777452883.300908,1904,0,8
1777452883.31025,1659,0,8
1777452883.31298,2398,0,8
1777452883.313195,2340,0,8
1777452883.315532,2011,0,8
1777452883.316276,1918,0,8
1777452883.321511,1851,0,8
1777452883.3253791,2454,0,8
1777452883.325671,2166,0,8
1777452883.3290062,2072,0,8
1777452883.330922,2056,0,8
1777452883.333924,2171,0,8
1777452883.3415291,1678,0,8
1777452883.342226,2073,0,8
1777452883.343555,2160,0,8
1777452883.3479931,2261,0,8
1777452883.350157,1971,0,8
1777452883.3531,1859,0,8
1777452883.3571851,1770,0,8
1777452883.359741,2237,0,8
1777452883.361075,2283,0,8
1777452883.363895,2238,0,8
1777452883.3669279,2054,0,8
1777452883.3699148,1997,0,8
1777452883.372905,1947,0,8
1777452883.379792,2150,0,8
1777452883.380408,2315,0,8
1777452883.3825548,2107,0,8
1777452883.387445,1883,0,8
1777452883.388577,1795,0,8
1777452883.391971,2335,0,8
1777452883.3959181,2103,0,8
1777452883.398987,2066,0,8
1777452883.4002979,1993,0,8
1777452883.402912,2039,0,8
1777452883.4106948,2167,0,8
1777452883.4113102,2153,0,8
1777452883.4124002,2090,0,8
1777452883.414888,2067,0,8
1777452883.418387,1941,0,8
1777452883.422257,1950,0,8
1777452883.4261172,2110,0,8
1777452883.429478,2018,0,8
1777452883.4299,2269,0,8
1777452883.432895,2088,0,8
1777452883.4359229,1870,0,8
1777452883.438894,1991,0,8
1777452883.441927,2207,0,8
1777452883.4492888,2171,0,8
1777452883.449965,2029,0,8
1777452883.4521532,1943,0,8
1777452883.4545732,1831,0,8
1777452883.459347,2086,0,8
1777452883.462794,2160,0,8
1777452883.46292,2303,0,8
1777452883.466397,2004,0,8
1777452883.468965,1613,0,8
1777452883.476406,1836,0,8
1777452883.476948,2246,0,8
1777452883.479878,2158,0,8
1777452883.4823601,2156,0,8
1777452883.484123,1953,0,8
1777452883.4898949,1777,0,8
1777452883.4900632,2213,0,8
1777452883.4933262,2125,0,8
1777452883.495894,2093,0,8
1777452883.4987829,2075,0,8
1777452883.501788,1952,0,8
1777452883.504765,1892,0,8
1777452883.509892,1899,0,8
1777452883.513082,2373,0,8
1777452883.515187,2283,0,8
1777452883.5173109,2037,0,8
1777452883.520022,1800,0,8
1777452883.5263581,1978,0,8
1777452883.526486,2234,0,8
1777452883.529162,2318,0,8
1777452883.531778,2070,0,8
1777452883.538649,1837,0,8
1777452883.5394409,1964,0,8
1777452883.542474,2201,0,8
1777452883.545297,2357,0,8
1777452883.547572,2146,0,8
1777452883.5497768,1986,0,8
1777452883.553119,1919,0,8
1777452883.5560682,2233,0,8
1777452883.558796,2322,0,8
1777452883.56178,2208,0,8
1777452883.564764,2069,0,8
1777452883.567768,2096,0,8
1777452883.57485,2008,0,8
1777452883.576053,2224,0,8
1777452883.577644,2303,0,8
1777452883.58028,2413,0,8
1777452883.584527,2109,0,8
1777452883.587949,1993,0,8
1777452883.590691,2113,0,8
1777452883.5920131,2355,0,8
1777452883.594826,2411,0,8
1777452883.602286,2084,0,8
1777452883.602454,2127,0,8
1777452883.605381,2054,0,8
1777452883.6079948,2302,0,8
1777452883.6103098,2329,0,8
1777452883.6158578,2228,0,8
1777452883.616055,2270,0,8
1777452883.618876,2036,0,8
1777452883.621762,2215,0,8
1777452883.624777,2412,0,8
1777452883.627756,2243,0,8
1777452883.630786,2291,0,8
1777452883.637727,2079,0,8
1777452883.638328,1971,0,8
1777452883.640411,2203,0,8
1777452883.6434612,2300,0,8
1777452883.6472902,2323,0,8
1777452883.650827,2147,0,8
1777452883.653558,1997,0,8
1777452883.654888,2142,0,8
1777452883.6577861,2325,0,8
1777452883.6652522,2346,0,8
1777452883.665853,2283,0,8
1777452883.668779,2130,0,8
1777452883.671183,1972,0,8
1777452883.673517,2065,0,8
1777452883.6791098,2282,0,8
1777452883.679223,2322,0,8
1777452883.681889,2178,0,8
1777452883.6846778,1924,0,8
1777452883.68767,2055,0,8
1777452883.690652,2181,0,8
1777452883.693762,2237,0,8
1777452883.699589,2209,0,8
1777452883.7002199,2137,0,8
1777452883.702699,1864,0,8
1777452883.706312,2065,0,8
1777452883.709575,2207,0,8
1777452883.713129,2221,0,8
1777452883.7159638,2093,0,8
1777452883.717661,1890,0,8
1777452883.720642,1881,0,8
1777452883.7259798,2224,0,8
1777452883.72779,2287,0,8
1777452883.7314,2253,0,8
1777452883.733623,2103,0,8
1777452883.7362869,1892,0,8
1777452883.739655,2050,0,8
1777452883.742303,2130,0,8
1777452883.7449758,2217,0,8
1777452883.747693,2135,0,8
1777452883.750644,1917,0,8
1777452883.753644,1816,0,8
1777452883.761017,2078,0,8
1777452883.7612212,2097,0,8
1777452883.7646248,2081,0,8
1777452883.767583,1984,0,8
1777452883.7694561,1731,0,8
1777452883.7718358,1869,0,8
1777452883.77794,2043,0,8
1777452883.7780669,2066,0,8
1777452883.780669,1988,0,8
1777452883.788299,1871,0,8
1777452883.789403,1764,0,8
1777452883.790459,1934,0,8
1777452883.794805,2112,0,8
1777452883.79863,2167,0,8
1777452883.8020391,1936,0,8
1777452883.80228,1810,0,8
1777452883.805096,1871,0,8
1777452883.807679,2115,0,8
1777452883.810661,2148,0,8
1777452883.813643,1943,0,8
1777452883.816631,1856,0,8
1777452883.822954,1733,0,8
1777452883.823933,1909,0,8
1777452883.825995,2094,0,8
1777452883.830595,2076,0,8
1777452883.8328881,2035,0,8
1777452883.836554,1732,0,8
1777452883.8391302,1806,0,8
1777452883.840663,2216,0,8
1777452883.843662,2244,0,8
1777452883.850462,1975,0,8
1777452883.851008,1907,0,8
1777452883.853037,1722,0,8
1777452883.856323,1834,0,8
1777452883.859766,2117,0,8
1777452883.863124,1987,0,8
1777452883.8658361,1892,0,8
1777452883.867666,1796,0,8
1777452883.870659,1725,0,8
1777452883.873659,1929,0,8
1777452883.876627,2012,0,8
1777452883.883801,1937,0,8
1777452883.8844428,1783,0,8
1777452883.887022,1607,0,8
1777452883.889514,1797,0,8
1777452883.8937888,2036,0,8
1777452883.897296,1909,0,8
1777452883.89764,1834,0,8
1777452883.900903,1722,0,8
1777452883.903664,1665,0,8
1777452883.911096,1888,0,8
1777452883.9121149,2017,0,8
1777452883.9137511,1973,0,8
1777452883.916168,1707,0,8
1777452883.920768,1641,0,8
1777452883.924006,1734,0,8
1777452883.926734,2002,0,8
1777452883.928052,2013,0,8
1777452883.930617,1984,0,8
1777452883.93354,1758,0,8
1777452883.9365408,1577,0,8
1777452883.944603,1856,0,8
1777452883.945778,1981,0,8
1777452883.9477582,2096,0,8
1777452883.949806,1772,0,8
1777452883.9519129,1663,0,8
1777452883.9546602,1675,0,8
1777452883.958068,1924,0,8
1777452883.9614599,1989,0,8
1777452883.964122,1932,0,8
1777452883.973323,1754,0,8
1777452883.9761589,1666,0,8
1777452883.9765341,1812,0,8
1777452883.9789,1980,0,8
1777452883.980167,2099,0,8
1777452883.982135,1742,0,8
1777452883.984707,1499,0,8
1777452883.9887202,1553,0,8
1777452883.991859,1982,0,8
1777452883.993522,2106,0,8
1777452883.9965088,1873,0,8
1777452884.000303,1687,0,8
1777452884.002912,1484,0,8
1777452884.0113091,1710,0,8
1777452884.014387,2043,0,8
1777452884.014556,1966,0,8
1777452884.014791,1861,0,8
1777452884.0192971,1631,0,8
1777452884.022163,1600,0,8
1777452884.025912,1921,0,8
1777452884.026633,1998,0,8
1777452884.0300212,1920,0,8
1777452884.0326679,1748,0,8
1777452884.039168,1606,0,8
1777452884.0398028,1749,0,8
1777452884.041583,1984,0,8
1777452884.046389,2039,0,8
1777452884.049102,1826,0,8
1777452884.054611,1712,0,8
1777452884.05491,1503,0,8
1777452884.057235,1894,0,8
1777452884.059923,2061,0,8
1777452884.062764,1911,0,8
1777452884.0655098,1679,0,8
1777452884.068516,1435,0,8
1777452884.075742,1661,0,8
1777452884.076017,1866,0,8
1777452884.079701,1975,0,8
1777452884.0827641,1860,0,8
1777452884.08774,1538,0,8
1777452884.091292,1485,0,8
1777452884.0915341,1756,0,8
1777452884.094026,1800,0,8
1777452884.0955079,1966,0,8
1777452884.098505,1767,0,8
1777452884.1062121,1467,0,8
1777452884.107541,1600,0,8
1777452884.109637,1882,0,8
1777452884.112501,1782,0,8
1777452884.116191,1748,0,8
1777452884.118467,1666,0,8
1777452884.122425,1587,0,8
1777452884.1253471,1705,0,8
1777452884.125671,1835,0,8
1777452884.128526,1934,0,8
1777452884.1315148,1810,0,8
1777452884.134515,1420,0,8
1777452884.138417,1548,0,8
1777452884.153601,1967,0,8
1777452884.1590211,1878,0,8
1777452884.1593852,1746,0,8
1777452884.15971,1567,0,8
1777452884.159961,1462,0,8
1777452884.160272,1594,0,8
1777452884.1605508,1803,0,8
1777452884.16364,2021,0,8
1777452884.165034,1798,0,8
1777452884.167729,1513,0,8
1777452884.175445,1437,0,8
1777452884.177078,1782,0,8
1777452884.179303,1933,0,8
1777452884.1798341,1918,0,8
1777452884.1841211,1803,0,8
1777452884.188341,1449,0,8
1777452884.188543,1548,0,8
1777452884.19204,1996,0,8
1777452884.1949608,2013,0,8
1777452884.197577,1687,0,8
1777452884.2005398,1506,0,8
1777452884.2035189,1529,0,8
1777452884.206532,1833,0,8
1777452884.213911,2039,0,8
1777452884.215067,1918,0,8
1777452884.216063,1683,0,8
1777452884.2201989,1444,0,8
1777452884.222493,1628,0,8
1777452884.2280838,2001,0,8
1777452884.228399,2050,0,8
1777452884.2306628,1819,0,8
1777452884.2334101,1518,0,8
1777452884.2363908,1424,0,8
1777452884.2416902,1887,0,8
1777452884.243356,2039,0,8
1777452884.245569,1993,0,8
1777452884.248853,1690,0,8
1777452884.252453,1431,0,8
1777452884.2557418,1568,0,8
1777452884.258004,1943,0,8
1777452884.2605891,2045,0,8
1777452884.26337,1895,0,8
1777452884.266388,1613,0,8
1777452884.269377,1402,0,8
1777452884.276288,1683,0,8
1777452884.276426,1965,0,8
1777452884.279729,1918,0,8
1777452884.2822201,1728,0,8
1777452884.284396,1479,0,8
1777452884.289711,1491,0,8
1777452884.292545,1868,0,8
1777452884.293848,2104,0,8
1777452884.296422,1985,0,8
1777452884.3025658,1662,0,8
1777452884.3026838,1471,0,8
1777452884.3059368,1714,0,8
1777452884.309258,2051,0,8
1777452884.312862,2039,0,8
1777452884.316064,1859,0,8
1777452884.318985,1584,0,8
1777452884.320392,1523,0,8
1777452884.323377,1926,0,8
1777452884.326365,2070,0,8
1777452884.329366,1997,0,8
1777452884.335691,1688,0,8
1777452884.336241,1435,0,8
1777452884.3396108,1664,0,8
1777452884.3425071,1999,0,8
1777452884.344633,2019,0,8
1777452884.3495302,1858,0,8
1777452884.352337,1618,0,8
1777452884.353656,1487,0,8
1777452884.3564029,1865,0,8
1777452884.363156,2128,0,8
1777452884.363744,1936,0,8
1777452884.366176,1777,0,8
1777452884.369428,1558,0,8
1777452884.3727958,1616,0,8
1777452884.3760252,2024,0,8
1777452884.378716,2172,0,8
1777452884.380404,1885,0,8
1777452884.3834019,1676,0,8
1777452884.386413,1482,0,8
1777452884.389376,1807,0,8
1777452884.4011269,2102,0,8
1777452884.401286,2023,0,8
1777452884.402257,1775,0,8
1777452884.403393,1576,0,8
1777452884.406893,1631,0,8
1777452884.410688,2020,0,8
1777452884.4134521,2178,0,8
1777452884.4135418,2000,0,8
1777452884.416379,1749,0,8
1777452884.427434,1557,0,8
1777452884.427628,1743,0,8
1777452884.427687,2059,0,8
1777452884.4301949,2067,0,8
1777452884.432692,1845,0,8
1777452884.438945,1601,0,8
1777452884.439251,1594,0,8
1777452884.442125,2029,0,8
1777452884.443369,2117,0,8
1777452884.44636,2043,0,8
1777452884.449375,1793,0,8
1777452884.452372,1560,0,8
1777452884.460521,1746,0,8
1777452884.461229,2087,0,8
1777452884.462008,2153,0,8
1777452884.464635,1895,0,8
1777452884.469044,1561,0,8
1777452884.472877,1584,0,8
1777452884.4767401,2002,0,8
1777452884.4769778,2172,0,8
1777452884.480177,2085,0,8
1777452884.482642,1838,0,8
1777452884.485447,1573,0,8
1777452884.4932868,1723,0,8
1777452884.4951081,2117,0,8
1777452884.497569,2128,0,8
1777452884.4979498,1917,0,8
1777452884.5015209,1687,0,8
1777452884.5037591,1592,0,8
1777452884.510273,1912,0,8
1777452884.510795,2160,0,8
1777452884.513988,2112,0,8
1777452884.515372,1872,0,8
1777452884.518373,1580,0,8
1777452884.5213718,1737,0,8
1777452884.524369,2106,0,8
1777452884.527371,2157,0,8
1777452884.534755,2008,0,8
1777452884.535444,1832,0,8
1777452884.538792,1546,0,8
1777452884.5423841,1930,0,8
1777452884.542544,2222,0,8
1777452884.550853,2150,0,8
1777452884.551102,1904,0,8
1777452884.551405,1582,0,8
1777452884.554707,1721,0,8
1777452884.5573928,2029,0,8
1777452884.560483,2234,0,8
1777452884.566303,2010,0,8
1777452884.5664818,1781,0,8
1777452884.570109,1620,0,8
1777452884.5732229,1908,0,8
1777452884.5761652,2167,0,8
1777452884.578523,2191,0,8
1777452884.582473,2007,0,8
1777452884.585612,1689,0,8
1777452884.587384,1842,0,8
1777452884.5903811,1999,0,8
1777452884.5933719,2204,0,8
1777452884.5963688,2139,0,8
1777452884.5994,1846,0,8
1777452884.6057868,1853,0,8
1777452884.60664,1844,0,8
1777452884.612556,2192,0,8
1777452884.613285,2051,0,8
1777452884.615468,2108,0,8
1777452884.618874,1659,0,8
1777452884.622753,1655,0,8
1777452884.623397,2104,0,8
1777452884.626998,2294,0,8
1777452884.629638,2075,0,8
1777452884.639615,1880,0,8
1777452884.640437,1676,0,8
1777452884.6406348,1797,0,8
1777452884.6426911,2196,0,8
1777452884.645385,2327,0,8
1777452884.648234,2009,0,8
1777452884.651628,1813,0,8
1777452884.6554098,1699,0,8
1777452884.658025,2032,0,8
1777452884.659379,2316,0,8
1777452884.6623628,2236,0,8
1777452884.665376,1970,0,8
1777452884.66836,1693,0,8
1777452884.671386,1876,0,8
1777452884.679598,2243,0,8
1777452884.68158,2307,0,8
1777452884.684063,1951,0,8
1777452884.684362,1848,0,8
1777452884.6870332,1756,0,8
1777452884.692962,2237,0,8
1777452884.693316,2266,0,8
1777452884.6973429,2168,0,8
1777452884.7005491,1990,0,8
1777452884.701967,1722,0,8
1777452884.7046442,1887,0,8
1777452884.714697,2134,0,8
1777452884.717206,2270,0,8
1777452884.717545,2145,0,8
1777452884.717768,1876,0,8
1777452884.7204852,1718,0,8
1777452884.7228658,2042,0,8
1777452884.730577,2231,0,8
1777452884.730974,2358,0,8
1777452884.731373,1940,0,8
1777452884.734705,1686,0,8
1777452884.7373781,1891,0,8
1777452884.7402618,2264,0,8
1777452884.743289,2310,0,8
1777452884.746956,2188,0,8
1777452884.756709,1916,0,8
1777452884.758822,1655,0,8
1777452884.758964,2006,0,8
1777452884.760867,2278,0,8
1777452884.763641,2230,0,8
1777452884.764359,2048,0,8
1777452884.767392,1769,0,8
1777452884.7732391,1823,0,8
1777452884.773545,2156,0,8
1777452884.776712,2332,0,8
1777452884.779305,2200,0,8
1777452884.782301,1990,0,8
1777452884.788532,1674,0,8
1777452884.788696,2001,0,8
1777452884.792455,2374,0,8
1777452884.795679,2337,0,8
1777452884.7977579,1864,0,8
1777452884.8047202,1856,0,8
1777452884.805036,1871,0,8
1777452884.8076758,2168,0,8
1777452884.809275,2255,0,8
1777452884.812275,2449,0,8
1777452884.815249,2204,0,8
1777452884.818246,1830,0,8
1777452884.821271,1947,0,8
1777452884.829367,2430,0,8
1777452884.829484,2568,0,8
1777452884.832441,2298,0,8
1777452884.835532,2044,0,8
1777452884.837132,2185,0,8
1777452884.840791,2537,0,8
1777452884.844307,2663,0,8
1777452884.847442,2765,0,8
1777452884.848764,2533,0,8
1777452884.8513348,2611,0,8
1777452884.8606222,2697,0,8
1777452884.861264,2824,0,8
1777452884.863224,3030,0,8
1777452884.863468,3350,0,8
1777452884.86638,2864,0,8
1777452884.869431,2931,0,8
1777452884.8748212,3554,0,8
1777452884.875333,3833,0,8
1777452884.878539,3860,0,8
1777452884.881249,3923,0,8
1777452884.8842611,3664,0,8
1777452884.887265,3858,0,8
1777452884.89025,4063,0,8
1777452884.8980129,3869,0,8
1777452884.899194,3833,0,8
1777452884.901553,3609,0,8
1777452884.904434,3335,0,8
1777452884.906463,3711,0,8
1777452884.909485,3762,0,8
1777452884.913147,3730,0,8
1777452884.916348,3680,0,8
1777452884.917666,3333,0,8
1777452884.920257,3125,0,8
1777452884.9277172,3486,0,8
1777452884.928698,3408,0,8
1777452884.930378,3481,0,8
1777452884.932775,3119,0,8
1777452884.935402,2669,0,8
1777452884.940202,3251,0,8
1777452884.9428182,3149,0,8
1777452884.944263,3187,0,8
1777452884.947262,3048,0,8
1777452884.9502652,2986,0,8
1777452884.9532402,2249,0,8
1777452884.959525,2653,0,8
1777452884.960126,3060,0,8
1777452884.9628,2781,0,8
1777452884.966076,2457,0,8
1777452884.969501,2585,0,8
1777452884.975467,1911,0,8
1777452884.9755368,2693,0,8
1777452884.977248,2765,0,8
1777452884.980246,3060,0,8
1777452884.987264,1923,0,8
1777452884.9879198,2268,0,8
1777452884.990874,2274,0,8
1777452884.994262,2589,0,8
1777452884.996206,2332,0,8
1777452885.001264,2290,0,8
1777452885.0016289,2129,0,8
1777452885.004437,2104,0,8
1777452885.007262,2492,0,8
1777452885.010284,2235,0,8
1777452885.0132449,1977,0,8
1777452885.0163531,2177,0,8
1777452885.0220008,1896,0,8
1777452885.025066,2153,0,8
1777452885.025262,2421,0,8
1777452885.02831,2606,0,8
1777452885.032223,2226,0,8
1777452885.035414,2040,0,8
1777452885.038004,2136,0,8
1777452885.040585,2248,0,8
1777452885.0432699,2398,0,8
1777452885.049004,1701,0,8
1777452885.0495849,2140,0,8
1777452885.054007,2088,0,8
1777452885.055721,1593,0,8
1777452885.0586848,2221,0,8
1777452885.062023,2095,0,8
1777452885.0647528,2537,0,8
1777452885.0673301,1594,0,8
1777452885.070258,2071,0,8
1777452885.073259,2241,0,8
1777452885.076232,2497,0,8
1777452885.083275,2064,0,8
1777452885.084318,1962,0,8
1777452885.088487,1754,0,8
1777452885.0895948,1888,0,8
1777452885.0914319,1786,0,8
1777452885.09653,2699,0,8
1777452885.099303,2073,0,8
1777452885.1006038,2031,0,8
1777452885.103192,1685,0,8
1777452885.109472,2088,0,8
1777452885.1113632,2005,0,8
1777452885.113128,2285,0,8
1777452885.115515,1959,0,8
1777452885.119732,1734,0,8
1777452885.123141,2078,0,8
1777452885.12575,1870,0,8
1777452885.1271,2043,0,8
1777452885.130132,1874,0,8
1777452885.133107,1917,0,8
1777452885.1361222,2035,0,8
1777452885.143546,2319,0,8
1777452885.144491,2221,0,8
1777452885.145601,2102,0,8
1777452885.148963,2008,0,8
1777452885.152151,2013,0,8
1777452885.154408,1801,0,8
1777452885.157829,2107,0,8
1777452885.1604412,2229,0,8
1777452885.163154,1813,0,8
1777452885.171031,1774,0,8
1777452885.172052,1696,0,8
1777452885.17262,1989,0,8
1777452885.176386,2364,0,8
1777452885.17897,1994,0,8
1777452885.1839628,2004,0,8
1777452885.1844091,1770,0,8
1777452885.187718,1817,0,8
1777452885.19029,2033,0,8
1777452885.1930969,2220,0,8
1777452885.1962419,2134,0,8
1777452885.199183,2069,0,8
1777452885.208946,1664,0,8
1777452885.209255,1729,0,8
1777452885.209475,2294,0,8
1777452885.211492,2172,0,8
1777452885.2162292,2197,0,8
1777452885.219523,1729,0,8
1777452885.220172,1722,0,8
1777452885.223521,2110,0,8
1777452885.2262158,2144,0,8
1777452885.234623,2101,0,8
1777452885.236444,1841,0,8
1777452885.248849,1890,0,8
1777452885.24893,1828,0,8
1777452885.249045,2114,0,8
1777452885.249093,2381,0,8
1777452885.249135,1866,0,8
1777452885.2577941,1745,0,8
1777452885.257904,1711,0,8
1777452885.257986,2060,0,8
1777452885.260638,2177,0,8
1777452885.262272,2160,0,8
1777452885.265302,2173,0,8
1777452885.2681541,1526,0,8
1777452885.271175,1815,0,8
1777452885.28241,2240,0,8
1777452885.289907,2137,0,8
1777452885.293966,1859,0,8
1777452885.2971368,1976,0,8
1777452885.297259,1961,0,8
1777452885.297386,2137,0,8
1777452885.297484,2214,0,8
1777452885.2975419,1855,0,8
1777452885.2981,2122,0,8
1777452885.301097,1856,0,8
1777452885.3111591,1929,0,8
1777452885.311497,2075,0,8
1777452885.311809,2198,0,8
1777452885.313876,2111,0,8
1777452885.316272,1956,0,8
1777452885.322471,1772,0,8
1777452885.3228989,1958,0,8
1777452885.3261068,2404,0,8
1777452885.3288069,1981,0,8
1777452885.3314931,2292,0,8
1777452885.334294,2003,0,8
1777452885.337121,1763,0,8
1777452885.348802,2075,0,8
1777452885.353313,2106,0,8
1777452885.356483,2192,0,8
1777452885.356991,2015,0,8
1777452885.35994,1883,0,8
1777452885.3651211,1935,0,8
1777452885.365172,2164,0,8
1777452885.365783,2323,0,8
1777452885.366048,1931,0,8
1777452885.369592,2024,0,8
1777452885.3701272,1986,0,8
1777452885.3732631,2196,0,8
1777452885.3761148,2130,0,8
1777452885.379374,2189,0,8
1777452885.387298,2051,0,8
1777452885.392234,1910,0,8
1777452885.3982651,2202,0,8
1777452885.398418,2300,0,8
1777452885.4020832,2180,0,8
1777452885.4023628,2203,0,8
1777452885.4025102,1962,0,8
1777452885.4052181,2077,0,8
1777452885.406603,2043,0,8
1777452885.409215,2236,0,8
1777452885.41212,2236,0,8
1777452885.415105,2136,0,8
1777452885.418279,1996,0,8
1777452885.424843,1903,0,8
1777452885.4284039,2229,0,8
1777452885.428826,2330,0,8
1777452885.43169,2278,0,8
1777452885.4340339,2123,0,8
1777452885.44018,1896,0,8
1777452885.4407191,1983,0,8
1777452885.443609,2182,0,8
1777452885.4450922,2366,0,8
1777452885.448127,2114,0,8
1777452885.454114,1851,0,8
1777452885.456078,1842,0,8
1777452885.4586072,2122,0,8
1777452885.4608278,2278,0,8
1777452885.466149,2149,0,8
1777452885.466445,1999,0,8
1777452885.4697988,1790,0,8
1777452885.472148,2015,0,8
1777452885.475109,2217,0,8
1777452885.4780958,2259,0,8
1777452885.481107,2089,0,8
1777452885.484115,1863,0,8
1777452885.492565,1852,0,8
1777452885.4933991,2183,0,8
1777452885.495754,2199,0,8
1777452885.4980721,2150,0,8
1777452885.499938,2043,0,8
1777452885.50308,1849,0,8
1777452885.506948,2014,0,8
1777452885.509888,2260,0,8
1777452885.511307,2196,0,8
1777452885.513972,2003,0,8
1777452885.520758,1812,0,8
1777452885.521714,1847,0,8
1777452885.524499,2054,0,8
1777452885.5272582,2202,0,8
1777452885.529653,2186,0,8
1777452885.535358,2061,0,8
1777452885.5356338,1734,0,8
1777452885.5385118,1888,0,8
1777452885.5412428,2163,0,8
1777452885.544022,2186,0,8
1777452885.546989,2092,0,8
1777452885.5500019,1925,0,8
1777452885.558868,1809,0,8
1777452885.561717,1990,0,8
1777452885.561962,2253,0,8
1777452885.5623848,2194,0,8
1777452885.5664032,2057,0,8
1777452885.569171,1715,0,8
1777452885.5751739,1897,0,8
1777452885.575425,2215,0,8
1777452885.577013,2144,0,8
1777452885.579975,2036,0,8
1777452885.587722,1886,0,8
1777452885.58878,1820,0,8
1777452885.58932,2036,0,8
1777452885.594621,2187,0,8
1777452885.5952268,2178,0,8
1777452885.5995588,2051,0,8
1777452885.603034,1819,0,8
1777452885.605727,1913,0,8
1777452885.607048,2006,0,8
1777452885.610008,2262,0,8
1777452885.6129768,2060,0,8
1777452885.61601,1836,0,8
1777452885.624931,1675,0,8
1777452885.6286888,1903,0,8
1777452885.6288471,2267,0,8
1777452885.629157,2128,0,8
1777452885.6337228,1918,0,8
1777452885.634447,1751,0,8
1777452885.641124,1730,0,8
1777452885.6417532,2036,0,8
1777452885.645476,2032,0,8
1777452885.645995,2091,0,8
1777452885.6489758,1959,0,8
1777452885.658535,1608,0,8
1777452885.6598668,1759,0,8
1777452885.6627898,2142,0,8
1777452885.6657941,1970,0,8
1777452885.6659782,1923,0,8
1777452885.667836,1715,0,8
1777452885.6760478,1778,0,8
1777452885.676484,1917,0,8
1777452885.6798248,2051,0,8
1777452885.679886,1985,0,8
1777452885.682577,1868,0,8
1777452885.6852338,1700,0,8
1777452885.6880052,1784,0,8
1777452885.690975,1987,0,8
1777452885.694032,2161,0,8
1777452885.7002308,1988,0,8
1777452885.701015,1696,0,8
1777452885.70466,1747,0,8
1777452885.708215,1947,0,8
1777452885.709871,2090,0,8
1777452885.712905,2018,0,8
1777452885.716455,1891,0,8
1777452885.718753,1709,0,8
1777452885.7213252,1774,0,8
1777452885.723978,2040,0,8
1777452885.730017,1990,0,8
1777452885.730111,1888,0,8
1777452885.733879,1753,0,8
1777452885.737428,1665,0,8
1777452885.739688,1874,0,8
1777452885.7423549,1965,0,8
1777452885.7463858,1938,0,8
1777452885.748637,1754,0,8
1777452885.7512288,1593,0,8
1777452885.754061,1658,0,8
1777452885.7569711,1956,0,8
1777452885.7600262,2031,0,8
1777452885.7661388,1960,0,8
1777452885.766678,1735,0,8
1777452885.770454,1580,0,8
1777452885.7734458,1748,0,8
1777452885.7751412,1918,0,8
1777452885.778961,1894,0,8
1777452885.7828999,1796,0,8
1777452885.785855,1588,0,8
1777452885.7871711,1532,0,8
1777452885.789958,1872,0,8
1777452885.796814,1935,0,8
1777452885.7969122,1887,0,8
1777452885.799896,1698,0,8
1777452885.8020248,1479,0,8
1777452885.8067389,1623,0,8
1777452885.810199,1885,0,8
1777452885.8132071,1924,0,8
1777452885.8145201,1759,0,8
1777452885.817091,1561,0,8
1777452885.8198578,1468,0,8
1777452885.822847,1742,0,8
1777452885.830509,1917,0,8
1777452885.832614,1895,0,8
1777452885.83466,1616,0,8
1777452885.83504,1408,0,8
1777452885.838917,1557,0,8
1777452885.841581,1940,0,8
1777452885.845058,1920,0,8
1777452885.847757,1716,0,8
1777452885.850362,1561,0,8
1777452885.852929,1463,0,8
1777452885.858612,1722,0,8
1777452885.85978,2005,0,8
1777452885.8624,1913,0,8
1777452885.869246,1688,0,8
1777452885.869349,1451,0,8
1777452885.8732889,1612,0,8
1777452885.876011,2019,0,8
1777452885.877384,1958,0,8
1777452885.879987,1858,0,8
1777452885.882852,1709,0,8
1777452885.8858502,1657,0,8
1777452885.888853,1823,0,8
1777452885.896249,2050,0,8
1777452885.898669,2076,0,8
1777452885.900774,1817,0,8
1777452885.9011588,1612,0,8
1777452885.9058502,1627,0,8
1777452885.907608,1915,0,8
1777452885.909945,2081,0,8
1777452885.914282,1893,0,8
1777452885.917376,1781,0,8
1777452885.918847,1572,0,8
1777452885.921841,1771,0,8
1777452885.929475,2139,0,8
1777452885.930706,2099,0,8
1777452885.931558,1907,0,8
1777452885.934044,1702,0,8
1777452885.93803,1601,0,8
1777452885.945813,1930,0,8
1777452885.946062,2166,0,8
1777452885.946226,1971,0,8
1777452885.94941,1795,0,8
1777452885.952048,1589,0,8
1777452885.954868,1737,0,8
1777452885.957837,2123,0,8
1777452885.9608378,2148,0,8
1777452885.963841,1949,0,8
1777452885.970964,1695,0,8
1777452885.972262,1615,0,8
1777452885.974893,2002,0,8
1777452885.977833,2226,0,8
1777452885.9800682,2067,0,8
1777452885.983381,1779,0,8
1777452885.9875169,1643,0,8
1777452885.9878988,1797,0,8
1777452885.9910998,2155,0,8
1777452885.9938529,2098,0,8
1777452885.9968581,1906,0,8
1777452886.0040388,1825,0,8
1777452886.004805,1701,0,8
1777452886.0072808,1954,0,8
1777452886.010299,2167,0,8
1777452886.012654,2155,0,8
1777452886.0159218,1877,0,8
1777452886.019902,1715,0,8
1777452886.023233,1759,0,8
1777452886.023826,2051,0,8
1777452886.026848,2173,0,8
1777452886.029845,2013,0,8
1777452886.032848,1800,0,8
1777452886.03585,1670,0,8
1777452886.044815,1954,0,8
1777452886.04593,2186,0,8
1777452886.047918,2082,0,8
1777452886.048237,1906,0,8
1777452886.052046,1680,0,8
1777452886.054354,1789,0,8
1777452886.0605261,2033,0,8
1777452886.0608552,2100,0,8
1777452886.063364,2042,0,8
1777452886.06599,1855,0,8
1777452886.068887,1676,0,8
1777452886.076303,1870,0,8
1777452886.077714,2138,0,8
1777452886.0784829,2223,0,8
1777452886.083103,1921,0,8
1777452886.0852742,1730,0,8
1777452886.0884612,1689,0,8
1777452886.092403,2017,0,8
1777452886.092917,2162,0,8
1777452886.095884,2043,0,8
1777452886.098837,1848,0,8
1777452886.1018372,1687,0,8
1777452886.104852,1889,0,8
1777452886.107852,2238,0,8
1777452886.11648,2214,0,8
1777452886.117339,2009,0,8
1777452886.118019,1777,0,8
1777452886.122443,1766,0,8
1777452886.1231859,2126,0,8
1777452886.126382,2171,0,8
1777452886.132979,2071,0,8
1777452886.133302,1875,0,8
1777452886.136539,1652,0,8
1777452886.1378932,1800,0,8
1777452886.140726,2147,0,8
1777452886.149937,2150,0,8
1777452886.1508548,1998,0,8
1777452886.151586,1795,0,8
1777452886.1542132,1764,0,8
1777452886.157328,1998,0,8
1777452886.158912,2203,0,8
1777452886.162557,2107,0,8
1777452886.166749,1887,0,8
1777452886.1695302,1722,0,8
1777452886.170891,1819,0,8
1777452886.1737258,2147,0,8
1777452886.176739,2188,0,8
1777452886.1797252,2021,0,8
1777452886.182718,1876,0,8
1777452886.190468,1752,0,8
1777452886.191256,1997,0,8
1777452886.1921432,2205,0,8
1777452886.195331,2147,0,8
1777452886.1979089,1933,0,8
1777452886.201261,1701,0,8
1777452886.2082691,1768,0,8
1777452886.208609,2152,0,8
1777452886.211898,2165,0,8
1777452886.213349,2023,0,8
1777452886.216005,1854,0,8
1777452886.218833,1690,0,8
1777452886.225814,1871,0,8
1777452886.2273831,2177,0,8
1777452886.229957,2184,0,8
1777452886.2325592,1950,0,8
1777452886.234123,1724,0,8
1777452886.241994,1769,0,8
1777452886.2424161,2074,0,8
1777452886.242799,2245,0,8
1777452886.245871,2145,0,8
1777452886.248721,1917,0,8
1777452886.251727,1692,0,8
1777452886.2547042,1904,0,8
1777452886.257748,2218,0,8
1777452886.265312,2207,0,8
1777452886.2660322,2038,0,8
1777452886.26944,1847,0,8
1777452886.269752,1767,0,8
1777452886.27477,2012,0,8
1777452886.277966,2241,0,8
1777452886.281646,2176,0,8
1777452886.2818282,1998,0,8
1777452886.285068,1697,0,8
1777452886.287734,1851,0,8
1777452886.2907321,2228,0,8
1777452886.296855,2241,0,8
1777452886.298453,2082,0,8
1777452886.3008451,1874,0,8
1777452886.303188,1790,0,8
1777452886.305998,1983,0,8
1777452886.3122041,2249,0,8
1777452886.312542,2206,0,8
1777452886.315582,1956,0,8
1777452886.31817,1741,0,8
1777452886.32075,1842,0,8
1777452886.3237052,2215,0,8
1777452886.326713,2286,0,8
1777452886.3362901,2121,0,8
1777452886.3385432,1869,0,8
1777452886.338688,1745,0,8
1777452886.3390121,2037,0,8
1777452886.342371,2282,0,8
1777452886.346818,2190,0,8
1777452886.35054,1998,0,8
1777452886.35081,1742,0,8
1777452886.354003,1800,0,8
1777452886.356738,2202,0,8
1777452886.359745,2279,0,8
1777452886.365344,2160,0,8
1777452886.365988,1944,0,8
1777452886.3691678,1729,0,8
1777452886.3721228,1993,0,8
1777452886.375036,2269,0,8
1777452886.38062,2189,0,8
1777452886.381012,2025,0,8
1777452886.3842628,1806,0,8
1777452886.3868449,1790,0,8
1777452886.389726,2133,0,8
1777452886.392737,2260,0,8
1777452886.395744,2153,0,8
1777452886.403386,1969,0,8
1777452886.403489,1743,0,8
1777452886.407288,1950,0,8
1777452886.409698,2296,0,8
1777452886.411361,2292,0,8
1777452886.4149098,2074,0,8
1777452886.418211,1853,0,8
1777452886.421045,1723,0,8
1777452886.422714,2095,0,8
1777452886.425714,2269,0,8
1777452886.430988,2182,0,8
1777452886.432548,1954,0,8
1777452886.436842,1714,0,8
1777452886.4440162,1882,0,8
1777452886.4469929,2230,0,8
1777452886.44707,2277,0,8
1777452886.447128,2106,0,8
1777452886.4498382,1875,0,8
1777452886.452606,1803,0,8
1777452886.456654,2078,0,8
1777452886.4593651,2287,0,8
1777452886.465583,2212,0,8
1777452886.466316,1983,0,8
1777452886.469525,1735,0,8
1777452886.472196,1875,0,8
1777452886.4743931,2226,0,8
1777452886.476968,2284,0,8
1777452886.4802701,2065,0,8
1777452886.483089,1864,0,8
1777452886.4856708,1747,0,8
1777452886.492827,2033,0,8
1777452886.493834,2265,0,8
1777452886.496793,2227,0,8
1777452886.499022,2003,0,8
1777452886.501179,1771,0,8
1777452886.5071151,1795,0,8
1777452886.507348,2211,0,8
1777452886.51012,2279,0,8
1777452886.512783,2125,0,8
1777452886.51562,1918,0,8
1777452886.518592,1732,0,8
1777452886.521615,1962,0,8
1777452886.527921,2273,0,8
1777452886.528513,2232,0,8
1777452886.531159,2071,0,8
1777452886.533796,1849,0,8
1777452886.538065,1806,0,8
1777452886.543974,2124,0,8
1777452886.544053,2259,0,8
1777452886.545609,2160,0,8
1777452886.548589,1951,0,8
1777452886.55536,1764,0,8
1777452886.5554812,1906,0,8
1777452886.5578759,2286,0,8
1777452886.5612302,2248,0,8
1777452886.564539,2090,0,8
1777452886.567743,1851,0,8
1777452886.5703208,1781,0,8
1777452886.5729961,2114,0,8
1777452886.575608,2304,0,8
1777452886.578603,2216,0,8
1777452886.581603,1960,0,8
1777452886.5886972,1688,0,8
1777452886.5893362,1862,0,8
1777452886.591841,2265,0,8
1777452886.594291,2309,0,8
1777452886.598649,2122,0,8
1777452886.601812,1860,0,8
1777452886.604158,1747,0,8
1777452886.605599,2027,0,8
1777452886.608602,2275,0,8
1777452886.614537,2239,0,8
1777452886.6155589,2008,0,8
1777452886.617832,1750,0,8
1777452886.6210618,1885,0,8
1777452886.624668,2249,0,8
1777452886.627794,2332,0,8
1777452886.629982,2167,0,8
1777452886.632598,1915,0,8
1777452886.6355698,1738,0,8
1777452886.6385741,2023,0,8
1777452886.641601,2229,0,8
1777452886.648372,2238,0,8
1777452886.649009,2013,0,8
1777452886.6514502,1803,0,8
1777452886.653999,1812,0,8
1777452886.658447,2156,0,8
1777452886.661741,2312,0,8
1777452886.664534,2217,0,8
1777452886.6659782,1953,0,8
1777452886.668598,1718,0,8
1777452886.676158,1977,0,8
1777452886.676724,2256,0,8
1777452886.679466,2230,0,8
1777452886.681503,2071,0,8
1777452886.684224,1819,0,8
1777452886.689474,1799,0,8
1777452886.6900039,2152,0,8
1777452886.692831,2302,0,8
1777452886.6956182,2209,0,8
1777452886.6986198,1967,0,8
1777452886.701609,1724,0,8
1777452886.704619,1968,0,8
1777452886.710468,2276,0,8
1777452886.711081,2246,0,8
1777452886.7153869,2028,0,8
1777452886.71712,1835,0,8
1777452886.7200792,1769,0,8
1777452886.7233322,2123,0,8
1777452886.7262132,2275,0,8
1777452886.72878,2208,0,8
1777452886.731596,2009,0,8
1777452886.737129,1743,0,8
1777452886.740048,1908,0,8
1777452886.742688,2242,0,8
1777452886.74478,2285,0,8
1777452886.747007,2118,0,8
1777452886.7501628,1883,0,8
1777452886.7528052,1766,0,8
1777452886.755465,2038,0,8
1777452886.758473,2300,0,8
1777452886.761447,2230,0,8
1777452886.764446,2016,0,8
1777452886.7716749,1779,0,8
1777452886.7737432,1841,0,8
1777452886.774056,2224,0,8
1777452886.777853,2301,0,8
1777452886.780843,2148,0,8
1777452886.7841332,1844,0,8
1777452886.786807,1793,0,8
1777452886.788456,2049,0,8
1777452886.791467,2245,0,8
1777452886.799507,2231,0,8
1777452886.8015318,2042,0,8
1777452886.8016782,1797,0,8
1777452886.803777,1852,0,8
1777452886.808343,2177,0,8
1777452886.8115919,2257,0,8
1777452886.8141818,2163,0,8
1777452886.815499,1962,0,8
1777452886.818471,1715,0,8
1777452886.821454,1946,0,8
1777452886.824488,2279,0,8
1777452886.831987,2264,0,8
1777452886.83265,2047,0,8
1777452886.835445,1807,0,8
1777452886.8382862,1808,0,8
1777452886.8400562,2148,0,8
1777452886.8452191,2309,0,8
1777452886.845473,2177,0,8
1777452886.848896,1943,0,8
1777452886.851464,1750,0,8
1777452886.858779,1955,0,8
1777452886.8593621,2279,0,8
1777452886.8618948,2198,0,8
1777452886.864386,2070,0,8
1777452886.866657,1855,0,8
1777452886.871924,1806,0,8
1777452886.872494,2138,0,8
1777452886.875576,2281,0,8
1777452886.878471,2188,0,8
1777452886.881448,2005,0,8
1777452886.884446,1789,0,8
1777452886.8875232,1874,0,8
1777452886.893195,2283,0,8
1777452886.8946161,2295,0,8
1777452886.8965492,2107,0,8
1777452886.901813,1867,0,8
1777452886.903628,1741,0,8
1777452886.906785,2021,0,8
1777452886.909405,2215,0,8
1777452886.911974,2219,0,8
1777452886.914774,2017,0,8
1777452886.9197812,1769,0,8
1777452886.922955,1874,0,8
1777452886.92514,2216,0,8
1777452886.926908,2306,0,8
1777452886.930015,2134,0,8
1777452886.933266,1901,0,8
1777452886.936289,1791,0,8
1777452886.9388978,1995,0,8
1777452886.941504,2254,0,8
1777452886.9443562,2259,0,8
1777452886.947336,2014,0,8
1777452886.953005,1799,0,8
1777452886.9541109,1873,0,8
1777452886.9572842,2203,0,8
1777452886.960342,2302,0,8
1777452886.963785,2140,0,8
1777452886.969476,1905,0,8
1777452886.9696598,1713,0,8
1777452886.971356,1969,0,8
1777452886.9743402,2266,0,8
1777452886.983627,2192,0,8
1777452886.986803,2027,0,8
1777452886.988548,1769,0,8
1777452886.989217,1826,0,8
1777452886.989397,2160,0,8
1777452886.994998,2302,0,8
1777452886.9955719,2229,0,8
1777452886.99885,1945,0,8
1777452887.001494,1720,0,8
1777452887.004343,1915,0,8
1777452887.007345,2306,0,8
1777452887.0103512,2321,0,8
1777452887.015986,2094,0,8
1777452887.019764,1848,0,8
1777452887.0203562,1780,0,8
1777452887.023579,2120,0,8
1777452887.0281248,2270,0,8
1777452887.031382,2209,0,8
1777452887.031724,2006,0,8
1777452887.034517,1780,0,8
1777452887.037353,1880,0,8
1777452887.044771,2225,0,8
1777452887.0454369,2272,0,8
1777452887.047185,2122,0,8
1777452887.050783,1882,0,8
1777452887.052686,1746,0,8
1777452887.0557199,2098,0,8
1777452887.058938,2296,0,8
1777452887.0615838,2201,0,8
1777452887.064346,2025,0,8
1777452887.067364,1744,0,8
1777452887.070334,1821,0,8
1777452887.0733209,2238,0,8
1777452887.080014,2275,0,8
1777452887.080517,2154,0,8
1777452887.0830002,1888,0,8
1777452887.086136,1716,0,8
1777452887.090362,2009,0,8
1777452887.093651,2306,0,8
1777452887.096797,2267,0,8
1777452887.097355,2069,0,8
1777452887.100339,1777,0,8
1777452887.107831,1885,0,8
1777452887.108487,2168,0,8
1777452887.111416,2216,0,8
1777452887.114063,2179,0,8
1777452887.116276,1920,0,8
1777452887.118477,1711,0,8
1777452887.1218328,1951,0,8
1777452887.124694,2288,0,8
1777452887.1273391,2244,0,8
1777452887.1303391,2049,0,8
1777452887.1333199,1833,0,8
1777452887.136373,1837,0,8
1777452887.142506,2185,0,8
1777452887.143018,2264,0,8
1777452887.145382,2189,0,8
1777452887.149455,1962,0,8
1777452887.1525602,1738,0,8
1777452887.155734,1935,0,8
1777452887.158339,2240,0,8
1777452887.161024,2253,0,8
1777452887.163629,2123,0,8
1777452887.16907,1891,0,8
1777452887.170279,1755,0,8
1777452887.172742,2036,0,8
1777452887.176466,2315,0,8
1777452887.179724,2270,0,8
1777452887.1828558,1996,0,8
1777452887.18561,1740,0,8
1777452887.187228,1888,0,8
1777452887.1908438,2275,0,8
1777452887.193434,2283,0,8
1777452887.1962261,2116,0,8
1777452887.203169,1880,0,8
1777452887.2037911,1790,0,8
1777452887.206594,2042,0,8
1777452887.209086,2243,0,8
1777452887.213399,2216,0,8
1777452887.216375,2050,0,8
1777452887.219349,1749,0,8
1777452887.22072,1843,0,8
1777452887.2234151,2192,0,8
1777452887.2298062,2287,0,8
1777452887.230805,2142,0,8
1777452887.233253,1950,0,8
1777452887.235828,1760,0,8
1777452887.2399812,2005,0,8
1777452887.24321,2331,0,8
1777452887.246142,2246,0,8
1777452887.247457,2043,0,8
1777452887.2502341,1776,0,8
1777452887.253224,1825,0,8
1777452887.256199,2170,0,8
1777452887.263259,2267,0,8
1777452887.263341,2138,0,8
1777452887.266463,1899,0,8
1777452887.268553,1743,0,8
1777452887.27317,1957,0,8
1777452887.276462,2295,0,8
1777452887.279062,2278,0,8
1777452887.280385,2043,0,8
1777452887.283226,1830,0,8
1777452887.288478,1842,0,8
1777452887.2900171,2164,0,8
1777452887.294246,2330,0,8
1777452887.296177,2151,0,8
1777452887.300583,1979,0,8
1777452887.302492,1698,0,8
1777452887.304209,1881,0,8
1777452887.3072,2225,0,8
1777452887.310225,2258,0,8
1777452887.3131971,2067,0,8
1777452887.319206,1831,0,8
1777452887.3194308,1772,0,8
1777452887.3231392,2139,0,8
1777452887.3259242,2353,0,8
1777452887.328723,2198,0,8
1777452887.334305,1957,0,8
1777452887.334578,1700,0,8
1777452887.337308,1884,0,8
1777452887.340325,2236,0,8
1777452887.3510761,2220,0,8
1777452887.3528252,2085,0,8
1777452887.353879,1860,0,8
1777452887.356032,1761,0,8
1777452887.356781,2020,0,8
1777452887.359471,2294,0,8
1777452887.3628328,2229,0,8
1777452887.365719,2024,0,8
1777452887.367189,1797,0,8
1777452887.370186,1843,0,8
1777452887.373195,2197,0,8
1777452887.376199,2328,0,8
1777452887.386102,2164,0,8
1777452887.386296,1877,0,8
1777452887.386559,1736,0,8
1777452887.391951,1989,0,8
1777452887.397088,2285,0,8
1777452887.397492,2220,0,8
1777452887.39777,1954,0,8
1777452887.400701,1788,0,8
1777452887.403336,1828,0,8
1777452887.410878,2204,0,8
1777452887.411988,2341,0,8
1777452887.414676,2229,0,8
1777452887.4165099,1953,0,8
1777452887.418883,1717,0,8
1777452887.422375,1931,0,8
1777452887.4257028,2281,0,8
1777452887.4286668,2266,0,8
1777452887.430197,2067,0,8
1777452887.4331908,1817,0,8
1777452887.43619,1773,0,8
1777452887.4392052,2119,0,8
1777452887.446499,2234,0,8
1777452887.447285,2239,0,8
1777452887.4506612,2023,0,8
1777452887.453405,1734,0,8
1777452887.4574778,1866,0,8
1777452887.45985,2270,0,8
1777452887.4639502,2257,0,8
1777452887.46436,2089,0,8
1777452887.4676092,1858,0,8
1777452887.469186,1839,0,8
1777452887.472071,2092,0,8
1777452887.481222,2238,0,8
1777452887.4818969,2216,0,8
1777452887.482589,2056,0,8
1777452887.487535,1754,0,8
1777452887.488843,1881,0,8
1777452887.49054,2232,0,8
1777452887.493685,2305,0,8
1777452887.497451,2135,0,8
1777452887.500551,1929,0,8
1777452887.502837,1712,0,8
1777452887.505454,2054,0,8
1777452887.508221,2319,0,8
1777452887.5110888,2219,0,8
1777452887.5143812,2016,0,8
1777452887.538593,1772,0,8
1777452887.5403469,1826,0,8
1777452887.540564,2244,0,8
1777452887.54063,2344,0,8
1777452887.540734,2110,0,8
1777452887.540992,1948,0,8
1777452887.541261,1792,0,8
1777452887.541313,2001,0,8
1777452887.5416079,2304,0,8
1777452887.5463,2205,0,8
1777452887.5699031,2069,0,8
1777452887.570003,1791,0,8
1777452887.570047,1774,0,8
1777452887.570087,2130,0,8
1777452887.570125,2241,0,8
1777452887.570163,2181,0,8
1777452887.570199,1964,0,8
1777452887.570236,1718,0,8
1777452887.571646,1939,0,8
1777452887.574081,2294,0,8
1777452887.577069,2286,0,8
1777452887.580072,2123,0,8
1777452887.5830941,1817,0,8
1777452887.592213,1749,0,8
1777452887.5935402,2163,0,8
1777452887.593733,2290,0,8
1777452887.596023,2175,0,8
1777452887.599761,1955,0,8
1777452887.601321,1749,0,8
1777452887.608473,1949,0,8
1777452887.608774,2251,0,8
1777452887.611504,2267,0,8
1777452887.6130528,2110,0,8
1777452887.616073,1862,0,8
1777452887.624314,1782,0,8
1777452887.625045,2112,0,8
1777452887.625772,2300,0,8
1777452887.628782,2240,0,8
1777452887.631851,2050,0,8
1777452887.6371999,1754,0,8
1777452887.640977,1891,0,8
1777452887.641267,2249,0,8
1777452887.644459,2325,0,8
1777452887.646064,2192,0,8
1777452887.649088,1869,0,8
1777452887.6520681,1722,0,8
1777452887.6550689,2011,0,8
1777452887.658401,2274,0,8
1777452887.665448,2203,0,8
1777452887.666157,2033,0,8
1777452887.6691542,1745,0,8
1777452887.6716821,1826,0,8
1777452887.673308,2238,0,8
1777452887.6778271,2302,0,8
1777452887.684814,2156,0,8
1777452887.685845,1960,0,8
1777452887.6860201,1783,0,8
1777452887.688703,1985,0,8
1777452887.691442,2264,0,8
1777452887.6987069,2250,0,8
1777452887.698875,2101,0,8
1777452887.701279,1827,0,8
1777452887.7032,1840,0,8
1777452887.7072508,2163,0,8
1777452887.709385,2266,0,8
1777452887.71575,2195,0,8
1777452887.716097,1959,0,8
1777452887.719348,1703,0,8
1777452887.720973,1966,0,8
1777452887.723969,2256,0,8
1777452887.726959,2219,0,8
1777452887.72998,2075,0,8
1777452887.732955,1839,0,8
1777452887.739636,1822,0,8
1777452887.74033,2157,0,8
1777452887.7436092,2272,0,8
1777452887.7465432,2224,0,8
1777452887.748766,2006,0,8
1777452887.7522402,1789,0,8
1777452887.755927,1916,0,8
1777452887.7592099,2220,0,8
1777452887.7605429,2285,0,8
1777452887.763137,2140,0,8
1777452887.77074,1888,0,8
1777452887.771517,1773,0,8
1777452887.772141,2045,0,8
1777452887.775554,2295,0,8
1777452887.7787762,2191,0,8
1777452887.7817018,1939,0,8
1777452887.787216,1772,0,8
1777452887.7873678,1885,0,8
1777452887.7899761,2281,0,8
1777452887.792934,2293,0,8
1777452887.79596,2145,0,8
1777452887.798933,1914,0,8
1777452887.801936,1791,0,8
1777452887.8049338,2099,0,8
1777452887.811828,2284,0,8
1777452887.812934,2213,0,8
1777452887.815891,2011,0,8
1777452887.819037,1788,0,8
1777452887.820611,1826,0,8
1777452887.824311,2194,0,8
1777452887.8279328,2271,0,8
1777452887.831178,2117,0,8
1777452887.832509,1961,0,8
1777452887.8351018,1743,0,8
1777452887.837944,2027,0,8
1777452887.8409321,2337,0,8
1777452887.844565,2245,0,8
1777452887.8471391,2053,0,8
1777452887.849951,1810,0,8
1777452887.857057,1812,0,8
1777452887.857207,2165,0,8
1777452887.86036,2263,0,8
1777452887.8629801,2178,0,8
1777452887.865685,1909,0,8
1777452887.870784,1704,0,8
1777452887.871009,1919,0,8
1777452887.874329,2245,0,8
1777452887.8769321,2280,0,8
1777452887.884188,2072,0,8
1777452887.884769,1881,0,8
1777452887.887168,1799,0,8
1777452887.889622,2109,0,8
1777452887.893812,2288,0,8
1777452887.8969548,2225,0,8
1777452887.8996081,2003,0,8
1777452887.900967,1711,0,8
1777452887.903966,1921,0,8
1777452887.906964,2230,0,8
1777452887.909965,2277,0,8
1777452887.912956,2130,0,8
1777452887.915809,1815,0,8
