timestamp,ch1,ch2,label
1777452858.938643,2171,0,S_7
1777452858.93933,2107,0,S_7
1777452858.9456499,1844,0,S_7
1777452858.946347,1579,0,S_7
1777452858.9469419,1636,0,S_7
1777452858.9501681,2074,0,S_7
1777452858.953696,2195,0,S_7
1777452858.955368,1922,0,S_7
1777452858.958333,1688,0,S_7
1777452858.961405,1491,0,S_7
1777452858.964308,1752,0,S_7
1777452858.971723,2094,0,S_7
1777452858.972306,2096,0,S_7
1777452858.9749749,1833,0,S_7
1777452858.977634,1575,0,S_7
1777452858.979705,1528,0,S_7
1777452858.982822,1974,0,S_7
1777452858.985683,2146,0,S_7
1777452858.988244,1984,0,S_7
1777452858.991217,1730,0,S_7
1777452858.994286,1480,0,S_7
1777452858.997213,1751,0,S_7
1777452859.002626,2112,0,S_7
1777452859.005546,2142,0,S_7
1777452859.0079622,1919,0,S_7
1777452859.009544,1608,0,S_7
1777452859.0131142,1582,0,S_7
1777452859.015638,2017,0,S_7
1777452859.018235,2201,0,S_7
1777452859.02543,2073,0,S_7
1777452859.02591,1837,0,S_7
1777452859.0284312,1432,0,S_7
1777452859.030287,1779,0,S_7
1777452859.03524,2198,0,S_7
1777452859.037715,2216,0,S_7
1777452859.039189,1923,0,S_7
1777452859.0421839,1728,0,S_7
1777452859.0451899,1601,0,S_7
1777452859.048216,1968,0,S_7
1777452859.053741,2233,0,S_7
1777452859.054249,2141,0,S_7
1777452859.058523,1856,0,S_7
1777452859.060402,1614,0,S_7
1777452859.0653,1733,0,S_7
1777452859.066614,2176,0,S_7
1777452859.069206,2234,0,S_7
1777452859.0750349,2068,0,S_7
1777452859.077777,1778,0,S_7
1777452859.0797582,1605,0,S_7
1777452859.082499,1913,0,S_7
1777452859.0860832,2291,0,S_7
1777452859.088692,2179,0,S_7
1777452859.090215,1918,0,S_7
1777452859.09319,1619,0,S_7
1777452859.0961869,1710,0,S_7
1777452859.099181,2157,0,S_7
1777452859.104931,2261,0,S_7
1777452859.105531,2132,0,S_7
1777452859.109979,1861,0,S_7
1777452859.1115499,1578,0,S_7
1777452859.11534,1873,0,S_7
1777452859.1176,2280,0,S_7
1777452859.1203148,2212,0,S_7
1777452859.127317,1964,0,S_7
1777452859.127428,1682,0,S_7
1777452859.1303182,1704,0,S_7
1777452859.132946,2120,0,S_7
1777452859.136398,2292,0,S_7
1777452859.1395788,2174,0,S_7
1777452859.1411998,1861,0,S_7
1777452859.144205,1585,0,S_7
1777452859.1472251,1859,0,S_7
1777452859.150221,2288,0,S_7
1777452859.1557992,2235,0,S_7
1777452859.1564338,2018,0,S_7
1777452859.160563,1764,0,S_7
1777452859.162936,1649,0,S_7
1777452859.165864,2079,0,S_7
1777452859.168405,2274,0,S_7
1777452859.171227,2210,0,S_7
1777452859.178012,1936,0,S_7
1777452859.178524,1645,0,S_7
1777452859.180706,1772,0,S_7
1777452859.184386,2281,0,S_7
1777452859.186783,2306,0,S_7
1777452859.190332,2144,0,S_7
1777452859.192194,1710,0,S_7
1777452859.195221,1685,0,S_7
1777452859.1982038,2035,0,S_7
1777452859.201226,2246,0,S_7
1777452859.207437,2243,0,S_7
1777452859.207583,1900,0,S_7
1777452859.2102559,1651,0,S_7
1777452859.2139032,1759,0,S_7
1777452859.2175639,2234,0,S_7
1777452859.220195,2323,0,S_7
1777452859.222774,2160,0,S_7
1777452859.229623,1816,0,S_7
1777452859.230506,1603,0,S_7
1777452859.2322922,1979,0,S_7
1777452859.2344809,2285,0,S_7
1777452859.238246,2292,0,S_7
1777452859.241746,1998,0,S_7
1777452859.243089,1680,0,S_7
1777452859.246068,1771,0,S_7
1777452859.249752,2237,0,S_7
1777452859.252318,2251,0,S_7
1777452859.2578619,2151,0,S_7
1777452859.258401,1877,0,S_7
1777452859.2625039,1615,0,S_7
1777452859.264534,1979,0,S_7
1777452859.267892,2356,0,S_7
1777452859.2703822,2367,0,S_7
1777452859.273131,2101,0,S_7
1777452859.2801049,1753,0,S_7
1777452859.281014,1854,0,S_7
1777452859.283485,2189,0,S_7
1777452859.2858171,2292,0,S_7
1777452859.28963,2279,0,S_7
1777452859.291177,1906,0,S_7
1777452859.294501,1908,0,S_7
1777452859.2972028,1962,0,S_7
1777452859.300076,2237,0,S_7
1777452859.303073,2365,0,S_7
1777452859.310451,2087,0,S_7
1777452859.310986,1792,0,S_7
1777452859.3131719,1793,0,S_7
1777452859.315451,2151,0,S_7
1777452859.3191848,2373,0,S_7
1777452859.321125,2120,0,S_7
1777452859.3241029,2044,0,S_7
1777452859.327101,1791,0,S_7
1777452859.333437,2091,0,S_7
1777452859.333998,2369,0,S_7
1777452859.3378718,2465,0,S_7
1777452859.339443,2217,0,S_7
1777452859.3431602,1919,0,S_7
1777452859.3457909,1837,0,S_7
1777452859.3484511,2148,0,S_7
1777452859.35106,2306,0,S_7
1777452859.354063,2326,0,S_7
1777452859.357087,1975,0,S_7
1777452859.362467,1822,0,S_7
1777452859.363115,1895,0,S_7
1777452859.367727,2362,0,S_7
1777452859.369328,2471,0,S_7
1777452859.374202,2213,0,S_7
1777452859.377036,1893,0,S_7
1777452859.3783529,1734,0,S_7
1777452859.381184,2149,0,S_7
1777452859.387818,2405,0,S_7
1777452859.38889,2350,0,S_7
1777452859.3906088,2124,0,S_7
1777452859.393655,1877,0,S_7
1777452859.3972359,1837,0,S_7
1777452859.399125,2244,0,S_7
1777452859.402524,2582,0,S_7
1777452859.405101,2252,0,S_7
1777452859.408092,1922,0,S_7
1777452859.4110668,1791,0,S_7
1777452859.4181771,1956,0,S_7
1777452859.419255,2305,0,S_7
1777452859.421403,2432,0,S_7
1777452859.424404,2174,0,S_7
1777452859.4262662,1931,0,S_7
1777452859.430471,1825,0,S_7
1777452859.433186,2229,0,S_7
1777452859.435091,2490,0,S_7
1777452859.438064,2039,0,S_7
1777452859.444088,2189,0,S_7
1777452859.445169,1678,0,S_7
1777452859.447801,1925,0,S_7
1777452859.451502,2350,0,S_7
1777452859.454561,2312,0,S_7
1777452859.4564018,2305,0,S_7
1777452859.459559,1953,0,S_7
1777452859.462291,1950,0,S_7
1777452859.465143,2113,0,S_7
1777452859.4680681,2609,0,S_7
1777452859.471061,2188,0,S_7
1777452859.47804,1973,0,S_7
1777452859.47924,1674,0,S_7
1777452859.481869,1939,0,S_7
1777452859.484135,2447,0,S_7
1777452859.4893188,2436,0,S_7
1777452859.491607,2214,0,S_7
1777452859.492117,1895,0,S_7
1777452859.495619,1681,0,S_7
1777452859.4982378,2229,0,S_7
1777452859.501119,2612,0,S_7
1777452859.504064,2381,0,S_7
1777452859.507093,2101,0,S_7
1777452859.5103009,1760,0,S_7
1777452859.518181,2031,0,S_7
1777452859.520621,2478,0,S_7
1777452859.520673,2573,0,S_7
1777452859.525641,2272,0,S_7
1777452859.526475,2033,0,S_7
1777452859.5309608,1912,0,S_7
1777452859.531328,2272,0,S_7
1777452859.534422,2597,0,S_7
1777452859.537195,2617,0,S_7
1777452859.539967,2316,0,S_7
1777452859.542954,1999,0,S_7
1777452859.546651,2120,0,S_7
1777452859.549304,2639,0,S_7
1777452859.552014,2733,0,S_7
1777452859.562773,2567,0,S_7
1777452859.565444,2269,0,S_7
1777452859.5668259,1919,0,S_7
1777452859.567944,2307,0,S_7
1777452859.56868,2677,0,S_7
1777452859.571639,2674,0,S_7
1777452859.574037,2427,0,S_7
1777452859.577526,2107,0,S_7
1777452859.579048,1895,0,S_7
1777452859.5819468,2501,0,S_7
1777452859.5885298,2715,0,S_7
1777452859.58919,2472,0,S_7
1777452859.5920289,2236,0,S_7
1777452859.59509,1902,0,S_7
1777452859.599058,2179,0,S_7
1777452859.601332,2556,0,S_7
1777452859.60361,2572,0,S_7
1777452859.6060958,2275,0,S_7
1777452859.608959,1929,0,S_7
1777452859.611952,1932,0,S_7
1777452859.6150022,2301,0,S_7
1777452859.6246452,2535,0,S_7
1777452859.6268091,2320,0,S_7
1777452859.62928,2226,0,S_7
1777452859.630013,1881,0,S_7
1777452859.630191,1908,0,S_7
1777452859.634641,2359,0,S_7
1777452859.637305,2437,0,S_7
1777452859.6401489,2354,0,S_7
1777452859.641946,2018,0,S_7
1777452859.644941,1705,0,S_7
1777452859.6518059,2215,0,S_7
1777452859.65431,2270,0,S_7
1777452859.654701,2342,0,S_7
1777452859.6570518,2088,0,S_7
1777452859.660437,1543,0,S_7
1777452859.664514,1918,0,S_7
1777452859.667257,2265,0,S_7
1777452859.6689239,2540,0,S_7
1777452859.671922,2305,0,S_7
1777452859.674916,1911,0,S_7
1777452859.677936,1563,0,S_7
1777452859.6853492,2005,0,S_7
1777452859.686131,2320,0,S_7
1777452859.689327,2395,0,S_7
1777452859.692319,1878,0,S_7
1777452859.693578,1705,0,S_7
1777452859.697369,1685,0,S_7
1777452859.699832,2262,0,S_7
1777452859.702664,2438,0,S_7
1777452859.705347,2292,0,S_7
1777452859.7082,2141,0,S_7
1777452859.7139509,1711,0,S_7
1777452859.714698,2003,0,S_7
1777452859.717195,2322,0,S_7
1777452859.7216032,2282,0,S_7
1777452859.725209,2232,0,S_7
1777452859.7283452,1598,0,S_7
1777452859.7292101,1620,0,S_7
1777452859.732705,2217,0,S_7
1777452859.735361,2418,0,S_7
1777452859.738045,2071,0,S_7
1777452859.74093,2054,0,S_7
1777452859.7439702,1804,0,S_7
1777452859.751224,1856,0,S_7
1777452859.752334,2421,0,S_7
1777452859.7542,2119,0,S_7
1777452859.756327,2172,0,S_7
1777452859.761112,1689,0,S_7
1777452859.763728,1753,0,S_7
1777452859.7666318,2069,0,S_7
1777452859.767972,2206,0,S_7
1777452859.7709708,2106,0,S_7
1777452859.777214,1951,0,S_7
1777452859.7785752,1486,0,S_7
1777452859.781238,1787,0,S_7
1777452859.783853,2214,0,S_7
1777452859.7883599,2102,0,S_7
1777452859.791174,2206,0,S_7
1777452859.794144,1308,0,S_7
1777452859.795468,1679,0,S_7
1777452859.7980402,1943,0,S_7
1777452859.800956,2216,0,S_7
1777452859.80397,2245,0,S_7
1777452859.811994,1901,0,S_7
1777452859.812629,1701,0,S_7
1777452859.813749,1481,0,S_7
1777452859.8177679,2348,0,S_7
1777452859.820169,1929,0,S_7
1777452859.822793,1950,0,S_7
1777452859.825687,1431,0,S_7
1777452859.828436,1650,0,S_7
1777452859.831033,1930,0,S_7
1777452859.834062,2425,0,S_7
1777452859.839654,1925,0,S_7
1777452859.840273,2272,0,S_7
1777452859.843002,1595,0,S_7
1777452859.8472161,1578,0,S_7
1777452859.849992,2150,0,S_7
1777452859.852832,2228,0,S_7
1777452859.855552,2090,0,S_7
1777452859.8581288,1801,0,S_7
1777452859.860966,1530,0,S_7
1777452859.863967,1692,0,S_7
1777452859.866966,2310,0,S_7
1777452859.873909,2204,0,S_7
1777452859.874937,1810,0,S_7
1777452859.87644,1693,0,S_7
1777452859.879542,1630,0,S_7
1777452859.883438,2062,0,S_7
1777452859.886196,2151,0,S_7
1777452859.8888268,2028,0,S_7
1777452859.891413,1813,0,S_7
1777452859.894318,1567,0,S_7
1777452859.89996,1864,0,S_7
1777452859.900566,2258,0,S_7
1777452859.903281,2225,0,S_7
1777452859.906558,1897,0,S_7
1777452859.9100878,1612,0,S_7
1777452859.9128761,1630,0,S_7
1777452859.915755,2045,0,S_7
1777452859.918337,2264,0,S_7
1777452859.920919,2132,0,S_7
1777452859.923841,1850,0,S_7
1777452859.926848,1501,0,S_7
1777452859.9316428,1761,0,S_7
1777452859.933237,2321,0,S_7
1777452859.9366632,2330,0,S_7
1777452859.9406002,2016,0,S_7
1777452859.943383,1720,0,S_7
1777452859.946069,1672,0,S_7
1777452859.9478242,2071,0,S_7
1777452859.955452,2330,0,S_7
1777452859.958872,2178,0,S_7
1777452859.959275,1871,0,S_7
1777452859.960942,1594,0,S_7
1777452859.964124,1701,0,S_7
1777452859.9688792,2224,0,S_7
1777452859.969252,2303,0,S_7
1777452859.972424,2153,0,S_7
1777452859.9756029,1855,0,S_7
1777452859.978195,1643,0,S_7
1777452859.980808,2077,0,S_7
1777452859.983807,2331,0,S_7
1777452859.991223,2095,0,S_7
1777452859.991969,1952,0,S_7
1777452859.995248,1626,0,S_7
1777452859.9981718,1630,0,S_7
1777452859.9998238,2163,0,S_7
1777452860.0063481,2347,0,S_7
1777452860.0087261,2136,0,S_7
1777452860.0094678,1862,0,S_7
1777452860.0108411,1680,0,S_7
1777452860.013824,1953,0,S_7
1777452860.0213609,2385,0,S_7
1777452860.022636,2190,0,S_7
1777452860.024365,1899,0,S_7
1777452860.026648,1434,0,S_7
1777452860.029391,1608,0,S_7
1777452860.035048,2202,0,S_7
1777452860.035274,2382,0,S_7
1777452860.038183,2192,0,S_7
1777452860.04083,1905,0,S_7
1777452860.043805,1528,0,S_7
1777452860.0468109,1806,0,S_7
1777452860.049799,2356,0,S_7
1777452860.0566201,2401,0,S_7
1777452860.0579572,1925,0,S_7
1777452860.0603142,1619,0,S_7
1777452860.0676942,1716,0,S_7
1777452860.0709429,2058,0,S_7
1777452860.071299,2425,0,S_7
1777452860.0715652,2387,0,S_7
1777452860.0745752,2041,0,S_7
1777452860.077195,1928,0,S_7
1777452860.0882308,2117,0,S_7
1777452860.088578,2498,0,S_7
1777452860.088897,2313,0,S_7
1777452860.089241,2197,0,S_7
1777452860.093688,1865,0,S_7
1777452860.0964968,1713,0,S_7
1777452860.099882,2213,0,S_7
1777452860.10318,2408,0,S_7
1777452860.1036851,2338,0,S_7
1777452860.107441,2072,0,S_7
1777452860.110284,1763,0,S_7
1777452860.11285,1880,0,S_7
1777452860.1157079,2459,0,S_7
1777452860.125827,2504,0,S_7
1777452860.127954,2267,0,S_7
1777452860.128355,1961,0,S_7
1777452860.130826,1771,0,S_7
1777452860.132076,2184,0,S_7
1777452860.134531,2426,0,S_7
1777452860.137507,2331,0,S_7
1777452860.141504,2069,0,S_7
1777452860.144238,1872,0,S_7
1777452860.1457322,1972,0,S_7
1777452860.148709,2380,0,S_7
1777452860.156842,2386,0,S_7
1777452860.15815,2121,0,S_7
1777452860.159425,1946,0,S_7
1777452860.161568,1740,0,S_7
1777452860.1645591,2025,0,S_7
1777452860.169583,2399,0,S_7
1777452860.1735198,2377,0,S_7
1777452860.173883,2090,0,S_7
1777452860.177123,1772,0,S_7
1777452860.1786802,1797,0,S_7
1777452860.181673,2229,0,S_7
1777452860.184675,2429,0,S_7
1777452860.1876962,2306,0,S_7
1777452860.190683,2004,0,S_7
1777452860.197313,1712,0,S_7
1777452860.198144,1945,0,S_7
1777452860.201758,2408,0,S_7
1777452860.2064269,2449,0,S_7
1777452860.207222,2132,0,S_7
1777452860.222096,1777,0,S_7
1777452860.222164,1770,0,S_7
1777452860.2222111,2193,0,S_7
1777452860.222251,2384,0,S_7
1777452860.222293,2241,0,S_7
1777452860.2237282,1941,0,S_7
1777452860.2324219,1754,0,S_7
1777452860.233195,1974,0,S_7
1777452860.2334158,2338,0,S_7
1777452860.238956,2288,0,S_7
1777452860.2397308,2152,0,S_7
1777452860.242041,1816,0,S_7
1777452860.248047,1744,0,S_7
1777452860.2484841,2213,0,S_7
1777452860.251689,2381,0,S_7
1777452860.254304,2167,0,S_7
1777452860.256943,1961,0,S_7
1777452860.259673,1725,0,S_7
1777452860.262671,1855,0,S_7
1777452860.2656882,2328,0,S_7
1777452860.272346,2356,0,S_7
1777452860.272583,2071,0,S_7
1777452860.276875,1902,0,S_7
1777452860.279469,1668,0,S_7
1777452860.281686,2075,0,S_7
1777452860.2898529,2347,0,S_7
1777452860.290953,2274,0,S_7
1777452860.291414,2014,0,S_7
1777452860.2946181,1719,0,S_7
1777452860.296003,1821,0,S_7
1777452860.299381,2276,0,S_7
1777452860.311765,2359,0,S_7
1777452860.3121312,2175,0,S_7
1777452860.3122509,1968,0,S_7
1777452860.312563,1690,0,S_7
1777452860.317193,2019,0,S_7
1777452860.318592,2341,0,S_7
1777452860.32581,2302,0,S_7
1777452860.326068,2061,0,S_7
1777452860.326256,1718,0,S_7
1777452860.3289979,1764,0,S_7
1777452860.3317068,2150,0,S_7
1777452860.334667,2390,0,S_7
1777452860.3376708,2222,0,S_7
1777452860.340672,2011,0,S_7
1777452860.349057,1638,0,S_7
1777452860.349817,1938,0,S_7
1777452860.350543,2383,0,S_7
1777452860.3534179,2327,0,S_7
1777452860.35618,2032,0,S_7
1777452860.361965,1762,0,S_7
1777452860.362298,1743,0,S_7
1777452860.3663402,2250,0,S_7
1777452860.369098,2394,0,S_7
1777452860.370704,2201,0,S_7
1777452860.373708,1872,0,S_7
1777452860.38175,1640,0,S_7
1777452860.382344,1908,0,S_7
1777452860.3835819,2383,0,S_7
1777452860.3859499,2362,0,S_7
1777452860.388641,2052,0,S_7
1777452860.391707,1731,0,S_7
1777452860.39835,1632,0,S_7
1777452860.398515,2036,0,S_7
1777452860.4017742,2381,0,S_7
1777452860.404366,2237,0,S_7
1777452860.4069571,1962,0,S_7
1777452860.409596,1634,0,S_7
1777452860.41259,1797,0,S_7
1777452860.41579,2255,0,S_7
1777452860.4253829,2287,0,S_7
1777452860.425537,2149,0,S_7
1777452860.425691,1836,0,S_7
1777452860.42853,1585,0,S_7
1777452860.4306948,1915,0,S_7
1777452860.43375,2399,0,S_7
1777452860.437984,2338,0,S_7
1777452860.441014,2028,0,S_7
1777452860.4425778,1805,0,S_7
1777452860.4462788,1867,0,S_7
1777452860.4522638,2330,0,S_7
1777452860.452371,2245,0,S_7
1777452860.454832,2136,0,S_7
1777452860.459302,1879,0,S_7
1777452860.461589,1621,0,S_7
1777452860.465483,1811,0,S_7
1777452860.467681,2131,0,S_7
1777452860.469582,2117,0,S_7
1777452860.4725819,2059,0,S_7
1777452860.47559,1831,0,S_7
1777452860.478555,1665,0,S_7
1777452860.485502,2185,0,S_7
1777452860.486002,2351,0,S_7
1777452860.488777,2232,0,S_7
1777452860.4912431,1945,0,S_7
1777452860.4939342,1631,0,S_7
1777452860.499382,1918,0,S_7
1777452860.499613,2201,0,S_7
1777452860.502918,2274,0,S_7
1777452860.505632,2044,0,S_7
1777452860.51307,1641,0,S_7
1777452860.5135849,1608,0,S_7
1777452860.51598,2174,0,S_7
1777452860.5184221,2299,0,S_7
1777452860.520581,2119,0,S_7
1777452860.5264251,1919,0,S_7
1777452860.526757,1645,0,S_7
1777452860.530093,1817,0,S_7
1777452860.5326772,2314,0,S_7
1777452860.535556,2297,0,S_7
1777452860.538558,2071,0,S_7
1777452860.5416992,1708,0,S_7
1777452860.5478332,1639,0,S_7
1777452860.549472,2072,0,S_7
1777452860.551882,2318,0,S_7
1777452860.5540748,2286,0,S_7
1777452860.5572128,2014,0,S_7
1777452860.56278,1629,0,S_7
1777452860.562948,1835,0,S_7
1777452860.565612,2262,0,S_7
1777452860.5685608,2341,0,S_7
1777452860.576701,2180,0,S_7
1777452860.577858,1827,0,S_7
1777452860.578484,1623,0,S_7
1777452860.581627,2010,0,S_7
1777452860.584175,2261,0,S_7
1777452860.5868092,2241,0,S_7
1777452860.590608,1963,0,S_7
1777452860.593399,1647,0,S_7
1777452860.5959308,1707,0,S_7
1777452860.598581,2231,0,S_7
1777452860.601543,2275,0,S_7
1777452860.6045592,2120,0,S_7
1777452860.611049,1853,0,S_7
1777452860.612185,1636,0,S_7
1777452860.6143072,1966,0,S_7
1777452860.616891,2319,0,S_7
1777452860.621274,2303,0,S_7
1777452860.627696,2047,0,S_7
1777452860.6279948,1719,0,S_7
1777452860.628531,1715,0,S_7
1777452860.631575,2164,0,S_7
1777452860.638171,2355,0,S_7
1777452860.639188,2131,0,S_7
1777452860.642103,1906,0,S_7
1777452860.6449778,1594,0,S_7
1777452860.646794,1919,0,S_7
1777452860.6528692,2322,0,S_7
1777452860.6530728,2339,0,S_7
1777452860.6558661,2075,0,S_7
1777452860.658557,1750,0,S_7
1777452860.661581,1687,0,S_7
1777452860.664546,2069,0,S_7
1777452860.6675682,2345,0,S_7
1777452860.673911,2188,0,S_7
1777452860.674988,1913,0,S_7
1777452860.677191,1585,0,S_7
1777452860.6796958,1833,0,S_7
1777452860.683956,2347,0,S_7
1777452860.687745,2349,0,S_7
1777452860.690451,2080,0,S_7
1777452860.691766,1818,0,S_7
1777452860.6945531,1721,0,S_7
1777452860.7020001,2101,0,S_7
1777452860.704444,2350,0,S_7
1777452860.7047338,2239,0,S_7
1777452860.706798,1935,0,S_7
1777452860.709823,1638,0,S_7
1777452860.7152581,1824,0,S_7
1777452860.7156549,2277,0,S_7
1777452860.7190762,2373,0,S_7
1777452860.721474,2172,0,S_7
1777452860.724461,1809,0,S_7
1777452860.7274199,1650,0,S_7
1777452860.730452,2024,0,S_7
1777452860.736546,2331,0,S_7
1777452860.736692,2246,0,S_7
1777452860.741537,1998,0,S_7
1777452860.743878,1687,0,S_7
1777452860.746192,1763,0,S_7
1777452860.749981,2246,0,S_7
1777452860.7522812,2384,0,S_7
1777452860.754967,2179,0,S_7
1777452860.7576609,1872,0,S_7
1777452860.765197,1625,0,S_7
1777452860.766371,1977,0,S_7
1777452860.766944,2344,0,S_7
1777452860.770071,2263,0,S_7
1777452860.7736142,1972,0,S_7
1777452860.7755399,1678,0,S_7
1777452860.779218,1743,0,S_7
1777452860.7820559,2230,0,S_7
1777452860.784624,2379,0,S_7
1777452860.787456,2212,0,S_7
1777452860.7904158,1904,0,S_7
1777452860.793408,1633,0,S_7
1777452860.798667,1954,0,S_7
1777452860.80004,2346,0,S_7
1777452860.802676,2318,0,S_7
1777452860.806237,2076,0,S_7
1777452860.8092601,1707,0,S_7
1777452860.8131819,1702,0,S_7
1777452860.8159301,2122,0,S_7
1777452860.817437,2355,0,S_7
1777452860.820436,2199,0,S_7
1777452860.826277,1934,0,S_7
1777452860.8273861,1624,0,S_7
1777452860.8297222,1835,0,S_7
1777452860.83317,2337,0,S_7
1777452860.836711,2344,0,S_7
1777452860.840447,2087,0,S_7
1777452860.8432908,1812,0,S_7
1777452860.8446028,1712,0,S_7
1777452860.847446,2121,0,S_7
1777452860.85045,2331,0,S_7
1777452860.853416,2263,0,S_7
1777452860.86115,1926,0,S_7
1777452860.862643,1650,0,S_7
1777452860.864395,1811,0,S_7
1777452860.8668869,2273,0,S_7
1777452860.8686059,2307,0,S_7
1777452860.874845,2097,0,S_7
1777452860.8749802,1850,0,S_7
1777452860.877889,1620,0,S_7
1777452860.8804622,2013,0,S_7
1777452860.883453,2332,0,S_7
1777452860.89006,2324,0,S_7
1777452860.890571,2024,0,S_7
1777452860.89424,1625,0,S_7
1777452860.896344,1757,0,S_7
1777452860.899008,2256,0,S_7
1777452860.90293,2388,0,S_7
1777452860.905201,2184,0,S_7
1777452860.907778,1871,0,S_7
1777452860.9104462,1664,0,S_7
1777452860.9134521,1952,0,S_7
1777452860.916414,2331,0,S_7
1777452860.924382,2313,0,S_7
1777452860.92543,2017,0,S_7
1777452860.927114,1618,0,S_7
1777452860.929686,1730,0,S_7
1777452860.931909,2213,0,S_7
1777452860.937928,2312,0,S_7
1777452860.938378,2174,0,S_7
1777452860.940947,1861,0,S_7
1777452860.943527,1618,0,S_7
1777452860.9466188,1930,0,S_7
1777452860.9518101,2319,0,S_7
1777452860.9523358,2350,0,S_7
1777452860.957566,2078,0,S_7
1777452860.959084,1738,0,S_7
1777452860.962045,1696,0,S_7
1777452860.965795,2151,0,S_7
1777452860.968162,2359,0,S_7
1777452860.97032,2258,0,S_7
1777452860.973311,1972,0,S_7
1777452860.9763021,1633,0,S_7
1777452860.979321,1872,0,S_7
1777452860.987608,2317,0,S_7
1777452860.989158,2335,0,S_7
1777452860.990721,2121,0,S_7
1777452860.993016,1827,0,S_7
1777452860.994762,1672,0,S_7
1777452860.997932,2099,0,S_7
1777452861.0017128,2360,0,S_7
1777452861.00444,2337,0,S_7
1777452861.006297,2026,0,S_7
1777452861.009303,1566,0,S_7
1777452861.014715,1928,0,S_7
1777452861.015368,2402,0,S_7
1777452861.0201359,2462,0,S_7
1777452861.022422,2043,0,S_7
1777452861.024964,1845,0,S_7
1777452861.0286899,1744,0,S_7
1777452861.030914,2409,0,S_7
1777452861.03349,2189,0,S_7
1777452861.036321,2133,0,S_7
1777452861.0393221,2031,0,S_7
1777452861.042295,1908,0,S_7
1777452861.049249,1757,0,S_7
1777452861.050303,2293,0,S_7
1777452861.052783,2325,0,S_7
1777452861.054789,2216,0,S_7
1777452861.059596,2034,0,S_7
1777452861.063045,1809,0,S_7
1777452861.0633678,2138,0,S_7
1777452861.0665731,2440,0,S_7
1777452861.0693069,2323,0,S_7
1777452861.076019,2234,0,S_7
1777452861.0775812,1868,0,S_7
1777452861.079206,1784,0,S_7
1777452861.082001,2151,0,S_7
1777452861.0896919,2473,0,S_7
1777452861.0899231,2466,0,S_7
1777452861.090409,2027,0,S_7
1777452861.094003,1653,0,S_7
1777452861.0966358,2049,0,S_7
1777452861.0992808,2505,0,S_7
1777452861.102303,2477,0,S_7
1777452861.105292,1992,0,S_7
1777452861.1082811,1918,0,S_7
1777452861.114763,1767,0,S_7
1777452861.115523,2238,0,S_7
1777452861.1182232,2458,0,S_7
1777452861.1210299,2385,0,S_7
1777452861.12355,2056,0,S_7
1777452861.129718,1787,0,S_7
1777452861.129948,2014,0,S_7
1777452861.132865,2500,0,S_7
1777452861.135442,2372,0,S_7
1777452861.14431,2352,0,S_7
1777452861.145303,1974,0,S_7
1777452861.14698,1764,0,S_7
1777452861.147351,2347,0,S_7
1777452861.151063,2632,0,S_7
1777452861.154169,2481,0,S_7
1777452861.15819,2147,0,S_7
1777452861.161084,1885,0,S_7
1777452861.162394,2174,0,S_7
1777452861.1651762,2393,0,S_7
1777452861.168203,2330,0,S_7
1777452861.1711628,2164,0,S_7
1777452861.179348,2124,0,S_7
1777452861.179507,1931,0,S_7
1777452861.185544,2287,0,S_7
1777452861.186711,2586,0,S_7
1777452861.187886,2592,0,S_7
1777452861.195039,2182,0,S_7
1777452861.195254,1987,0,S_7
1777452861.1956108,2056,0,S_7
1777452861.198379,2492,0,S_7
1777452861.20126,2544,0,S_7
1777452861.2093282,2624,0,S_7
1777452861.210452,2073,0,S_7
1777452861.2105632,1818,0,S_7
1777452861.21473,2378,0,S_7
1777452861.216929,2946,0,S_7
1777452861.223225,2891,0,S_7
1777452861.223437,2864,0,S_7
1777452861.2261262,2671,0,S_7
1777452861.228704,2797,0,S_7
1777452861.231272,3449,0,S_7
1777452861.2341828,3686,0,S_7
1777452861.237165,3543,0,S_7
1777452861.243955,3578,0,S_7
1777452861.2454,3374,0,S_7
1777452861.247466,3482,0,S_7
1777452861.2500741,3946,0,S_7
1777452861.2544441,3968,0,S_7
1777452861.2581089,3658,0,S_7
1777452861.258482,3471,0,S_7
1777452861.261185,3399,0,S_7
1777452861.264158,3532,0,S_7
1777452861.2717052,3764,0,S_7
1777452861.272804,3709,0,S_7
1777452861.274822,3387,0,S_7
1777452861.276892,2910,0,S_7
1777452861.279517,3390,0,S_7
1777452861.285307,3327,0,S_7
1777452861.2855282,3192,0,S_7
1777452861.288193,3028,0,S_7
1777452861.291174,2776,0,S_7
1777452861.294173,2607,0,S_7
1777452861.297169,2776,0,S_7
1777452861.3001652,2689,0,S_7
1777452861.306518,2973,0,S_7
1777452861.307101,2461,0,S_7
1777452861.309532,2214,0,S_7
1777452861.3133361,2294,0,S_7
1777452861.3166158,2488,0,S_7
1777452861.320431,2662,0,S_7
1777452861.3233721,2487,0,S_7
1777452861.324679,1828,0,S_7
1777452861.3272471,1978,0,S_7
1777452861.332737,2246,0,S_7
1777452861.3340318,2506,0,S_7
1777452861.337184,2289,0,S_7
1777452861.339969,1878,0,S_7
1777452861.3446012,2030,0,S_7
1777452861.3469849,1810,0,S_7
1777452861.3482969,2155,0,S_7
1777452861.3512,2271,0,S_7
1777452861.354183,2114,0,S_7
1777452861.357161,2024,0,S_7
1777452861.362179,1712,0,S_7
1777452861.365023,2187,0,S_7
1777452861.3673549,2326,0,S_7
1777452861.369329,2296,0,S_7
1777452861.374523,1936,0,S_7
1777452861.376535,1791,0,S_7
1777452861.3781602,1709,0,S_7
1777452861.381155,2008,0,S_7
1777452861.385807,2083,0,S_7
1777452861.3890061,1911,0,S_7
1777452861.3911319,2003,0,S_7
1777452861.393148,1498,0,S_7
1777452861.39815,1797,0,S_7
1777452861.400712,2088,0,S_7
1777452861.402112,2230,0,S_7
1777452861.405025,1944,0,S_7
1777452861.408027,1264,0,S_7
1777452861.411042,1572,0,S_7
1777452861.41774,2008,0,S_7
1777452861.4180439,1877,0,S_7
1777452861.420513,2179,0,S_7
1777452861.423764,1714,0,S_7
1777452861.426986,1174,0,S_7
1777452861.430391,1407,0,S_7
1777452861.432585,2093,0,S_7
1777452861.435473,1900,0,S_7
1777452861.4383738,1872,0,S_7
1777452861.444698,1534,0,S_7
1777452861.4453278,1473,0,S_7
1777452861.4471521,1828,0,S_7
1777452861.4577541,1950,0,S_7
1777452861.4583309,1901,0,S_7
1777452861.458668,1873,0,S_7
1777452861.4591281,1472,0,S_7
1777452861.4623208,1680,0,S_7
1777452861.4650471,1773,0,S_7
1777452861.468042,2002,0,S_7
1777452861.471051,1896,0,S_7
1777452861.480028,1658,0,S_7
1777452861.480694,1389,0,S_7
1777452861.482877,1881,0,S_7
1777452861.483263,2183,0,S_7
1777452861.487989,1845,0,S_7
1777452861.490595,1649,0,S_7
1777452861.494483,1684,0,S_7
1777452861.495123,1580,0,S_7
1777452861.498374,2123,0,S_7
1777452861.501075,1934,0,S_7
1777452861.508595,1980,0,S_7
1777452861.5087712,1743,0,S_7
1777452861.514679,1585,0,S_7
1777452861.514805,1738,0,S_7
1777452861.51727,2034,0,S_7
1777452861.519118,2112,0,S_7
1777452861.523147,1921,0,S_7
1777452861.525942,1678,0,S_7
1777452861.5286531,1573,0,S_7
1777452861.531234,2145,0,S_7
1777452861.534055,2173,0,S_7
1777452861.537046,2054,0,S_7
1777452861.5473979,1776,0,S_7
1777452861.547713,1640,0,S_7
1777452861.5480058,2041,0,S_7
1777452861.550619,2093,0,S_7
1777452861.5554152,2102,0,S_7
1777452861.5556061,1819,0,S_7
1777452861.559385,1674,0,S_7
1777452861.5622652,1591,0,S_7
1777452861.5640252,2014,0,S_7
1777452861.5670269,2023,0,S_7
1777452861.574301,2051,0,S_7
1777452861.5756118,1854,0,S_7
1777452861.577638,1579,0,S_7
1777452861.580999,1810,0,S_7
1777452861.589671,2211,0,S_7
1777452861.58984,2223,0,S_7
1777452861.5899808,1994,0,S_7
1777452861.593278,1732,0,S_7
1777452861.594665,1639,0,S_7
1777452861.5972722,1992,0,S_7
1777452861.6000378,2323,0,S_7
1777452861.6030238,2182,0,S_7
1777452861.606029,2046,0,S_7
1777452861.612751,1731,0,S_7
1777452861.612969,1701,0,S_7
1777452861.6169128,2109,0,S_7
1777452861.620117,2140,0,S_7
1777452861.623449,1984,0,S_7
1777452861.6255732,1922,0,S_7
1777452861.629858,1695,0,S_7
1777452861.630095,2022,0,S_7
1777452861.633548,2297,0,S_7
1777452861.636296,2161,0,S_7
1777452861.6391602,2037,0,S_7
1777452861.646631,1906,0,S_7
1777452861.6468532,1748,0,S_7
1777452861.650346,2058,0,S_7
1777452861.6528509,2192,0,S_7
1777452861.654907,2008,0,S_7
1777452861.658581,1794,0,S_7
1777452861.662978,1537,0,S_7
1777452861.663269,1929,0,S_7
1777452861.66673,2373,0,S_7
1777452861.6693702,2152,0,S_7
1777452861.67204,2073,0,S_7
1777452861.674906,1612,0,S_7
1777452861.677906,1529,0,S_7
1777452861.680968,1968,0,S_7
1777452861.68846,2232,0,S_7
1777452861.689169,2235,0,S_7
1777452861.692126,1520,0,S_7
1777452861.694227,1459,0,S_7
1777452861.697073,1684,0,S_7
1777452861.700792,2323,0,S_7
1777452861.705178,2310,0,S_7
1777452861.705465,1959,0,S_7
1777452861.70864,1699,0,S_7
1777452861.711301,1683,0,S_7
1777452861.713954,2155,0,S_7
1777452861.722518,2330,0,S_7
1777452861.723178,2232,0,S_7
1777452861.723882,1952,0,S_7
1777452861.727979,1791,0,S_7
1777452861.734379,2039,0,S_7
1777452861.73889,2310,0,S_7
1777452861.739485,2358,0,S_7
1777452861.7398489,2144,0,S_7
1777452861.742591,1949,0,S_7
1777452861.743925,1757,0,S_7
1777452861.746932,2010,0,S_7
1777452861.7499342,2290,0,S_7
1777452861.752932,2244,0,S_7
1777452861.7559218,2020,0,S_7
1777452861.763675,1792,0,S_7
1777452861.7649431,1983,0,S_7
1777452861.765661,2373,0,S_7
1777452861.768446,2332,0,S_7
1777452861.772958,2204,0,S_7
1777452861.77679,1947,0,S_7
1777452861.776932,1742,0,S_7
1777452861.781121,2017,0,S_7
1777452861.7842932,2320,0,S_7
1777452861.785921,2277,0,S_7
1777452861.7889311,2061,0,S_7
1777452861.795624,1927,0,S_7
1777452861.796284,1895,0,S_7
1777452861.798356,2210,0,S_7
1777452861.80301,2389,0,S_7
1777452861.8056362,2235,0,S_7
1777452861.808218,1964,0,S_7
1777452861.812478,1765,0,S_7
1777452861.813015,1989,0,S_7
1777452861.815945,2291,0,S_7
1777452861.818903,2344,0,S_7
1777452861.8219242,2128,0,S_7
1777452861.824938,1960,0,S_7
1777452861.827914,1781,0,S_7
1777452861.836166,2109,0,S_7
1777452861.8367748,2351,0,S_7
1777452861.8374112,2190,0,S_7
1777452861.839936,1896,0,S_7
1777452861.84465,1739,0,S_7
1777452861.84776,1992,0,S_7
1777452861.85202,2172,0,S_7
1777452861.852195,2267,0,S_7
1777452861.855457,2024,0,S_7
1777452861.858047,1866,0,S_7
1777452861.860914,1672,0,S_7
1777452861.866907,2134,0,S_7
1777452861.867438,2250,0,S_7
1777452861.871665,2177,0,S_7
1777452861.873867,1927,0,S_7
1777452861.876461,1739,0,S_7
1777452861.880085,1941,0,S_7
1777452861.8823838,2239,0,S_7
1777452861.8849652,2316,0,S_7
1777452861.887818,2066,0,S_7
1777452861.8907762,1826,0,S_7
1777452861.893783,1790,0,S_7
1777452861.899754,2087,0,S_7
1777452861.900363,2299,0,S_7
1777452861.90282,2221,0,S_7
1777452861.9067972,2043,0,S_7
1777452861.9094331,1758,0,S_7
1777452861.913019,1862,0,S_7
1777452861.915644,2245,0,S_7
1777452861.9182138,2358,0,S_7
1777452861.92081,2100,0,S_7
1777452861.926534,1782,0,S_7
1777452861.92714,1726,0,S_7
1777452861.931496,2004,0,S_7
1777452861.9329212,2277,0,S_7
1777452861.9397068,2219,0,S_7
1777452861.939978,1992,0,S_7
1777452861.942577,1751,0,S_7
1777452861.945146,1803,0,S_7
1777452861.947813,2203,0,S_7
1777452861.950809,2239,0,S_7
1777452861.9537852,2141,0,S_7
1777452861.959896,1870,0,S_7
1777452861.960433,1693,0,S_7
1777452861.964225,1912,0,S_7
1777452861.966959,2263,0,S_7
1777452861.971821,2157,0,S_7
1777452861.972439,2020,0,S_7
1777452861.975094,1779,0,S_7
1777452861.9777899,1774,0,S_7
1777452861.980801,2124,0,S_7
1777452861.990274,2278,0,S_7
1777452861.990578,2165,0,S_7
1777452861.99079,1867,0,S_7
1777452861.993333,1672,0,S_7
1777452861.997833,1854,0,S_7
1777452862.001484,2200,0,S_7
1777452862.001844,2222,0,S_7
1777452862.0051908,2142,0,S_7
1777452862.0077991,1831,0,S_7
1777452862.0107892,1619,0,S_7
1777452862.013794,2041,0,S_7
1777452862.0168772,2308,0,S_7
1777452862.021991,2285,0,S_7
1777452862.024866,1957,0,S_7
1777452862.027096,1668,0,S_7
1777452862.029006,1921,0,S_7
1777452862.034534,2162,0,S_7
1777452862.034772,2265,0,S_7
1777452862.038046,1981,0,S_7
1777452862.040811,1781,0,S_7
1777452862.048589,1669,0,S_7
1777452862.049113,1983,0,S_7
1777452862.053281,2217,0,S_7
1777452862.054799,2220,0,S_7
1777452862.058451,2020,0,S_7
1777452862.0621812,1645,0,S_7
1777452862.062314,1872,0,S_7
1777452862.065048,2193,0,S_7
1777452862.06784,2351,0,S_7
1777452862.0708008,2069,0,S_7
1777452862.07377,1767,0,S_7
1777452862.076836,1683,0,S_7
1777452862.081836,2000,0,S_7
1777452862.084629,2185,0,S_7
1777452862.086624,2163,0,S_7
1777452862.08927,2018,0,S_7
1777452862.09507,1714,0,S_7
1777452862.095358,1728,0,S_7
1777452862.0983129,2159,0,S_7
1777452862.100922,2222,0,S_7
1777452862.10377,2002,0,S_7
1777452862.10875,1855,0,S_7
1777452862.1121652,1684,0,S_7
1777452862.114797,1891,0,S_7
1777452862.116449,2239,0,S_7
1777452862.118825,2186,0,S_7
1777452862.121944,2014,0,S_7
1777452862.125136,1652,0,S_7
1777452862.1277702,1769,0,S_7
1777452862.13078,2156,0,S_7
1777452862.133785,2208,0,S_7
1777452862.140903,2169,0,S_7
1777452862.1411042,1996,0,S_7
1777452862.144301,1657,0,S_7
1777452862.146903,1838,0,S_7
1777452862.1490078,2282,0,S_7
1777452862.157814,2308,0,S_7
1777452862.157891,1994,0,S_7
1777452862.157942,1652,0,S_7
1777452862.163028,1598,0,S_7
1777452862.195693,2032,0,S_7
1777452862.196109,2263,0,S_7
1777452862.201211,2152,0,S_7
1777452862.209526,1923,0,S_7
1777452862.209713,1629,0,S_7
1777452862.2165818,1834,0,S_7
1777452862.216866,2301,0,S_7
1777452862.217268,2339,0,S_7
1777452862.2175932,2096,0,S_7
1777452862.21793,1759,0,S_7
1777452862.218227,1729,0,S_7
1777452862.2186072,2004,0,S_7
1777452862.218837,2342,0,S_7
1777452862.2217479,2275,0,S_7
1777452862.221856,1899,0,S_7
1777452862.2219741,1598,0,S_7
1777452862.22206,1743,0,S_7
1777452862.222175,2284,0,S_7
1777452862.222255,2335,0,S_7
1777452862.22233,2164,0,S_7
1777452862.223646,1769,0,S_7
1777452862.2266738,1706,0,S_7
1777452862.233058,2074,0,S_7
1777452862.234503,2306,0,S_7
1777452862.236217,2308,0,S_7
1777452862.240427,2037,0,S_7
1777452862.243176,1731,0,S_7
1777452862.2467752,1779,0,S_7
1777452862.249441,2209,0,S_7
1777452862.250776,2278,0,S_7
1777452862.253667,2117,0,S_7
1777452862.2566478,1856,0,S_7
1777452862.259626,1651,0,S_7
1777452862.2678242,1979,0,S_7
1777452862.268833,2255,0,S_7
1777452862.27096,2283,0,S_7
1777452862.2735932,2044,0,S_7
1777452862.275367,1693,0,S_7
1777452862.278025,1774,0,S_7
1777452862.281555,2263,0,S_7
1777452862.283793,2285,0,S_7
1777452862.286635,2183,0,S_7
1777452862.28978,1887,0,S_7
1777452862.294477,1678,0,S_7
1777452862.298333,1952,0,S_7
1777452862.300274,2249,0,S_7
1777452862.3024561,2305,0,S_7
1777452862.3050308,2126,0,S_7
1777452862.308556,1822,0,S_7
1777452862.311178,1689,0,S_7
1777452862.313747,2122,0,S_7
1777452862.316642,2347,0,S_7
1777452862.319675,2220,0,S_7
1777452862.322655,1904,0,S_7
1777452862.3284118,1720,0,S_7
1777452862.329042,1919,0,S_7
1777452862.3321338,2406,0,S_7
1777452862.3357592,2380,0,S_7
1777452862.338776,2144,0,S_7
1777452862.342348,1846,0,S_7
1777452862.345324,1748,0,S_7
1777452862.3466392,2053,0,S_7
1777452862.349636,2372,0,S_7
1777452862.355577,2300,0,S_7
1777452862.356873,1924,0,S_7
1777452862.361182,1608,0,S_7
1777452862.36222,1817,0,S_7
1777452862.369969,2260,0,S_7
1777452862.370261,2344,0,S_7
1777452862.370691,2135,0,S_7
1777452862.3739278,1858,0,S_7
1777452862.3766458,1657,0,S_7
1777452862.3796868,2011,0,S_7
1777452862.382667,2304,0,S_7
1777452862.390837,2222,0,S_7
1777452862.390932,2017,0,S_7
1777452862.3936589,1753,0,S_7
1777452862.396489,1802,0,S_7
1777452862.398818,2213,0,S_7
1777452862.4046872,2257,0,S_7
1777452862.4047942,2142,0,S_7
1777452862.4076958,1912,0,S_7
1777452862.410209,1662,0,S_7
1777452862.4128451,1951,0,S_7
1777452862.419271,2302,0,S_7
1777452862.420268,2231,0,S_7
1777452862.42197,2009,0,S_7
1777452862.424814,1664,0,S_7
1777452862.4290528,1685,0,S_7
1777452862.4335098,2160,0,S_7
1777452862.433898,2316,0,S_7
1777452862.4367528,2120,0,S_7
1777452862.439678,1869,0,S_7
1777452862.442681,1602,0,S_7
1777452862.4456499,1859,0,S_7
1777452862.4487832,2315,0,S_7
1777452862.4550028,2255,0,S_7
1777452862.455148,2002,0,S_7
1777452862.459152,1672,0,S_7
1777452862.460897,1658,0,S_7
1777452862.464235,2087,0,S_7
1777452862.4677691,2278,0,S_7
1777452862.470989,2154,0,S_7
1777452862.472508,1830,0,S_7
1777452862.4758132,1575,0,S_7
1777452862.482836,1785,0,S_7
1777452862.483458,2223,0,S_7
1777452862.485518,2222,0,S_7
1777452862.4883142,1999,0,S_7
1777452862.492876,1703,0,S_7
1777452862.498662,1572,0,S_7
1777452862.499393,1971,0,S_7
1777452862.499543,2231,0,S_7
1777452862.503298,2181,0,S_7
1777452862.505874,1836,0,S_7
1777452862.5085351,1564,0,S_7
1777452862.516512,1696,0,S_7
1777452862.516639,2173,0,S_7
1777452862.5199091,2231,0,S_7
1777452862.5225012,2036,0,S_7
1777452862.5246751,1783,0,S_7
1777452862.530286,1568,0,S_7
1777452862.530568,1945,0,S_7
1777452862.5329301,2229,0,S_7
1777452862.535527,2182,0,S_7
1777452862.538559,1878,0,S_7
1777452862.544163,1622,0,S_7
1777452862.545244,1696,0,S_7
1777452862.5477388,2156,0,S_7
1777452862.551031,2223,0,S_7
1777452862.557776,2047,0,S_7
1777452862.55791,1811,0,S_7
1777452862.56063,1605,0,S_7
1777452862.5634391,1872,0,S_7
1777452862.566126,2236,0,S_7
1777452862.5687869,2251,0,S_7
1777452862.571569,2013,0,S_7
1777452862.578729,1672,0,S_7
1777452862.578947,1682,0,S_7
1777452862.582552,2135,0,S_7
1777452862.585406,2262,0,S_7
1777452862.587716,2111,0,S_7
1777452862.5939388,1887,0,S_7
1777452862.594337,1576,0,S_7
1777452862.597027,1782,0,S_7
1777452862.59852,2208,0,S_7
1777452862.601514,2228,0,S_7
1777452862.609042,2018,0,S_7
1777452862.610265,1715,0,S_7
1777452862.612107,1643,0,S_7
1777452862.615926,2062,0,S_7
1777452862.617038,2266,0,S_7
1777452862.6198232,2182,0,S_7
1777452862.623451,1947,0,S_7
1777452862.626306,1584,0,S_7
1777452862.6290061,1836,0,S_7
1777452862.6316679,2274,0,S_7
1777452862.634523,2266,0,S_7
1777452862.637517,2027,0,S_7
1777452862.644623,1736,0,S_7
1777452862.646366,1671,0,S_7
1777452862.648282,2056,0,S_7
1777452862.6515992,2272,0,S_7
1777452862.653239,2152,0,S_7
1777452862.65621,1896,0,S_7
1777452862.660201,1598,0,S_7
1777452862.663739,1787,0,S_7
1777452862.665138,2252,0,S_7
1777452862.6677618,2256,0,S_7
1777452862.674921,2049,0,S_7
1777452862.675561,1837,0,S_7
1777452862.678153,1670,0,S_7
1777452862.6812181,2013,0,S_7
1777452862.682753,2338,0,S_7
1777452862.688779,2223,0,S_7
1777452862.6889641,1954,0,S_7
1777452862.6919281,1714,0,S_7
1777452862.694605,1716,0,S_7
1777452862.69757,2201,0,S_7
1777452862.700516,2270,0,S_7
1777452862.703543,2097,0,S_7
1777452862.710809,1866,0,S_7
1777452862.711466,1643,0,S_7
1777452862.714072,1944,0,S_7
1777452862.716481,2315,0,S_7
1777452862.718645,2222,0,S_7
1777452862.724326,2021,0,S_7
1777452862.7248378,1767,0,S_7
1777452862.7275531,1717,0,S_7
1777452862.730528,2218,0,S_7
1777452862.737896,2317,0,S_7
1777452862.739466,2170,0,S_7
1777452862.740159,1870,0,S_7
1777452862.7445362,1653,0,S_7
1777452862.7462468,1904,0,S_7
1777452862.748849,2322,0,S_7
1777452862.752322,2317,0,S_7
1777452862.754859,2077,0,S_7
1777452862.757526,1790,0,S_7
1777452862.7605271,1740,0,S_7
1777452862.7635179,2198,0,S_7
1777452862.766519,2383,0,S_7
1777452862.775028,2182,0,S_7
1777452862.776808,1936,0,S_7
1777452862.777078,1659,0,S_7
1777452862.779652,1925,0,S_7
1777452862.784416,2327,0,S_7
1777452862.7845771,2341,0,S_7
1777452862.788566,2126,0,S_7
1777452862.791541,1846,0,S_7
1777452862.794253,1700,0,S_7
1777452862.796864,2063,0,S_7
1777452862.803308,2334,0,S_7
1777452862.8034618,2254,0,S_7
1777452862.80668,2019,0,S_7
1777452862.8094468,1628,0,S_7
1777452862.811811,1918,0,S_7
1777452862.817641,2294,0,S_7
1777452862.817942,2295,0,S_7
1777452862.820579,2187,0,S_7
1777452862.823512,1877,0,S_7
1777452862.826516,1708,0,S_7
1777452862.829379,2215,0,S_7
1777452862.838809,2450,0,S_7
1777452862.83894,2355,0,S_7
1777452862.8395362,2007,0,S_7
1777452862.8423522,1703,0,S_7
1777452862.846476,1840,0,S_7
1777452862.849092,2311,0,S_7
1777452862.85247,2345,0,S_7
1777452862.8554182,2345,0,S_7
1777452862.856721,1825,0,S_7
1777452862.859374,1710,0,S_7
1777452862.8654988,2068,0,S_7
1777452862.866128,2483,0,S_7
1777452862.869067,2492,0,S_7
1777452862.872531,2215,0,S_7
1777452862.8747032,1970,0,S_7
1777452862.8774452,1689,0,S_7
1777452862.8813372,2452,0,S_7
1777452862.884795,2322,0,S_7
1777452862.886417,2182,0,S_7
1777452862.889387,2180,0,S_7
1777452862.892937,1770,0,S_7
1777452862.895969,1925,0,S_7
1777452862.9023669,2366,0,S_7
1777452862.9032068,2232,0,S_7
1777452862.908651,2155,0,S_7
1777452862.909458,1898,0,S_7
1777452862.918466,1795,0,S_7
1777452862.918881,2238,0,S_7
1777452862.9193332,2404,0,S_7
1777452862.91957,2427,0,S_7
1777452862.92315,1924,0,S_7
1777452862.925814,1755,0,S_7
1777452862.934598,2072,0,S_7
1777452862.935873,2404,0,S_7
1777452862.937709,2402,0,S_7
1777452862.9382179,2123,0,S_7
1777452862.941819,1934,0,S_7
1777452862.9452748,1938,0,S_7
1777452862.9492679,2303,0,S_7
1777452862.949547,2316,0,S_7
1777452862.952924,2278,0,S_7
1777452862.955565,2145,0,S_7
1777452862.958372,1792,0,S_7
1777452862.961375,1947,0,S_7
1777452862.9643798,2333,0,S_7
1777452862.97226,2394,0,S_7
1777452862.976362,2214,0,S_7
1777452862.976844,2150,0,S_7
1777452862.977249,1757,0,S_7
1777452862.98041,2065,0,S_7
1777452862.983511,2503,0,S_7
1777452862.986358,2309,0,S_7
1777452862.990624,2134,0,S_7
1777452862.993879,1672,0,S_7
1777452862.994394,1914,0,S_7
1777452862.997387,2406,0,S_7
1777452863.006669,2426,0,S_7
1777452863.0075278,2196,0,S_7
1777452863.0088162,2023,0,S_7
1777452863.0109298,1775,0,S_7
1777452863.0141609,2251,0,S_7
1777452863.0158489,2472,0,S_7
1777452863.019726,2311,0,S_7
1777452863.024235,2109,0,S_7
1777452863.024687,1895,0,S_7
1777452863.027766,1956,0,S_7
1777452863.030475,2212,0,S_7
1777452863.0334852,2455,0,S_7
1777452863.03642,2335,0,S_7
1777452863.039951,1916,0,S_7
1777452863.049408,1765,0,S_7
1777452863.051527,2061,0,S_7
1777452863.0536032,2442,0,S_7
1777452863.054098,2534,0,S_7
1777452863.056593,2316,0,S_7
1777452863.059774,1906,0,S_7
1777452863.0607,1890,0,S_7
1777452863.067688,2261,0,S_7
1777452863.067931,2361,0,S_7
1777452863.0715678,2349,0,S_7
1777452863.072952,2119,0,S_7
1777452863.0756018,1777,0,S_7
1777452863.0856361,2140,0,S_7
1777452863.0864792,2354,0,S_7
1777452863.0908182,2532,0,S_7
1777452863.091607,2215,0,S_7
1777452863.092463,1788,0,S_7
1777452863.095402,1826,0,S_7
1777452863.1023622,2295,0,S_7
1777452863.1027331,2323,0,S_7
1777452863.103143,2280,0,S_7
1777452863.1067038,2019,0,S_7
1777452863.108377,1846,0,S_7
1777452863.111361,1828,0,S_7
1777452863.1143758,2281,0,S_7
1777452863.1173692,2369,0,S_7
1777452863.1203892,2249,0,S_7
1777452863.128928,1827,0,S_7
1777452863.129739,1701,0,S_7
1777452863.132427,1934,0,S_7
1777452863.1326861,2280,0,S_7
1777452863.135925,2362,0,S_7
1777452863.1448991,2171,0,S_7
1777452863.145353,1823,0,S_7
1777452863.145754,1890,0,S_7
1777452863.148155,2218,0,S_7
1777452863.1507719,2278,0,S_7
1777452863.153404,2116,0,S_7
1777452863.16138,1778,0,S_7
1777452863.162134,1631,0,S_7
1777452863.1633291,2185,0,S_7
1777452863.1654148,2310,0,S_7
1777452863.168865,2255,0,S_7
1777452863.177678,2214,0,S_7
1777452863.177959,1761,0,S_7
1777452863.1783779,1911,0,S_7
1777452863.180834,2534,0,S_7
1777452863.18355,2286,0,S_7
1777452863.186263,2040,0,S_7
1777452863.190091,1940,0,S_7
1777452863.1926951,1837,0,S_7
1777452863.202036,1767,0,S_7
1777452863.202805,2197,0,S_7
1777452863.204128,2475,0,S_7
1777452863.206261,1988,0,S_7
1777452863.208419,1784,0,S_7
1777452863.210721,1485,0,S_7
1777452863.219294,1923,0,S_7
1777452863.219706,2428,0,S_7
1777452863.220004,2092,0,S_7
1777452863.222975,1819,0,S_7
1777452863.225655,1512,0,S_7
1777452863.22831,2007,0,S_7
1777452863.236585,2402,0,S_7
1777452863.236833,2224,0,S_7
1777452863.238121,2087,0,S_7
1777452863.2403579,1682,0,S_7
1777452863.2443259,1759,0,S_7
1777452863.252504,2151,0,S_7
1777452863.253102,2203,0,S_7
1777452863.253393,2105,0,S_7
1777452863.256882,1802,0,S_7
1777452863.258236,1824,0,S_7
1777452863.261247,1805,0,S_7
1777452863.264267,2140,0,S_7
1777452863.267242,2125,0,S_7
1777452863.270238,2010,0,S_7
1777452863.27756,1778,0,S_7
1777452863.277787,1631,0,S_7
1777452863.282045,1841,0,S_7
1777452863.285547,2362,0,S_7
1777452863.286908,2029,0,S_7
1777452863.291362,1871,0,S_7
1777452863.295597,1721,0,S_7
1777452863.296415,1506,0,S_7
1777452863.299969,2311,0,S_7
1777452863.3002481,2222,0,S_7
1777452863.303249,1864,0,S_7
1777452863.3062909,1703,0,S_7
1777452863.313884,1558,0,S_7
1777452863.315079,1730,0,S_7
1777452863.316979,2277,0,S_7
1777452863.319401,2249,0,S_7
1777452863.321968,1994,0,S_7
1777452863.326398,1746,0,S_7
1777452863.330534,1632,0,S_7
1777452863.330775,2245,0,S_7
1777452863.333538,2229,0,S_7
1777452863.336307,2097,0,S_7
1777452863.3392398,1993,0,S_7
1777452863.342242,1788,0,S_7
1777452863.345239,1722,0,S_7
1777452863.348269,2202,0,S_7
1777452863.354135,2250,0,S_7
1777452863.355455,2096,0,S_7
1777452863.358607,1824,0,S_7
1777452863.360932,1581,0,S_7
1777452863.364831,2277,0,S_7
1777452863.371531,2450,0,S_7
1777452863.371737,2233,0,S_7
1777452863.372305,1970,0,S_7
1777452863.375392,1669,0,S_7
1777452863.3782442,2038,0,S_7
1777452863.3812459,2352,0,S_7
1777452863.386664,2396,0,S_7
1777452863.387275,2152,0,S_7
1777452863.390966,1866,0,S_7
1777452863.394542,1800,0,S_7
1777452863.3967109,2202,0,S_7
1777452863.3994792,2517,0,S_7
1777452863.4034739,2322,0,S_7
1777452863.4061089,2035,0,S_7
1777452863.4085472,1824,0,S_7
1777452863.411124,2032,0,S_7
1777452863.414134,2437,0,S_7
1777452863.417156,2494,0,S_7
1777452863.42014,2234,0,S_7
1777452863.426005,1858,0,S_7
1777452863.426593,1724,0,S_7
1777452863.429999,2082,0,S_7
1777452863.43238,2410,0,S_7
1777452863.435758,2409,0,S_7
1777452863.441696,2088,0,S_7
1777452863.441856,1754,0,S_7
1777452863.445157,1853,0,S_7
1777452863.447752,2257,0,S_7
1777452863.45033,2379,0,S_7
1777452863.456797,2307,0,S_7
1777452863.456974,2004,0,S_7
1777452863.460673,1779,0,S_7
1777452863.463509,2070,0,S_7
1777452863.476144,2425,0,S_7
1777452863.476463,2389,0,S_7
1777452863.4765801,2199,0,S_7
1777452863.476623,1932,0,S_7
1777452863.477134,1995,0,S_7
1777452863.480135,2278,0,S_7
1777452863.4831302,2393,0,S_7
1777452863.4861429,2222,0,S_7
1777452863.489158,1981,0,S_7
1777452863.4962618,1732,0,S_7
1777452863.496834,1982,0,S_7
1777452863.498191,2253,0,S_7
1777452863.5028841,2329,0,S_7
1777452863.5048351,2074,0,S_7
1777452863.507953,1888,0,S_7
1777452863.512047,1759,0,S_7
1777452863.515074,2081,0,S_7
1777452863.5163908,2396,0,S_7
1777452863.519117,2256,0,S_7
1777452863.527207,1897,0,S_7
1777452863.5278778,1669,0,S_7
1777452863.5284579,2093,0,S_7
1777452863.532945,2182,0,S_7
1777452863.535218,2142,0,S_7
1777452863.539159,2365,0,S_7
1777452863.5433621,1717,0,S_7
1777452863.543704,1599,0,S_7
1777452863.5474188,2142,0,S_7
1777452863.549124,2411,0,S_7
1777452863.552112,2275,0,S_7
1777452863.555126,1984,0,S_7
1777452863.558125,1664,0,S_7
1777452863.561126,1882,0,S_7
1777452863.568744,2145,0,S_7
1777452863.56938,2351,0,S_7
1777452863.5723252,2296,0,S_7
1777452863.575088,1894,0,S_7
1777452863.57702,1620,0,S_7
1777452863.579678,2104,0,S_7
1777452863.583348,2366,0,S_7
1777452863.585987,2416,0,S_7
1777452863.588536,2103,0,S_7
1777452863.591232,1816,0,S_7
1777452863.596582,2033,0,S_7
1777452863.5972412,2171,0,S_7
1777452863.601952,2384,0,S_7
1777452863.603741,2217,0,S_7
1777452863.6064398,2038,0,S_7
1777452863.609945,1701,0,S_7
1777452863.612603,2030,0,S_7
1777452863.615176,2377,0,S_7
1777452863.618027,2445,0,S_7
1777452863.621002,2142,0,S_7
1777452863.624002,1805,0,S_7
1777452863.630753,1829,0,S_7
1777452863.6337311,2289,0,S_7
1777452863.634042,2494,0,S_7
1777452863.636093,2435,0,S_7
1777452863.6441338,1995,0,S_7
1777452863.644362,1481,0,S_7
1777452863.647268,2003,0,S_7
1777452863.648594,2487,0,S_7
1777452863.651158,2409,0,S_7
1777452863.657978,2024,0,S_7
1777452863.658091,1864,0,S_7
1777452863.661342,1777,0,S_7
1777452863.6639738,2212,0,S_7
1777452863.66612,2395,0,S_7
1777452863.671979,2213,0,S_7
1777452863.672234,2047,0,S_7
1777452863.675636,1807,0,S_7
1777452863.678217,1969,0,S_7
1777452863.6810272,2357,0,S_7
1777452863.684018,2282,0,S_7
1777452863.687016,2146,0,S_7
1777452863.693332,1933,0,S_7
1777452863.694418,1756,0,S_7
1777452863.696834,2137,0,S_7
1777452863.700047,2321,0,S_7
1777452863.703603,2350,0,S_7
1777452863.7073312,2006,0,S_7
1777452863.7100291,1734,0,S_7
1777452863.711339,1842,0,S_7
1777452863.713999,2286,0,S_7
1777452863.720787,2413,0,S_7
1777452863.721838,2134,0,S_7
1777452863.7237551,1973,0,S_7
1777452863.7273211,1716,0,S_7
1777452863.7304058,2051,0,S_7
1777452863.734047,2369,0,S_7
1777452863.736297,2297,0,S_7
1777452863.738024,2029,0,S_7
1777452863.740986,1747,0,S_7
1777452863.7439969,1825,0,S_7
1777452863.7469969,2219,0,S_7
1777452863.754119,2364,0,S_7
1777452863.754764,2218,0,S_7
1777452863.7576718,1936,0,S_7
1777452863.759948,1642,0,S_7
1777452863.7627678,2012,0,S_7
1777452863.7692428,2272,0,S_7
1777452863.7696269,2289,0,S_7
1777452863.772743,2040,0,S_7
1777452863.774067,1700,0,S_7
1777452863.777035,1708,0,S_7
1777452863.7838259,2151,0,S_7
1777452863.785276,2276,0,S_7
1777452863.787873,2209,0,S_7
1777452863.790257,1811,0,S_7
1777452863.792068,1659,0,S_7
1777452863.7982101,1929,0,S_7
1777452863.798356,2305,0,S_7
1777452863.8010602,2308,0,S_7
1777452863.804003,2045,0,S_7
1777452863.806993,1733,0,S_7
1777452863.8099961,1719,0,S_7
1777452863.812879,2209,0,S_7
1777452863.818897,2365,0,S_7
1777452863.819088,2257,0,S_7
1777452863.821928,1998,0,S_7
1777452863.825286,1705,0,S_7
1777452863.8287969,1940,0,S_7
1777452863.832633,2272,0,S_7
1777452863.835386,2216,0,S_7
1777452863.836867,2034,0,S_7
1777452863.8398762,1817,0,S_7
1777452863.845598,1767,0,S_7
1777452863.8465862,1978,0,S_7
1777452863.849084,2304,0,S_7
1777452863.852708,2200,0,S_7
1777452863.855861,1995,0,S_7
1777452863.859367,1713,0,S_7
1777452863.861686,1860,0,S_7
1777452863.864253,2283,0,S_7
1777452863.866984,2436,0,S_7
1777452863.86991,2069,0,S_7
1777452863.872864,1754,0,S_7
1777452863.880512,1605,0,S_7
1777452863.8815842,2042,0,S_7
1777452863.88215,2280,0,S_7
1777452863.886392,2150,0,S_7
1777452863.888513,2040,0,S_7
1777452863.894304,1731,0,S_7
1777452863.8944871,1739,0,S_7
1777452863.897239,2301,0,S_7
1777452863.899931,2326,0,S_7
1777452863.902894,2158,0,S_7
1777452863.909029,1907,0,S_7
1777452863.9095318,1830,0,S_7
1777452863.913868,2058,0,S_7
1777452863.915308,2359,0,S_7
1777452863.9183738,2209,0,S_7
1777452863.92214,2004,0,S_7
1777452863.9248152,1745,0,S_7
1777452863.927406,1730,0,S_7
1777452863.9299982,2203,0,S_7
1777452863.932996,2377,0,S_7
1777452863.935866,2128,0,S_7
1777452863.943058,1890,0,S_7
1777452863.94417,1699,0,S_7
1777452863.9463658,2012,0,S_7
1777452863.948378,2302,0,S_7
1777452863.952875,2298,0,S_7
1777452863.956393,2090,0,S_7
1777452863.956893,1765,0,S_7
1777452863.960212,1702,0,S_7
1777452863.9628952,2146,0,S_7
1777452863.970639,2365,0,S_7
1777452863.971998,2227,0,S_7
1777452863.972764,2010,0,S_7
1777452863.975287,1548,0,S_7
1777452863.9792378,1889,0,S_7
1777452863.982827,2327,0,S_7
1777452863.9869912,2408,0,S_7
1777452863.987325,2109,0,S_7
1777452863.991128,1845,0,S_7
1777452863.992865,1739,0,S_7
1777452863.9958668,2031,0,S_7
1777452863.998868,2371,0,S_7
1777452864.002603,2241,0,S_7
1777452864.010647,1945,0,S_7
1777452864.01138,1585,0,S_7
1777452864.012993,1789,0,S_7
1777452864.015275,2209,0,S_7
1777452864.017944,2331,0,S_7
1777452864.020094,2176,0,S_7
1777452864.023793,1915,0,S_7
1777452864.027933,1717,0,S_7
1777452864.030973,2031,0,S_7
1777452864.032301,2283,0,S_7
1777452864.034878,2193,0,S_7
1777452864.042897,2015,0,S_7
1777452864.0434282,1496,0,S_7
1777452864.045483,1633,0,S_7
1777452864.048513,2283,0,S_7
1777452864.0505679,2393,0,S_7
1777452864.055778,2159,0,S_7
1777452864.056042,1838,0,S_7
1777452864.059507,1642,0,S_7
1777452864.062088,2078,0,S_7
1777452864.064744,2379,0,S_7
1777452864.067741,2325,0,S_7
1777452864.07076,2026,0,S_7
1777452864.0790179,1715,0,S_7
1777452864.081555,1689,0,S_7
1777452864.0816472,2060,0,S_7
1777452864.0841758,2276,0,S_7
1777452864.085962,2271,0,S_7
1777452864.088777,1910,0,S_7
1777452864.0925398,1602,0,S_7
1777452864.095499,1826,0,S_7
1777452864.098163,2305,0,S_7
1777452864.100957,2120,0,S_7
1777452864.1066408,1975,0,S_7
1777452864.108958,1803,0,S_7
1777452864.110781,1716,0,S_7
1777452864.112942,2033,0,S_7
1777452864.118058,2234,0,S_7
1777452864.121917,2087,0,S_7
1777452864.122185,1986,0,S_7
1777452864.1252968,1802,0,S_7
1777452864.1279411,1809,0,S_7
1777452864.1307788,2258,0,S_7
1777452864.1337512,2301,0,S_7
1777452864.13675,2049,0,S_7
1777452864.144494,1722,0,S_7
1777452864.1452649,1643,0,S_7
1777452864.146632,2038,0,S_7
1777452864.149015,2333,0,S_7
1777452864.1530082,2292,0,S_7
1777452864.155502,1891,0,S_7
1777452864.161311,1656,0,S_7
1777452864.1615858,1804,0,S_7
1777452864.1644979,2220,0,S_7
1777452864.167082,2338,0,S_7
1777452864.169822,2114,0,S_7
1777452864.174769,1765,0,S_7
1777452864.1782699,1612,0,S_7
1777452864.180135,1969,0,S_7
1777452864.183229,2364,0,S_7
1777452864.185602,2313,0,S_7
1777452864.189255,1967,0,S_7
1777452864.1919968,1687,0,S_7
1777452864.193759,1713,0,S_7
1777452864.196755,2237,0,S_7
1777452864.199744,2359,0,S_7
1777452864.202742,2114,0,S_7
1777452864.21136,1840,0,S_7
1777452864.211533,1668,0,S_7
1777452864.2132301,1981,0,S_7
1777452864.21586,2318,0,S_7
1777452864.218876,2253,0,S_7
1777452864.220992,1985,0,S_7
1777452864.226826,1669,0,S_7
1777452864.227016,1756,0,S_7
1777452864.2297542,2219,0,S_7
1777452864.232766,2279,0,S_7
1777452864.240352,2177,0,S_7
1777452864.240565,1853,0,S_7
1777452864.243468,1609,0,S_7
1777452864.245536,1899,0,S_7
1777452864.248127,2261,0,S_7
1777452864.253875,2224,0,S_7
1777452864.254081,1952,0,S_7
1777452864.25689,1682,0,S_7
1777452864.259774,1645,0,S_7
1777452864.2627652,2150,0,S_7
1777452864.265731,2217,0,S_7
1777452864.2687411,2181,0,S_7
1777452864.274496,1946,0,S_7
1777452864.275098,1621,0,S_7
1777452864.2781372,1827,0,S_7
1777452864.281445,2259,0,S_7
1777452864.287952,2321,0,S_7
1777452864.2881238,2033,0,S_7
1777452864.2910552,1739,0,S_7
1777452864.2927308,1677,0,S_7
1777452864.295734,2063,0,S_7
1777452864.3018491,2305,0,S_7
1777452864.302464,2301,0,S_7
1777452864.305205,1895,0,S_7
1777452864.3081112,1613,0,S_7
1777452864.311938,1866,0,S_7
1777452864.315729,2317,0,S_7
1777452864.318474,2357,0,S_7
1777452864.319781,2040,0,S_7
1777452864.32278,1864,0,S_7
1777452864.3257458,1666,0,S_7
1777452864.328722,1997,0,S_7
1777452864.3367062,2257,0,S_7
1777452864.3369348,2275,0,S_7
1777452864.3399181,2060,0,S_7
1777452864.342628,1629,0,S_7
1777452864.3452952,1720,0,S_7
1777452864.347202,2287,0,S_7
1777452864.350803,2361,0,S_7
1777452864.352988,2172,0,S_7
1777452864.355604,1932,0,S_7
1777452864.358616,1665,0,S_7
1777452864.364116,2078,0,S_7
1777452864.364706,2277,0,S_7
1777452864.3692281,2266,0,S_7
1777452864.3709471,2145,0,S_7
1777452864.3740642,1649,0,S_7
1777452864.377625,1767,0,S_7
1777452864.380487,2274,0,S_7
1777452864.383072,2196,0,S_7
1777452864.385643,2096,0,S_7
1777452864.388641,1878,0,S_7
1777452864.391636,1632,0,S_7
1777452864.398294,1872,0,S_7
1777452864.398783,2328,0,S_7
1777452864.400903,2225,0,S_7
1777452864.4050372,2043,0,S_7
1777452864.4115798,1739,0,S_7
1777452864.411875,1707,0,S_7
1777452864.4144928,2043,0,S_7
1777452864.415858,2295,0,S_7
1777452864.418615,2144,0,S_7
1777452864.426016,1846,0,S_7
1777452864.426731,1569,0,S_7
1777452864.428947,1782,0,S_7
1777452864.431568,2232,0,S_7
1777452864.439651,2297,0,S_7
1777452864.440084,1933,0,S_7
1777452864.440546,1693,0,S_7
1777452864.4432561,1631,0,S_7
1777452864.4458802,2047,0,S_7
1777452864.448632,2270,0,S_7
1777452864.451605,2111,0,S_7
1777452864.4546251,1870,0,S_7
1777452864.4620411,1532,0,S_7
1777452864.462286,1770,0,S_7
1777452864.473043,2219,0,S_7
1777452864.4877582,2268,0,S_7
1777452864.4878561,2029,0,S_7
1777452864.487921,1725,0,S_7
1777452864.487974,1607,0,S_7
1777452864.4880261,1937,0,S_7
1777452864.4880798,2277,0,S_7
1777452864.4881291,2210,0,S_7
1777452864.4881768,1888,0,S_7
1777452864.490886,1643,0,S_7
1777452864.500454,1697,0,S_7
1777452864.501811,2106,0,S_7
1777452864.5046358,2238,0,S_7
1777452864.504977,2066,0,S_7
1777452864.508537,1761,0,S_7
1777452864.509404,1574,0,S_7
1777452864.5136619,1960,0,S_7
1777452864.5181499,2234,0,S_7
1777452864.5185988,2251,0,S_7
1777452864.521066,1973,0,S_7
1777452864.523699,1680,0,S_7
1777452864.526598,1698,0,S_7
1777452864.5295959,2140,0,S_7
1777452864.532615,2317,0,S_7
1777452864.5356128,2126,0,S_7
1777452864.544037,1829,0,S_7
1777452864.5461152,1564,0,S_7
1777452864.54657,1923,0,S_7
1777452864.549473,2310,0,S_7
1777452864.551174,2318,0,S_7
1777452864.5546849,1992,0,S_7
1777452864.558843,1704,0,S_7
1777452864.5620842,1746,0,S_7
1777452864.5626009,2060,0,S_7
1777452864.56561,2280,0,S_7
1777452864.5744908,2148,0,S_7
1777452864.575812,1932,0,S_7
1777452864.578366,1615,0,S_7
1777452864.5786939,1848,0,S_7
1777452864.581254,2336,0,S_7
1777452864.5845902,2264,0,S_7
1777452864.586606,2039,0,S_7
1777452864.594482,1757,0,S_7
1777452864.594723,1609,0,S_7
1777452864.596889,2068,0,S_7
1777452864.598482,2273,0,S_7
1777452864.6014879,2229,0,S_7
1777452864.604474,1898,0,S_7
1777452864.6075,1590,0,S_7
1777452864.615262,1791,0,S_7
1777452864.616438,2238,0,S_7
1777452864.6171892,2288,0,S_7
1777452864.621832,2119,0,S_7
1777452864.622615,1783,0,S_7
1777452864.62753,1555,0,S_7
1777452864.632133,1972,0,S_7
1777452864.6325262,2303,0,S_7
1777452864.635711,2280,0,S_7
1777452864.6374762,1991,0,S_7
1777452864.64048,1680,0,S_7
1777452864.649471,1791,0,S_7
1777452864.650149,2266,0,S_7
1777452864.6525922,2330,0,S_7
1777452864.652998,2096,0,S_7
1777452864.656862,1787,0,S_7
1777452864.661027,1651,0,S_7
1777452864.665235,1907,0,S_7
1777452864.665806,2247,0,S_7
1777452864.6688042,2246,0,S_7
1777452864.670458,2013,0,S_7
1777452864.673486,1757,0,S_7
1777452864.6765382,1791,0,S_7
1777452864.679476,2216,0,S_7
1777452864.6825001,2253,0,S_7
1777452864.690271,2093,0,S_7
1777452864.691689,1911,0,S_7
1777452864.6943371,1621,0,S_7
1777452864.6945841,1875,0,S_7
1777452864.698689,2306,0,S_7
1777452864.701014,2277,0,S_7
1777452864.7106628,2004,0,S_7
1777452864.710976,1869,0,S_7
1777452864.711318,1742,0,S_7
1777452864.712697,2122,0,S_7
1777452864.715652,2290,0,S_7
1777452864.7255418,2157,0,S_7
1777452864.726327,1884,0,S_7
1777452864.7329762,1648,0,S_7
1777452864.7333639,1927,0,S_7
1777452864.734176,2260,0,S_7
1777452864.7343218,2127,0,S_7
1777452864.7388318,2189,0,S_7
1777452864.743592,1908,0,S_7
1777452864.743933,1678,0,S_7
1777452864.747305,1945,0,S_7
1777452864.74865,2376,0,S_7
1777452864.751464,2392,0,S_7
1777452864.754474,1784,0,S_7
1777452864.757474,1653,0,S_7
1777452864.760471,1907,0,S_7
1777452864.769226,2204,0,S_7
1777452864.770693,2222,0,S_7
1777452864.7737658,2135,0,S_7
1777452864.774296,1897,0,S_7
1777452864.7768881,1677,0,S_7
1777452864.78143,2155,0,S_7
1777452864.783987,2320,0,S_7
1777452864.788818,2192,0,S_7
1777452864.7892742,2005,0,S_7
1777452864.793077,1880,0,S_7
1777452864.793356,1851,0,S_7
1777452864.7963588,2197,0,S_7
1777452864.7993941,2186,0,S_7
1777452864.806537,2295,0,S_7
1777452864.806883,1968,0,S_7
1777452864.8091068,1720,0,S_7
1777452864.8121111,2072,0,S_7
1777452864.817378,2472,0,S_7
1777452864.818357,2295,0,S_7
1777452864.8211598,2196,0,S_7
1777452864.825557,1792,0,S_7
1777452864.829165,1840,0,S_7
1777452864.829371,2283,0,S_7
1777452864.832383,2367,0,S_7
1777452864.8353548,2280,0,S_7
1777452864.83834,2038,0,S_7
1777452864.8413482,1847,0,S_7
1777452864.8454149,1964,0,S_7
1777452864.849238,2390,0,S_7
1777452864.851379,2316,0,S_7
1777452864.853864,2204,0,S_7
1777452864.8572102,1844,0,S_7
1777452864.8599548,1747,0,S_7
1777452864.866633,2356,0,S_7
1777452864.866782,2391,0,S_7
1777452864.870039,2322,0,S_7
1777452864.871378,1970,0,S_7
1777452864.8743522,1788,0,S_7
1777452864.877552,1916,0,S_7
1777452864.8835142,2363,0,S_7
1777452864.8836532,2298,0,S_7
1777452864.887462,2159,0,S_7
1777452864.889977,1949,0,S_7
1777452864.8958662,1745,0,S_7
1777452864.900491,2126,0,S_7
1777452864.9008498,2389,0,S_7
1777452864.9014652,2286,0,S_7
1777452864.904432,2009,0,S_7
1777452864.90735,1752,0,S_7
1777452864.910361,1947,0,S_7
1777452864.9133599,2210,0,S_7
1777452864.916343,2284,0,S_7
1777452864.919554,2157,0,S_7
1777452864.926126,1904,0,S_7
1777452864.926825,1931,0,S_7
1777452864.929732,2039,0,S_7
1777452864.932648,2450,0,S_7
1777452864.934678,2209,0,S_7
1777452864.937748,2043,0,S_7
1777452864.941977,1746,0,S_7
1777452864.944913,2018,0,S_7
1777452864.946378,2195,0,S_7
1777452864.9493482,2320,0,S_7
1777452864.957123,2219,0,S_7
1777452864.9588978,2007,0,S_7
1777452864.960005,1771,0,S_7
1777452864.961835,2038,0,S_7
1777452864.964576,2317,0,S_7
1777452864.968,2303,0,S_7
1777452864.970811,2197,0,S_7
1777452864.975054,1865,0,S_7
1777452864.977943,1875,0,S_7
1777452864.979383,2204,0,S_7
1777452864.982372,2486,0,S_7
1777452864.985376,2324,0,S_7
1777452864.9883788,2156,0,S_7
1777452864.9913652,1933,0,S_7
1777452864.999626,2105,0,S_7
1777452865.000195,2429,0,S_7
1777452865.001984,2472,0,S_7
1777452865.004282,2155,0,S_7
1777452865.006551,1946,0,S_7
1777452865.0101619,1856,0,S_7
1777452865.0162292,2104,0,S_7
1777452865.0165231,2406,0,S_7
1777452865.019573,2377,0,S_7
1777452865.021377,1984,0,S_7
1777452865.02434,1941,0,S_7
1777452865.0322042,1987,0,S_7
1777452865.0324821,2294,0,S_7
1777452865.039391,2325,0,S_7
1777452865.042582,2137,0,S_7
1777452865.043006,1898,0,S_7
1777452865.047152,1788,0,S_7
1777452865.0475872,2109,0,S_7
1777452865.0504441,2394,0,S_7
1777452865.051824,2276,0,S_7
1777452865.054416,2120,0,S_7
1777452865.057384,1826,0,S_7
1777452865.060262,1863,0,S_7
1777452865.063227,2314,0,S_7
1777452865.070266,2445,0,S_7
1777452865.071522,2130,0,S_7
1777452865.075694,1895,0,S_7
1777452865.076299,1854,0,S_7
1777452865.0791621,2286,0,S_7
1777452865.081507,2270,0,S_7
1777452865.085369,2192,0,S_7
1777452865.0882602,2085,0,S_7
1777452865.090854,1917,0,S_7
1777452865.093436,1896,0,S_7
1777452865.099589,2216,0,S_7
1777452865.100192,2190,0,S_7
1777452865.1028638,2163,0,S_7
1777452865.105831,1979,0,S_7
1777452865.1096058,1664,0,S_7
1777452865.113277,2036,0,S_7
1777452865.1161118,2466,0,S_7
1777452865.1174269,2246,0,S_7
1777452865.120228,1969,0,S_7
1777452865.1232178,1783,0,S_7
1777452865.1262121,1890,0,S_7
1777452865.134463,2226,0,S_7
1777452865.135069,2452,0,S_7
1777452865.1356192,2283,0,S_7
1777452865.139643,1986,0,S_7
1777452865.1419451,1910,0,S_7
1777452865.1451242,1828,0,S_7
1777452865.151517,2341,0,S_7
1777452865.151594,2249,0,S_7
1777452865.1532211,2030,0,S_7
1777452865.156223,1805,0,S_7
1777452865.164108,1827,0,S_7
1777452865.164746,2319,0,S_7
1777452865.165319,2259,0,S_7
1777452865.169864,2102,0,S_7
1777452865.171423,1970,0,S_7
1777452865.175191,1729,0,S_7
1777452865.178709,2094,0,S_7
1777452865.181346,2164,0,S_7
1777452865.183319,2243,0,S_7
1777452865.186222,2190,0,S_7
1777452865.1892211,1777,0,S_7
1777452865.1922119,1953,0,S_7
1777452865.1988358,1722,0,S_7
1777452865.199955,2348,0,S_7
1777452865.202496,2219,0,S_7
1777452865.20499,1914,0,S_7
1777452865.208997,1678,0,S_7
1777452865.212576,1850,0,S_7
1777452865.215422,2217,0,S_7
1777452865.216728,2411,0,S_7
1777452865.219302,1881,0,S_7
1777452865.22573,1749,0,S_7
1777452865.226293,2175,0,S_7
1777452865.22913,1908,0,S_7
1777452865.2316601,2223,0,S_7
1777452865.2359831,2032,0,S_7
1777452865.239661,1994,0,S_7
1777452865.2401469,1494,0,S_7
1777452865.243274,1897,0,S_7
1777452865.246091,2203,0,S_7
1777452865.24913,2130,0,S_7
1777452865.252106,2068,0,S_7
1777452865.2551308,1799,0,S_7
1777452865.262499,1403,0,S_7
1777452865.263186,1876,0,S_7
1777452865.265428,2106,0,S_7
1777452865.267935,2248,0,S_7
1777452865.2722912,1793,0,S_7
1777452865.275904,1670,0,S_7
1777452865.2761521,1607,0,S_7
1777452865.279447,2059,0,S_7
1777452865.2820978,2189,0,S_7
1777452865.289356,2062,0,S_7
1777452865.293756,1861,0,S_7
1777452865.2940722,1552,0,S_7
1777452865.294601,1801,0,S_7
1777452865.2987862,2178,0,S_7
1777452865.302597,2174,0,S_7
1777452865.306763,1829,0,S_7
1777452865.307146,1596,0,S_7
1777452865.309674,1514,0,S_7
1777452865.3122618,1810,0,S_7
1777452865.315136,2083,0,S_7
1777452865.318123,2107,0,S_7
1777452865.321114,1781,0,S_7
1777452865.329965,1483,0,S_7
1777452865.3306398,1762,0,S_7
1777452865.331858,2062,0,S_7
1777452865.333807,2056,0,S_7
1777452865.336517,1917,0,S_7
1777452865.340833,1640,0,S_7
1777452865.344528,1515,0,S_7
1777452865.3468459,1759,0,S_7
1777452865.348167,2085,0,S_7
1777452865.3511,2036,0,S_7
1777452865.3597708,1719,0,S_7
1777452865.360569,1586,0,S_7
1777452865.3625011,1796,0,S_7
1777452865.36534,2056,0,S_7
1777452865.3676312,2148,0,S_7
1777452865.371409,1856,0,S_7
1777452865.3784971,1514,0,S_7
1777452865.3788512,1451,0,S_7
1777452865.378897,1798,0,S_7
1777452865.38149,2145,0,S_7
1777452865.3841112,2125,0,S_7
1777452865.387101,1836,0,S_7
1777452865.390094,1398,0,S_7
1777452865.3933492,1449,0,S_7
1777452865.400316,2134,0,S_7
1777452865.401633,2483,0,S_7
1777452865.404525,2116,0,S_7
1777452865.4071229,1763,0,S_7
1777452865.4091232,1498,0,S_7
1777452865.412087,1762,0,S_7
1777452865.415841,2078,0,S_7
1777452865.418776,2120,0,S_7
1777452865.420115,1937,0,S_7
1777452865.423085,1650,0,S_7
1777452865.430042,1486,0,S_7
1777452865.430218,2172,0,S_7
1777452865.433543,2276,0,S_7
1777452865.435756,2061,0,S_7
1777452865.4404411,2022,0,S_7
1777452865.444185,1614,0,S_7
1777452865.444555,1782,0,S_7
1777452865.447798,2183,0,S_7
1777452865.45041,2115,0,S_7
1777452865.453106,2357,0,S_7
1777452865.4562519,1756,0,S_7
1777452865.459123,1494,0,S_7
1777452865.472694,1900,0,S_7
1777452865.4753652,2365,0,S_7
1777452865.4776251,2092,0,S_7
1777452865.4785202,1935,0,S_7
1777452865.481201,1674,0,S_7
1777452865.485376,1793,0,S_7
1777452865.485759,2389,0,S_7
1777452865.485976,2609,0,S_7
1777452865.4861991,2326,0,S_7
1777452865.489262,2034,0,S_7
1777452865.4920251,1789,0,S_7
1777452865.494976,2360,0,S_7
1777452865.500586,2681,0,S_7
1777452865.501771,2217,0,S_7
1777452865.5043242,2009,0,S_7
1777452865.507458,1936,0,S_7
1777452865.5105422,1985,0,S_7
1777452865.517003,2448,0,S_7
1777452865.517489,2555,0,S_7
1777452865.5196538,2395,0,S_7
1777452865.5222578,2192,0,S_7
1777452865.525026,1820,0,S_7
1777452865.527976,2372,0,S_7
1777452865.5309598,2449,0,S_7
1777452865.538599,2312,0,S_7
1777452865.539207,2153,0,S_7
1777452865.542562,1896,0,S_7
1777452865.5447009,2127,0,S_7
1777452865.5468118,2557,0,S_7
1777452865.550864,2426,0,S_7
1777452865.554774,2248,0,S_7
1777452865.555181,2161,0,S_7
1777452865.5586271,1747,0,S_7
1777452865.561215,2146,0,S_7
1777452865.5683808,2370,0,S_7
1777452865.5689971,2569,0,S_7
1777452865.572204,2269,0,S_7
1777452865.5749671,1823,0,S_7
1777452865.577294,2016,0,S_7
1777452865.5796638,2211,0,S_7
1777452865.5834382,2460,0,S_7
1777452865.585654,2383,0,S_7
1777452865.588233,2113,0,S_7
1777452865.590954,1714,0,S_7
1777452865.593961,1990,0,S_7
1777452865.596957,2656,0,S_7
1777452865.604795,2413,0,S_7
1777452865.6076832,2057,0,S_7
1777452865.609729,1866,0,S_7
1777452865.610256,1930,0,S_7
1777452865.61253,2152,0,S_7
1777452865.619052,2447,0,S_7
1777452865.61957,2250,0,S_7
1777452865.622283,2135,0,S_7
1777452865.623987,1604,0,S_7
1777452865.626984,1949,0,S_7
1777452865.634393,2333,0,S_7
1777452865.6346262,2437,0,S_7
1777452865.6367,2224,0,S_7
1777452865.639046,1989,0,S_7
1777452865.644904,1766,0,S_7
1777452865.645355,2107,0,S_7
1777452865.64963,2410,0,S_7
1777452865.653343,2364,0,S_7
1777452865.6539679,2068,0,S_7
1777452865.656971,1725,0,S_7
1777452865.659959,1850,0,S_7
1777452865.662981,2233,0,S_7
1777452865.665984,2432,0,S_7
1777452865.6729448,2184,0,S_7
1777452865.674956,1981,0,S_7
1777452865.6755881,1739,0,S_7
1777452865.679341,2009,0,S_7
1777452865.681633,2293,0,S_7
1777452865.684603,2310,0,S_7
1777452865.689485,2164,0,S_7
1777452865.6902452,1707,0,S_7
1777452865.6936488,1790,0,S_7
1777452865.696308,2269,0,S_7
1777452865.69889,2374,0,S_7
1777452865.70767,2301,0,S_7
1777452865.708382,1932,0,S_7
1777452865.70859,1669,0,S_7
1777452865.71084,1961,0,S_7
1777452865.7142231,2345,0,S_7
1777452865.7175481,2177,0,S_7
1777452865.721226,2048,0,S_7
1777452865.723856,1653,0,S_7
1777452865.726552,1727,0,S_7
1777452865.729155,2229,0,S_7
1777452865.7318919,2324,0,S_7
1777452865.734876,2223,0,S_7
1777452865.742781,1920,0,S_7
1777452865.743854,1661,0,S_7
1777452865.7454379,1887,0,S_7
1777452865.7475688,2243,0,S_7
1777452865.752126,2298,0,S_7
1777452865.755763,2071,0,S_7
1777452865.755921,1729,0,S_7
1777452865.7593951,1726,0,S_7
1777452865.7619681,2072,0,S_7
1777452865.769516,2304,0,S_7
1777452865.77055,2205,0,S_7
1777452865.77112,1947,0,S_7
1777452865.775435,1664,0,S_7
1777452865.7781792,1852,0,S_7
1777452865.783482,2255,0,S_7
1777452865.783721,2295,0,S_7
1777452865.7865222,2081,0,S_7
1777452865.7891068,1705,0,S_7
1777452865.791828,1712,0,S_7
1777452865.79483,2006,0,S_7
1777452865.7978408,2244,0,S_7
1777452865.8040068,2131,0,S_7
1777452865.804538,1875,0,S_7
1777452865.8075352,1550,0,S_7
1777452865.810988,1725,0,S_7
1777452865.814451,2308,0,S_7
1777452865.818045,2371,0,S_7
1777452865.8208551,2110,0,S_7
1777452865.822176,1881,0,S_7
1777452865.824863,1551,0,S_7
1777452865.831669,2057,0,S_7
1777452865.831795,2363,0,S_7
1777452865.834612,2294,0,S_7
1777452865.838809,1931,0,S_7
1777452865.841613,1632,0,S_7
1777452865.845133,1652,0,S_7
1777452865.847848,2163,0,S_7
1777452865.849154,2221,0,S_7
1777452865.85184,2139,0,S_7
1777452865.8548648,1872,0,S_7
1777452865.857873,1645,0,S_7
1777452865.86098,1845,0,S_7
1777452865.866105,2307,0,S_7
1777452865.8680031,2299,0,S_7
1777452865.871099,1848,0,S_7
1777452865.873237,1695,0,S_7
1777452865.876204,1770,0,S_7
1777452865.87985,2262,0,S_7
1777452865.882559,2350,0,S_7
1777452865.885143,2052,0,S_7
1777452865.887896,1906,0,S_7
1777452865.8929942,1755,0,S_7
1777452865.8960571,1885,0,S_7
1777452865.89811,2304,0,S_7
1777452865.899967,2246,0,S_7
1777452865.907042,1953,0,S_7
1777452865.907229,1642,0,S_7
1777452865.9101849,1655,0,S_7
1777452865.911883,1987,0,S_7
1777452865.9148312,2218,0,S_7
1777452865.917839,2215,0,S_7
1777452865.9208782,1969,0,S_7
1777452865.929996,1587,0,S_7
1777452865.932298,1872,0,S_7
1777452865.937973,2216,0,S_7
1777452865.943706,2267,0,S_7
1777452865.944073,1987,0,S_7
1777452865.9443,1728,0,S_7
1777452865.9445288,1679,0,S_7
1777452865.94483,2153,0,S_7
1777452865.948069,2364,0,S_7
1777452865.950777,2065,0,S_7
1777452865.95797,1898,0,S_7
1777452865.95875,1700,0,S_7
1777452865.960371,1851,0,S_7
1777452865.9648168,2180,0,S_7
1777452865.967096,2340,0,S_7
1777452865.970499,1976,0,S_7
1777452865.975153,1660,0,S_7
1777452865.975378,1608,0,S_7
1777452865.9787378,1969,0,S_7
1777452865.981343,2330,0,S_7
1777452865.9840891,2134,0,S_7
1777452865.9867232,2027,0,S_7
1777452865.990515,1608,0,S_7
1777452866.0001578,1831,0,S_7
1777452866.000919,2085,0,S_7
1777452866.001531,2245,0,S_7
1777452866.003853,2086,0,S_7
1777452866.007684,1908,0,S_7
1777452866.008487,1659,0,S_7
1777452866.0126588,1844,0,S_7
1777452866.016992,2334,0,S_7
1777452866.017486,2223,0,S_7
1777452866.020878,2013,0,S_7
1777452866.022719,1684,0,S_7
1777452866.0257149,1755,0,S_7
1777452866.034534,2127,0,S_7
1777452866.0370078,2283,0,S_7
1777452866.037437,2226,0,S_7
1777452866.0398998,1969,0,S_7
1777452866.042194,1632,0,S_7
1777452866.0458171,1833,0,S_7
1777452866.0502982,2227,0,S_7
1777452866.050542,2325,0,S_7
1777452866.0538502,2123,0,S_7
1777452866.055721,1751,0,S_7
1777452866.0595572,1589,0,S_7
1777452866.0623062,2088,0,S_7
1777452866.064925,2306,0,S_7
1777452866.067703,2256,0,S_7
1777452866.0752902,1893,0,S_7
1777452866.0755131,1600,0,S_7
1777452866.079117,1806,0,S_7
1777452866.081707,2271,0,S_7
1777452866.083455,2286,0,S_7
1777452866.0878148,2016,0,S_7
1777452866.092326,1820,0,S_7
1777452866.092992,1724,0,S_7
1777452866.0961049,2026,0,S_7
1777452866.097703,2266,0,S_7
1777452866.100693,2248,0,S_7
1777452866.109638,1921,0,S_7
1777452866.1103559,1613,0,S_7
1777452866.112447,1787,0,S_7
1777452866.112868,2230,0,S_7
1777452866.118401,2223,0,S_7
1777452866.119126,2042,0,S_7
1777452866.125324,1792,0,S_7
1777452866.125491,1624,0,S_7
1777452866.1290398,1997,0,S_7
1777452866.130694,2273,0,S_7
1777452866.133703,2162,0,S_7
1777452866.1367,1908,0,S_7
1777452866.1396952,1660,0,S_7
1777452866.142794,1692,0,S_7
1777452866.149735,2156,0,S_7
1777452866.1504261,2234,0,S_7
1777452866.153789,2082,0,S_7
1777452866.156217,1780,0,S_7
1777452866.158122,1616,0,S_7
1777452866.1667042,1869,0,S_7
1777452866.167018,2281,0,S_7
1777452866.167317,2209,0,S_7
1777452866.170475,2010,0,S_7
1777452866.173131,1699,0,S_7
1777452866.175701,1716,0,S_7
1777452866.1835809,2142,0,S_7
1777452866.1871948,2237,0,S_7
1777452866.187724,2145,0,S_7
1777452866.187964,1805,0,S_7
1777452866.191833,1583,0,S_7
1777452866.196181,1896,0,S_7
1777452866.200942,2249,0,S_7
1777452866.2018712,2269,0,S_7
1777452866.2045388,2025,0,S_7
1777452866.2059689,1721,0,S_7
1777452866.2087061,1688,0,S_7
1777452866.211703,2076,0,S_7
1777452866.21472,2257,0,S_7
1777452866.217738,2168,0,S_7
1777452866.225399,1919,0,S_7
1777452866.225557,1603,0,S_7
1777452866.227846,1863,0,S_7
1777452866.230082,2316,0,S_7
1777452866.233384,2252,0,S_7
1777452866.236492,2005,0,S_7
1777452866.243221,1726,0,S_7
1777452866.243547,1709,0,S_7
1777452866.2469492,2072,0,S_7
1777452866.2484381,2268,0,S_7
1777452866.2512681,2212,0,S_7
1777452866.259739,1958,0,S_7
1777452866.259899,1750,0,S_7
1777452866.2606149,1842,0,S_7
1777452866.2639732,2243,0,S_7
1777452866.2679732,2321,0,S_7
1777452866.26965,2118,0,S_7
1777452866.27305,1796,0,S_7
1777452866.277291,1632,0,S_7
1777452866.2777941,2025,0,S_7
1777452866.2809489,2357,0,S_7
1777452866.283759,2219,0,S_7
1777452866.286726,1953,0,S_7
1777452866.28969,1714,0,S_7
1777452866.292684,1787,0,S_7
1777452866.3004181,2254,0,S_7
1777452866.300578,2275,0,S_7
1777452866.302874,2123,0,S_7
1777452866.304744,1905,0,S_7
1777452866.3081212,1660,0,S_7
1777452866.3169,1938,0,S_7
1777452866.3170218,2303,0,S_7
1777452866.317146,2271,0,S_7
1777452866.320371,2091,0,S_7
1777452866.322964,1709,0,S_7
1777452866.325602,1700,0,S_7
1777452866.333097,2148,0,S_7
1777452866.333728,2326,0,S_7
1777452866.3361762,2208,0,S_7
1777452866.338579,1890,0,S_7
1777452866.3415868,1685,0,S_7
1777452866.344224,1901,0,S_7
1777452866.3482811,2315,0,S_7
1777452866.3512928,2231,0,S_7
1777452866.3526158,2065,0,S_7
1777452866.3563788,1773,0,S_7
1777452866.3589509,1760,0,S_7
1777452866.36162,2135,0,S_7
1777452866.364605,2350,0,S_7
1777452866.370908,2236,0,S_7
1777452866.371592,1933,0,S_7
1777452866.3750248,1550,0,S_7
1777452866.3779562,1884,0,S_7
1777452866.3807092,2282,0,S_7
1777452866.383371,2319,0,S_7
1777452866.3875031,2025,0,S_7
1777452866.3900511,1742,0,S_7
1777452866.391614,1741,0,S_7
1777452866.394604,2072,0,S_7
1777452866.402787,2351,0,S_7
1777452866.403959,2277,0,S_7
1777452866.404563,1931,0,S_7
1777452866.408704,1663,0,S_7
1777452866.410833,1842,0,S_7
1777452866.414293,2226,0,S_7
1777452866.4183621,2267,0,S_7
1777452866.4186292,2097,0,S_7
1777452866.42186,1832,0,S_7
1777452866.424604,1701,0,S_7
1777452866.427582,2037,0,S_7
1777452866.4306061,2285,0,S_7
1777452866.433582,2197,0,S_7
1777452866.442848,2006,0,S_7
1777452866.443421,1645,0,S_7
1777452866.443537,1799,0,S_7
1777452866.445895,2218,0,S_7
1777452866.4486668,2335,0,S_7
1777452866.451693,2161,0,S_7
1777452866.457752,1957,0,S_7
1777452866.457845,1647,0,S_7
1777452866.4609568,1970,0,S_7
1777452866.463574,2262,0,S_7
1777452866.4665742,2344,0,S_7
1777452866.473504,2019,0,S_7
1777452866.474634,1725,0,S_7
1777452866.4770439,1751,0,S_7
1777452866.47957,2231,0,S_7
1777452866.4822311,2248,0,S_7
1777452866.488106,2143,0,S_7
1777452866.4883652,1994,0,S_7
1777452866.491082,1628,0,S_7
1777452866.493769,1887,0,S_7
1777452866.4965818,2242,0,S_7
1777452866.500226,2229,0,S_7
1777452866.5028422,2086,0,S_7
1777452866.5105999,1762,0,S_7
1777452866.5121589,1640,0,S_7
1777452866.512237,2124,0,S_7
1777452866.51648,2293,0,S_7
1777452866.518742,2226,0,S_7
1777452866.521034,2018,0,S_7
1777452866.524711,1662,0,S_7
1777452866.527426,1781,0,S_7
1777452866.530006,2474,0,S_7
1777452866.532598,2191,0,S_7
1777452866.538172,2012,0,S_7
1777452866.5387971,1739,0,S_7
1777452866.541846,1797,0,S_7
1777452866.545175,1963,0,S_7
1777452866.548667,2390,0,S_7
1777452866.552265,2269,0,S_7
1777452866.55503,1845,0,S_7
1777452866.556588,1775,0,S_7
1777452866.559562,1918,0,S_7
1777452866.562606,2013,0,S_7
1777452866.565591,2534,0,S_7
1777452866.573028,2346,0,S_7
1777452866.574626,1754,0,S_7
1777452866.5767539,1595,0,S_7
1777452866.579303,2105,0,S_7
1777452866.581538,2623,0,S_7
1777452866.583937,2199,0,S_7
1777452866.587599,2049,0,S_7
1777452866.590365,1692,0,S_7
1777452866.593048,1804,0,S_7
1777452866.600823,2356,0,S_7
1777452866.6014569,2354,0,S_7
1777452866.6020539,2110,0,S_7
1777452866.606399,1829,0,S_7
1777452866.608075,1534,0,S_7
1777452866.61075,2080,0,S_7
1777452866.614419,2346,0,S_7
1777452866.6173198,2379,0,S_7
1777452866.619894,2016,0,S_7
1777452866.622598,1755,0,S_7
1777452866.6255648,1905,0,S_7
1777452866.628596,2171,0,S_7
1777452866.6352909,2385,0,S_7
1777452866.635378,2251,0,S_7
1777452866.6381671,1999,0,S_7
1777452866.640811,1646,0,S_7
1777452866.644462,1868,0,S_7
1777452866.648097,2451,0,S_7
1777452866.6503758,2278,0,S_7
1777452866.652964,2029,0,S_7
1777452866.6555588,1769,0,S_7
1777452866.66114,1787,0,S_7
1777452866.661696,2275,0,S_7
1777452866.667501,2251,0,S_7
1777452866.66852,2178,0,S_7
1777452866.67185,1849,0,S_7
1777452866.675616,1798,0,S_7
1777452866.678244,1747,0,S_7
1777452866.6795971,2258,0,S_7
1777452866.682561,2318,0,S_7
1777452866.6855822,2070,0,S_7
1777452866.688561,1814,0,S_7
1777452866.696165,1605,0,S_7
1777452866.696691,2077,0,S_7
1777452866.698139,2307,0,S_7
1777452866.702209,2156,0,S_7
1777452866.7045581,1831,0,S_7
1777452866.707254,1535,0,S_7
1777452866.711432,1751,0,S_7
1777452866.714692,2244,0,S_7
1777452866.715938,2220,0,S_7
1777452866.718526,1996,0,S_7
1777452866.7254589,1635,0,S_7
1777452866.726038,1538,0,S_7
1777452866.728469,2000,0,S_7
1777452866.7309,2356,0,S_7
1777452866.735167,2022,0,S_7
1777452866.738949,1962,0,S_7
1777452866.741296,1629,0,S_7
1777452866.742611,1733,0,S_7
1777452866.745473,2218,0,S_7
1777452866.74845,2233,0,S_7
1777452866.7514648,2180,0,S_7
1777452866.76061,1695,0,S_7
1777452866.761205,1542,0,S_7
1777452866.76289,1896,0,S_7
1777452866.7654321,2406,0,S_7
1777452866.767796,2331,0,S_7
1777452866.770016,2143,0,S_7
1777452866.773651,1498,0,S_7
1777452866.776598,1600,0,S_7
1777452866.778469,2221,0,S_7
1777452866.781473,2479,0,S_7
1777452866.7871099,2031,0,S_7
1777452866.7877278,1989,0,S_7
1777452866.7906501,1457,0,S_7
1777452866.79439,1832,0,S_7
1777452866.797486,2319,0,S_7
1777452866.801138,2398,0,S_7
1777452866.8034298,2271,0,S_7
1777452866.806014,1844,0,S_7
1777452866.808586,1827,0,S_7
1777452866.8114429,2199,0,S_7
1777452866.814486,2545,0,S_7
1777452866.822579,2160,0,S_7
1777452866.8249578,2034,0,S_7
1777452866.825161,1663,0,S_7
1777452866.8276732,1987,0,S_7
1777452866.829761,2441,0,S_7
1777452866.835419,2493,0,S_7
1777452866.8355808,2222,0,S_7
1777452866.83902,2011,0,S_7
1777452866.841583,1932,0,S_7
1777452866.8497121,2336,0,S_7
1777452866.8502111,2639,0,S_7
1777452866.850826,2237,0,S_7
1777452866.854311,2183,0,S_7
1777452866.858783,1774,0,S_7
1777452866.862327,1940,0,S_7
1777452866.8625422,2297,0,S_7
1777452866.866536,2482,0,S_7
1777452866.8691041,2186,0,S_7
1777452866.8717382,2096,0,S_7
1777452866.874458,1881,0,S_7
1777452866.8775308,2204,0,S_7
1777452866.883965,2447,0,S_7
1777452866.885212,2445,0,S_7
1777452866.887465,2168,0,S_7
1777452866.890235,1795,0,S_7
1777452866.894689,1783,0,S_7
1777452866.898436,2361,0,S_7
1777452866.8987122,2384,0,S_7
1777452866.9020329,2469,0,S_7
1777452866.9046059,2018,0,S_7
1777452866.91185,1587,0,S_7
1777452866.911979,1741,0,S_7
1777452866.913656,2297,0,S_7
1777452866.917137,2560,0,S_7
1777452866.9200242,1833,0,S_7
1777452866.922604,1735,0,S_7
1777452866.927124,1864,0,S_7
1777452866.93024,2540,0,S_7
1777452866.9315798,2268,0,S_7
1777452866.9344919,2208,0,S_7
1777452866.937459,1828,0,S_7
1777452866.940464,2048,0,S_7
1777452866.9436722,2141,0,S_7
1777452866.949516,2261,0,S_7
1777452866.949673,2513,0,S_7
1777452866.95249,2115,0,S_7
1777452866.955615,2110,0,S_7
1777452866.959363,1893,0,S_7
1777452866.963068,2271,0,S_7
1777452866.965777,2571,0,S_7
1777452866.967472,2539,0,S_7
1777452866.9704268,2425,0,S_7
1777452866.976456,1299,0,S_7
1777452866.976591,1933,0,S_7
1777452866.9796128,2392,0,S_7
1777452866.982678,2574,0,S_7
1777452866.98948,2207,0,S_7
1777452866.989697,2021,0,S_7
1777452866.992024,1685,0,S_7
1777452866.994612,2097,0,S_7
1777452866.997458,2319,0,S_7
1777452867.000437,2279,0,S_7
1777452867.003438,1940,0,S_7
1777452867.011534,1746,0,S_7
1777452867.012539,1720,0,S_7
1777452867.014299,2135,0,S_7
1777452867.016868,2324,0,S_7
1777452867.0191731,2224,0,S_7
1777452867.021439,2064,0,S_7
1777452867.025406,1790,0,S_7
1777452867.0282261,1886,0,S_7
1777452867.0309389,2428,0,S_7
1777452867.03371,2186,0,S_7
1777452867.040732,1965,0,S_7
1777452867.04304,1716,0,S_7
1777452867.0455282,1692,0,S_7
1777452867.046616,2161,0,S_7
1777452867.050967,2135,0,S_7
1777452867.0547771,1981,0,S_7
1777452867.055118,1815,0,S_7
1777452867.0582569,1613,0,S_7
1777452867.060915,1885,0,S_7
1777452867.0639129,2203,0,S_7
1777452867.0665889,2260,0,S_7
1777452867.06975,1880,0,S_7
1777452867.080086,1667,0,S_7
1777452867.0808399,1612,0,S_7
1777452867.0813901,2085,0,S_7
1777452867.0834298,2253,0,S_7
1777452867.086773,2045,0,S_7
1777452867.087438,1776,0,S_7
1777452867.096137,1538,0,S_7
1777452867.0962949,1779,0,S_7
1777452867.096619,2271,0,S_7
1777452867.099479,2273,0,S_7
1777452867.102347,2044,0,S_7
1777452867.110736,1747,0,S_7
1777452867.112583,1556,0,S_7
1777452867.115937,1983,0,S_7
1777452867.119384,2275,0,S_7
1777452867.120832,2100,0,S_7
1777452867.121129,1723,0,S_7
1777452867.125771,1537,0,S_7
1777452867.130711,1885,0,S_7
1777452867.1312032,2214,0,S_7
1777452867.134593,2303,0,S_7
1777452867.135998,2167,0,S_7
1777452867.138695,1813,0,S_7
1777452867.141377,1445,0,S_7
1777452867.144316,2014,0,S_7
1777452867.14731,2332,0,S_7
1777452867.156699,2235,0,S_7
1777452867.157536,1926,0,S_7
1777452867.160265,1231,0,S_7
1777452867.160595,1602,0,S_7
1777452867.163925,2496,0,S_7
1777452867.1670122,2287,0,S_7
1777452867.169971,1973,0,S_7
1777452867.174429,1747,0,S_7
1777452867.1752589,1663,0,S_7
1777452867.178497,2080,0,S_7
1777452867.180321,2270,0,S_7
1777452867.1833038,2213,0,S_7
1777452867.193019,1720,0,S_7
1777452867.196362,1533,0,S_7
1777452867.1965592,1673,0,S_7
1777452867.197176,2029,0,S_7
1777452867.1995609,2157,0,S_7
1777452867.201937,1840,0,S_7
1777452867.2057972,1775,0,S_7
1777452867.210401,1284,0,S_7
1777452867.2107708,1985,0,S_7
1777452867.213408,2321,0,S_7
1777452867.216207,2410,0,S_7
1777452867.219926,1936,0,S_7
1777452867.2225542,1903,0,S_7
1777452867.225227,1492,0,S_7
1777452867.2348092,2277,0,S_7
1777452867.23563,2480,0,S_7
1777452867.23706,2196,0,S_7
1777452867.239124,1629,0,S_7
1777452867.243547,1690,0,S_7
1777452867.243826,1836,0,S_7
1777452867.252574,2316,0,S_7
1777452867.252911,2295,0,S_7
1777452867.253203,2134,0,S_7
1777452867.2559302,1755,0,S_7
1777452867.258377,1713,0,S_7
1777452867.2611861,2307,0,S_7
1777452867.270635,2526,0,S_7
1777452867.273249,2251,0,S_7
1777452867.273539,1932,0,S_7
1777452867.273723,1764,0,S_7
1777452867.2776551,1829,0,S_7
1777452867.2799501,2398,0,S_7
1777452867.282895,2140,0,S_7
1777452867.287371,2090,0,S_7
1777452867.290743,1822,0,S_7
1777452867.291187,1814,0,S_7
1777452867.2941802,2108,0,S_7
1777452867.2971961,2414,0,S_7
1777452867.300192,2219,0,S_7
1777452867.3031838,2001,0,S_7
1777452867.3110552,1862,0,S_7
1777452867.312549,1893,0,S_7
1777452867.313362,2347,0,S_7
1777452867.318795,2520,0,S_7
1777452867.321858,2129,0,S_7
1777452867.3261938,1794,0,S_7
1777452867.330803,1704,0,S_7
1777452867.331311,2232,0,S_7
1777452867.3314922,2291,0,S_7
1777452867.335095,2404,0,S_7
1777452867.336433,2016,0,S_7
1777452867.33921,1720,0,S_7
1777452867.347518,1899,0,S_7
1777452867.348192,2243,0,S_7
1777452867.348877,2536,0,S_7
1777452867.351291,2057,0,S_7
1777452867.3558242,1849,0,S_7
1777452867.357654,1660,0,S_7
1777452867.363895,1957,0,S_7
1777452867.3644328,2435,0,S_7
1777452867.367454,2253,0,S_7
1777452867.369174,1950,0,S_7
1777452867.372179,1878,0,S_7
1777452867.3752031,1670,0,S_7
1777452867.378186,2305,0,S_7
1777452867.3811982,2340,0,S_7
1777452867.392013,2304,0,S_7
1777452867.394615,1811,0,S_7
1777452867.396555,1631,0,S_7
1777452867.3974369,1902,0,S_7
1777452867.398676,2305,0,S_7
1777452867.405731,2250,0,S_7
1777452867.406097,2016,0,S_7
1777452867.4067771,1740,0,S_7
1777452867.4097862,1687,0,S_7
1777452867.411166,2196,0,S_7
1777452867.414166,2251,0,S_7
1777452867.422872,2167,0,S_7
1777452867.4241862,1927,0,S_7
1777452867.424879,1517,0,S_7
1777452867.427076,1873,0,S_7
1777452867.429485,2312,0,S_7
1777452867.432493,2356,0,S_7
1777452867.439408,1947,0,S_7
1777452867.439988,1683,0,S_7
1777452867.443104,1627,0,S_7
1777452867.444434,2040,0,S_7
1777452867.4471822,2284,0,S_7
1777452867.450175,2165,0,S_7
1777452867.4531698,1839,0,S_7
1777452867.456199,1589,0,S_7
1777452867.4679208,1699,0,S_7
1777452867.4721951,2221,0,S_7
1777452867.473047,2252,0,S_7
1777452867.473852,2017,0,S_7
1777452867.474598,1792,0,S_7
1777452867.475251,1654,0,S_7
1777452867.481915,1999,0,S_7
1777452867.4821,2236,0,S_7
1777452867.485576,2215,0,S_7
1777452867.486055,1945,0,S_7
1777452867.4891798,1640,0,S_7
1777452867.4924202,1714,0,S_7
1777452867.523238,2239,0,S_7
1777452867.5233212,2214,0,S_7
1777452867.523366,2077,0,S_7
1777452867.523406,1804,0,S_7
1777452867.523446,1551,0,S_7
1777452867.523484,1959,0,S_7
1777452867.5235221,2286,0,S_7
1777452867.5235589,2174,0,S_7
1777452867.523596,1990,0,S_7
1777452867.523633,1659,0,S_7
1777452867.531625,1720,0,S_7
1777452867.531716,2079,0,S_7
1777452867.531771,2306,0,S_7
1777452867.544236,2160,0,S_7
1777452867.5445251,1834,0,S_7
1777452867.546922,1614,0,S_7
1777452867.550439,1877,0,S_7
1777452867.551272,2260,0,S_7
1777452867.554398,2303,0,S_7
1777452867.558778,2042,0,S_7
1777452867.5589702,1700,0,S_7
1777452867.559444,1675,0,S_7
1777452867.562774,2088,0,S_7
1777452867.564123,2333,0,S_7
1777452867.567049,2206,0,S_7
1777452867.5759559,1912,0,S_7
1777452867.577269,1529,0,S_7
1777452867.5794508,1790,0,S_7
1777452867.579722,2370,0,S_7
1777452867.591969,2356,0,S_7
1777452867.5923688,2106,0,S_7
1777452867.592808,1776,0,S_7
1777452867.593235,1736,0,S_7
1777452867.596577,2051,0,S_7
1777452867.597038,2360,0,S_7
1777452867.600054,2214,0,S_7
1777452867.6030452,1923,0,S_7
1777452867.606106,1580,0,S_7
1777452867.609062,1809,0,S_7
1777452867.6162298,2388,0,S_7
1777452867.6164281,2303,0,S_7
1777452867.620606,2145,0,S_7
1777452867.622825,1788,0,S_7
1777452867.624456,1702,0,S_7
1777452867.6294699,2056,0,S_7
1777452867.633915,2335,0,S_7
1777452867.63427,2236,0,S_7
1777452867.637453,1972,0,S_7
1777452867.6390479,1632,0,S_7
1777452867.6420429,1688,0,S_7
1777452867.649566,2187,0,S_7
1777452867.650211,2439,0,S_7
1777452867.6534579,2279,0,S_7
1777452867.65556,1934,0,S_7
1777452867.657163,1652,0,S_7
1777452867.666188,1883,0,S_7
1777452867.666351,2302,0,S_7
1777452867.6665258,2296,0,S_7
1777452867.6696022,1985,0,S_7
1777452867.672232,1826,0,S_7
1777452867.675088,1831,0,S_7
1777452867.67807,2125,0,S_7
1777452867.681056,2276,0,S_7
1777452867.691642,2068,0,S_7
1777452867.694314,1762,0,S_7
1777452867.694575,1475,0,S_7
1777452867.696796,2163,0,S_7
1777452867.697962,2464,0,S_7
1777452867.700751,2325,0,S_7
1777452867.7079418,2087,0,S_7
1777452867.708301,1708,0,S_7
1777452867.708801,1782,0,S_7
1777452867.711516,2301,0,S_7
1777452867.714127,2360,0,S_7
1777452867.717045,2175,0,S_7
1777452867.724607,1792,0,S_7
1777452867.724792,1577,0,S_7
1777452867.728662,1792,0,S_7
1777452867.7290502,2303,0,S_7
1777452867.7330182,2358,0,S_7
1777452867.7354639,2151,0,S_7
1777452867.74211,1838,0,S_7
1777452867.742353,1703,0,S_7
1777452867.745089,2103,0,S_7
1777452867.747735,2317,0,S_7
1777452867.750352,2170,0,S_7
1777452867.7530901,1926,0,S_7
1777452867.756042,1634,0,S_7
1777452867.7590442,1867,0,S_7
1777452867.7676868,2303,0,S_7
1777452867.768003,2376,0,S_7
1777452867.7682219,2108,0,S_7
1777452867.773419,1807,0,S_7
1777452867.7756622,1674,0,S_7
1777452867.780315,1990,0,S_7
1777452867.785333,2369,0,S_7
1777452867.786035,2288,0,S_7
1777452867.7889469,1971,0,S_7
1777452867.7891421,1689,0,S_7
1777452867.791937,1840,0,S_7
1777452867.794987,2261,0,S_7
1777452867.803458,2380,0,S_7
1777452867.8067389,2221,0,S_7
1777452867.806988,1804,0,S_7
1777452867.8072479,1627,0,S_7
1777452867.8103611,1989,0,S_7
1777452867.815552,2380,0,S_7
1777452867.8200178,2327,0,S_7
1777452867.8204942,2083,0,S_7
1777452867.823637,1756,0,S_7
1777452867.824964,1759,0,S_7
1777452867.8279328,2204,0,S_7
1777452867.8309278,2353,0,S_7
1777452867.83392,2216,0,S_7
1777452867.8369448,1871,0,S_7
1777452867.846358,1666,0,S_7
1777452867.848381,1959,0,S_7
1777452867.848764,2253,0,S_7
1777452867.8511941,2340,0,S_7
1777452867.8541021,2134,0,S_7
1777452867.8572328,1747,0,S_7
1777452867.86168,1665,0,S_7
1777452867.861848,2284,0,S_7
1777452867.865263,2349,0,S_7
1777452867.866938,2197,0,S_7
1777452867.8699431,1926,0,S_7
1777452867.876865,1570,0,S_7
1777452867.876974,1793,0,S_7
1777452867.8790321,2310,0,S_7
1777452867.883722,2363,0,S_7
1777452867.885333,2121,0,S_7
1777452867.889038,1842,0,S_7
1777452867.89324,1738,0,S_7
1777452867.896529,2084,0,S_7
1777452867.896954,2366,0,S_7
1777452867.899932,2255,0,S_7
1777452867.902921,2030,0,S_7
1777452867.905917,1692,0,S_7
1777452867.908911,1923,0,S_7
1777452867.916148,2257,0,S_7
1777452867.916832,2432,0,S_7
1777452867.919625,2106,0,S_7
1777452867.9223838,1790,0,S_7
1777452867.924483,1673,0,S_7
1777452867.927666,2161,0,S_7
1777452867.931909,2422,0,S_7
1777452867.93522,2171,0,S_7
1777452867.936532,1964,0,S_7
1777452867.939102,1690,0,S_7
1777452867.946937,1718,0,S_7
1777452867.947523,2327,0,S_7
1777452867.9490402,2281,0,S_7
1777452867.950968,2177,0,S_7
1777452867.954504,1821,0,S_7
1777452867.958499,1686,0,S_7
1777452867.962712,2075,0,S_7
1777452867.963076,2379,0,S_7
1777452867.96601,2265,0,S_7
1777452867.968939,2099,0,S_7
1777452867.97193,1690,0,S_7
1777452867.974943,1802,0,S_7
1777452867.977912,2197,0,S_7
1777452867.985187,2421,0,S_7
1777452867.985344,2146,0,S_7
1777452867.989064,1856,0,S_7
1777452867.991602,1633,0,S_7
1777452867.993634,2024,0,S_7
1777452867.997035,2374,0,S_7
1777452868.001395,2263,0,S_7
1777452868.0020149,2141,0,S_7
1777452868.005409,1779,0,S_7
1777452868.007982,1754,0,S_7
1777452868.016103,2120,0,S_7
1777452868.017668,2332,0,S_7
1777452868.020189,2197,0,S_7
1777452868.02068,1962,0,S_7
1777452868.025593,1651,0,S_7
1777452868.028783,1945,0,S_7
1777452868.02921,2425,0,S_7
1777452868.034325,2363,0,S_7
1777452868.035082,2184,0,S_7
1777452868.038495,1760,0,S_7
1777452868.041164,1746,0,S_7
1777452868.0439239,2133,0,S_7
1777452868.046952,2405,0,S_7
1777452868.04995,2275,0,S_7
1777452868.058793,1964,0,S_7
1777452868.059644,1646,0,S_7
1777452868.0604448,1797,0,S_7
1777452868.062953,2287,0,S_7
1777452868.0660322,2413,0,S_7
1777452868.068102,2200,0,S_7
1777452868.071297,1823,0,S_7
1777452868.0758662,1642,0,S_7
1777452868.07845,2040,0,S_7
1777452868.0798678,2365,0,S_7
1777452868.0828018,2312,0,S_7
1777452868.091358,1998,0,S_7
1777452868.0920472,1707,0,S_7
1777452868.09332,1808,0,S_7
1777452868.095493,2328,0,S_7
1777452868.098528,2373,0,S_7
1777452868.101504,2147,0,S_7
1777452868.107727,1861,0,S_7
1777452868.107899,1719,0,S_7
1777452868.111347,1984,0,S_7
1777452868.1128619,2328,0,S_7
1777452868.115805,2350,0,S_7
1777452868.118795,2059,0,S_7
1777452868.121831,1726,0,S_7
1777452868.124823,1711,0,S_7
1777452868.1312141,2245,0,S_7
1777452868.131943,2430,0,S_7
1777452868.135602,2188,0,S_7
1777452868.138011,1891,0,S_7
1777452868.140655,1657,0,S_7
1777452868.148159,1970,0,S_7
1777452868.1485991,2405,0,S_7
1777452868.148842,2372,0,S_7
1777452868.151894,2104,0,S_7
1777452868.154806,1759,0,S_7
1777452868.157836,1737,0,S_7
1777452868.163928,2213,0,S_7
1777452868.165168,2289,0,S_7
1777452868.1682692,2232,0,S_7
1777452868.171071,1953,0,S_7
1777452868.17314,1630,0,S_7
1777452868.176193,1919,0,S_7
1777452868.18047,2345,0,S_7
1777452868.183854,2355,0,S_7
1777452868.185169,2174,0,S_7
1777452868.187806,1836,0,S_7
1777452868.190816,1767,0,S_7
1777452868.193816,2166,0,S_7
1777452868.196816,2402,0,S_7
1777452868.202724,2264,0,S_7
1777452868.203722,1991,0,S_7
1777452868.206294,1645,0,S_7
1777452868.2101288,1822,0,S_7
1777452868.2127512,2373,0,S_7
1777452868.216637,2373,0,S_7
1777452868.219402,2103,0,S_7
1777452868.220816,1893,0,S_7
1777452868.223813,1754,0,S_7
1777452868.2307572,2005,0,S_7
1777452868.231816,2360,0,S_7
1777452868.2338402,2288,0,S_7
1777452868.236335,2027,0,S_7
1777452868.240874,1667,0,S_7
1777452868.247152,1836,0,S_7
1777452868.2473202,2340,0,S_7
1777452868.247802,2317,0,S_7
1777452868.2508008,2202,0,S_7
1777452868.254291,1937,0,S_7
1777452868.25691,1625,0,S_7
1777452868.259806,1974,0,S_7
1777452868.266975,2438,0,S_7
1777452868.2677839,2286,0,S_7
1777452868.270692,2006,0,S_7
1777452868.2735171,1755,0,S_7
1777452868.275629,1761,0,S_7
1777452868.27793,2271,0,S_7
1777452868.2816901,2404,0,S_7
1777452868.284639,2271,0,S_7
1777452868.287301,1904,0,S_7
1777452868.290123,1635,0,S_7
1777452868.295462,1985,0,S_7
1777452868.296136,2354,0,S_7
1777452868.301111,2344,0,S_7
1777452868.303334,2050,0,S_7
1777452868.305748,1814,0,S_7
1777452868.309389,1769,0,S_7
1777452868.3121002,2203,0,S_7
1777452868.313816,2409,0,S_7
1777452868.3166878,2279,0,S_7
1777452868.319687,1962,0,S_7
1777452868.3226821,1639,0,S_7
1777452868.3311412,1910,0,S_7
1777452868.3332129,2365,0,S_7
1777452868.333333,2345,0,S_7
1777452868.3354108,2085,0,S_7
1777452868.3400729,1785,0,S_7
1777452868.3438778,1700,0,S_7
1777452868.344065,2107,0,S_7
1777452868.347487,2386,0,S_7
1777452868.350063,2302,0,S_7
1777452868.357645,1969,0,S_7
1777452868.3586612,1674,0,S_7
1777452868.359264,1816,0,S_7
1777452868.363107,2291,0,S_7
1777452868.3653052,2355,0,S_7
1777452868.371233,2116,0,S_7
1777452868.371867,1858,0,S_7
1777452868.374549,1673,0,S_7
1777452868.377179,1987,0,S_7
1777452868.379662,2399,0,S_7
1777452868.3826602,2250,0,S_7
1777452868.385673,2043,0,S_7
1777452868.393831,1668,0,S_7
1777452868.3949819,1747,0,S_7
1777452868.395699,2220,0,S_7
1777452868.397896,2348,0,S_7
1777452868.401109,2166,0,S_7
1777452868.405611,1859,0,S_7
1777452868.409525,1630,0,S_7
1777452868.409736,2027,0,S_7
1777452868.413195,2387,0,S_7
1777452868.415765,2329,0,S_7
1777452868.422494,2080,0,S_7
1777452868.423877,1796,0,S_7
1777452868.4260328,1740,0,S_7
1777452868.428427,2219,0,S_7
1777452868.432705,2371,0,S_7
1777452868.436357,2207,0,S_7
1777452868.436833,1947,0,S_7
1777452868.440038,1635,0,S_7
1777452868.44273,1978,0,S_7
1777452868.4456792,2335,0,S_7
1777452868.4486651,2292,0,S_7
1777452868.451678,2047,0,S_7
1777452868.457789,1783,0,S_7
1777452868.4583292,1789,0,S_7
1777452868.4627688,2153,0,S_7
1777452868.4649742,2308,0,S_7
1777452868.468823,2201,0,S_7
1777452868.4762099,1988,0,S_7
1777452868.476476,1724,0,S_7
1777452868.47673,1817,0,S_7
1777452868.4793751,2334,0,S_7
1777452868.482214,2323,0,S_7
1777452868.487464,2111,0,S_7
1777452868.489038,1787,0,S_7
1777452868.491104,1675,0,S_7
1777452868.493705,2149,0,S_7
1777452868.499298,2408,0,S_7
1777452868.50382,2254,0,S_7
1777452868.504065,2021,0,S_7
1777452868.507242,1715,0,S_7
1777452868.508654,1812,0,S_7
1777452868.511659,2350,0,S_7
1777452868.514652,2353,0,S_7
1777452868.51767,2067,0,S_7
1777452868.5206552,1824,0,S_7
1777452868.5275252,1660,0,S_7
1777452868.5287738,2034,0,S_7
1777452868.530951,2381,0,S_7
1777452868.5334568,2306,0,S_7
1777452868.535933,2040,0,S_7
1777452868.541545,1708,0,S_7
1777452868.541856,1760,0,S_7
1777452868.5451672,2314,0,S_7
1777452868.547738,2435,0,S_7
1777452868.5544808,2154,0,S_7
1777452868.555062,1825,0,S_7
1777452868.5578601,1621,0,S_7
1777452868.5603552,1973,0,S_7
1777452868.564503,2357,0,S_7
1777452868.5681322,2327,0,S_7
1777452868.568665,2062,0,S_7
1777452868.5717702,1754,0,S_7
1777452868.574548,1753,0,S_7
1777452868.5775309,2251,0,S_7
1777452868.580544,2321,0,S_7
1777452868.588575,2185,0,S_7
1777452868.5895412,1927,0,S_7
1777452868.5896661,1622,0,S_7
1777452868.59343,1864,0,S_7
1777452868.598049,2293,0,S_7
1777452868.6020422,2288,0,S_7
1777452868.602491,2043,0,S_7
1777452868.6056378,1766,0,S_7
1777452868.607549,1734,0,S_7
1777452868.6105978,2148,0,S_7
1777452868.621509,2408,0,S_7
1777452868.6221042,2292,0,S_7
1777452868.6251361,1906,0,S_7
1777452868.62593,1736,0,S_7
1777452868.626071,1869,0,S_7
1777452868.6301801,2315,0,S_7
1777452868.6341372,2283,0,S_7
1777452868.634559,2101,0,S_7
1777452868.63788,1749,0,S_7
1777452868.640548,1676,0,S_7
1777452868.643553,2058,0,S_7
1777452868.646544,2340,0,S_7
1777452868.649535,2252,0,S_7
1777452868.657155,1999,0,S_7
1777452868.658514,1647,0,S_7
1777452868.659245,1930,0,S_7
1777452868.661823,2275,0,S_7
1777452868.6650088,2336,0,S_7
1777452868.668631,2171,0,S_7
1777452868.6725051,1792,0,S_7
1777452868.6757069,1626,0,S_7
1777452868.677044,2008,0,S_7
1777452868.6796212,2322,0,S_7
1777452868.688542,2304,0,S_7
1777452868.689176,2027,0,S_7
1777452868.689853,1705,0,S_7
1777452868.692291,1726,0,S_7
1777452868.694983,2266,0,S_7
1777452868.699275,2394,0,S_7
1777452868.70306,2175,0,S_7
1777452868.703578,1889,0,S_7
1777452868.706818,1605,0,S_7
1777452868.7095602,1977,0,S_7
1777452868.712557,2299,0,S_7
1777452868.7155268,2291,0,S_7
1777452868.718535,2041,0,S_7
1777452868.7236469,1709,0,S_7
1777452868.725002,1756,0,S_7
1777452868.7292979,2205,0,S_7
1777452868.731682,2345,0,S_7
1777452868.733957,2216,0,S_7
1777452868.737683,1914,0,S_7
1777452868.740371,1615,0,S_7
1777452868.742957,1948,0,S_7
1777452868.745555,2369,0,S_7
1777452868.7521899,2302,0,S_7
1777452868.753696,2093,0,S_7
1777452868.7572548,1777,0,S_7
1777452868.757914,1732,0,S_7
1777452868.7657669,2109,0,S_7
1777452868.766028,2361,0,S_7
1777452868.7683682,2253,0,S_7
1777452868.769687,1910,0,S_7
1777452868.772537,1619,0,S_7
1777452868.775537,1901,0,S_7
1777452868.778529,2329,0,S_7
1777452868.786216,2320,0,S_7
1777452868.78689,2105,0,S_7
1777452868.787904,1831,0,S_7
1777452868.792686,1688,0,S_7
1777452868.7967732,2146,0,S_7
1777452868.796992,2331,0,S_7
1777452868.8007958,2277,0,S_7
1777452868.803366,1974,0,S_7
1777452868.8059468,1665,0,S_7
1777452868.808616,1835,0,S_7
1777452868.814186,2291,0,S_7
1777452868.8147368,2335,0,S_7
1777452868.8195682,2131,0,S_7
1777452868.822277,1834,0,S_7
1777452868.824163,1686,0,S_7
1777452868.8280709,2035,0,S_7
1777452868.8306592,2386,0,S_7
1777452868.832542,2287,0,S_7
1777452868.835544,2034,0,S_7
1777452868.838521,1696,0,S_7
1777452868.841513,1845,0,S_7
1777452868.8487139,2306,0,S_7
1777452868.849887,2422,0,S_7
1777452868.852486,2199,0,S_7
1777452868.854987,1879,0,S_7
1777452868.856885,1597,0,S_7
1777452868.85969,1978,0,S_7
1777452868.863327,2349,0,S_7
1777452868.8660579,2300,0,S_7
1777452868.868638,2042,0,S_7
1777452868.875713,1701,0,S_7
1777452868.876215,1699,0,S_7
1777452868.877795,2242,0,S_7
1777452868.881262,2368,0,S_7
1777452868.885792,2227,0,S_7
1777452868.88956,2009,0,S_7
1777452868.889686,1639,0,S_7
1777452868.892694,1914,0,S_7
1777452868.895414,2356,0,S_7
1777452868.8984,2296,0,S_7
1777452868.9014132,2021,0,S_7
1777452868.9044192,1685,0,S_7
1777452868.91422,1686,0,S_7
1777452868.918307,2157,0,S_7
1777452868.919042,2331,0,S_7
1777452868.925604,2247,0,S_7
1777452868.9262779,1936,0,S_7
1777452868.9268632,1633,0,S_7
1777452868.927128,1921,0,S_7
1777452868.929761,2389,0,S_7
1777452868.9313989,2386,0,S_7
1777452868.9344032,2110,0,S_7
1777452868.940795,1795,0,S_7
1777452868.942572,1662,0,S_7
1777452868.94473,2118,0,S_7
1777452868.9474251,2307,0,S_7
1777452868.9520168,2265,0,S_7
1777452868.956841,1931,0,S_7
1777452868.957292,1673,0,S_7
1777452868.960418,1887,0,S_7
1777452868.9617379,2212,0,S_7
1777452868.964428,2302,0,S_7
1777452868.967424,2138,0,S_7
1777452868.97044,1884,0,S_7
1777452868.9734058,1666,0,S_7
1777452868.980862,2046,0,S_7
1777452868.98161,2340,0,S_7
1777452868.984703,2278,0,S_7
1777452868.987217,2030,0,S_7
1777452868.989569,1714,0,S_7
1777452868.993301,1734,0,S_7
1777452868.997798,2227,0,S_7
1777452868.998014,2312,0,S_7
1777452869.00156,2163,0,S_7
1777452869.003392,1870,0,S_7
1777452869.0064042,1655,0,S_7
1777452869.013931,2026,0,S_7
1777452869.015166,2309,0,S_7
1777452869.017785,2391,0,S_7
1777452869.020494,2028,0,S_7
1777452869.0225768,1780,0,S_7
1777452869.0265129,1734,0,S_7
1777452869.033897,2190,0,S_7
1777452869.033972,2352,0,S_7
1777452869.0340228,2137,0,S_7
1777452869.036563,1871,0,S_7
1777452869.039403,1658,0,S_7
1777452869.0423858,1906,0,S_7
1777452869.045387,2253,0,S_7
1777452869.048573,2315,0,S_7
1777452869.0552828,2081,0,S_7
1777452869.055997,1770,0,S_7
1777452869.058969,1787,0,S_7
1777452869.061358,2172,0,S_7
1777452869.064327,2333,0,S_7
1777452869.0712671,2267,0,S_7
1777452869.071758,1933,0,S_7
1777452869.075028,1667,0,S_7
1777452869.075396,1846,0,S_7
1777452869.078401,2324,0,S_7
1777452869.081405,2263,0,S_7
1777452869.088537,2112,0,S_7
1777452869.090427,1757,0,S_7
1777452869.092352,1652,0,S_7
1777452869.0947661,2144,0,S_7
1777452869.096479,2399,0,S_7
1777452869.100638,2242,0,S_7
1777452869.1053,1950,0,S_7
1777452869.1055439,1630,0,S_7
1777452869.108727,1825,0,S_7
1777452869.111402,2328,0,S_7
1777452869.114398,2321,0,S_7
1777452869.117397,2085,0,S_7
1777452869.12039,1821,0,S_7
1777452869.129946,1664,0,S_7
1777452869.131231,2092,0,S_7
1777452869.133524,2385,0,S_7
1777452869.136128,2302,0,S_7
1777452869.1367831,1944,0,S_7
1777452869.1386151,1643,0,S_7
1777452869.142582,1804,0,S_7
1777452869.147138,2301,0,S_7
1777452869.1474922,2302,0,S_7
1777452869.1508439,2122,0,S_7
1777452869.153455,1890,0,S_7
1777452869.1563919,1691,0,S_7
1777452869.1640372,1954,0,S_7
1777452869.164763,2344,0,S_7
1777452869.165618,2313,0,S_7
1777452869.1706119,2079,0,S_7
1777452869.1727638,1710,0,S_7
1777452869.176668,1727,0,S_7
1777452869.181216,2236,0,S_7
1777452869.1818008,2283,0,S_7
1777452869.1848462,2210,0,S_7
1777452869.186265,1860,0,S_7
1777452869.189276,1666,0,S_7
1777452869.192279,2008,0,S_7
1777452869.195285,2307,0,S_7
1777452869.198289,2280,0,S_7
1777452869.205496,2057,0,S_7
1777452869.2056162,1714,0,S_7
1777452869.20736,1733,0,S_7
1777452869.21337,2153,0,S_7
1777452869.214151,2327,0,S_7
1777452869.21823,2231,0,S_7
1777452869.2230349,1895,0,S_7
1777452869.2232032,1595,0,S_7
1777452869.226867,1907,0,S_7
1777452869.228283,2390,0,S_7
1777452869.231277,2373,0,S_7
1777452869.239582,2048,0,S_7
1777452869.240708,1787,0,S_7
1777452869.241379,1721,0,S_7
1777452869.244176,2063,0,S_7
1777452869.2475278,2345,0,S_7
1777452869.250188,2222,0,S_7
1777452869.2532978,1966,0,S_7
1777452869.257552,1642,0,S_7
1777452869.2603,1842,0,S_7
1777452869.2616289,2260,0,S_7
1777452869.264301,2389,0,S_7
1777452869.2672892,2118,0,S_7
1777452869.270286,1820,0,S_7
1777452869.273257,1698,0,S_7
1777452869.281972,2065,0,S_7
1777452869.283678,2284,0,S_7
1777452869.285507,2310,0,S_7
1777452869.285623,1981,0,S_7
1777452869.288621,1693,0,S_7
1777452869.291789,1792,0,S_7
1777452869.298044,2243,0,S_7
1777452869.298248,2330,0,S_7
1777452869.301468,2182,0,S_7
1777452869.30328,1943,0,S_7
1777452869.306305,1637,0,S_7
1777452869.3138711,1959,0,S_7
1777452869.315583,2339,0,S_7
1777452869.3161001,2248,0,S_7
1777452869.3204339,2043,0,S_7
1777452869.322925,1729,0,S_7
1777452869.3261352,1773,0,S_7
1777452869.330175,2145,0,S_7
1777452869.330337,2334,0,S_7
1777452869.3337421,2232,0,S_7
1777452869.33632,1962,0,S_7
1777452869.339263,1626,0,S_7
1777452869.342303,1892,0,S_7
1777452869.345296,2336,0,S_7
1777452869.3532622,2364,0,S_7
1777452869.3534122,2087,0,S_7
1777452869.354806,1704,0,S_7
1777452869.359367,1711,0,S_7
1777452869.361363,2167,0,S_7
1777452869.3642938,2385,0,S_7
1777452869.3684218,2203,0,S_7
1777452869.3716638,1930,0,S_7
1777452869.372266,1678,0,S_7
1777452869.375296,1896,0,S_7
1777452869.384021,2385,0,S_7
1777452869.384174,2307,0,S_7
1777452869.384774,2131,0,S_7
1777452869.3875132,1750,0,S_7
1777452869.391135,1686,0,S_7
1777452869.395155,2114,0,S_7
1777452869.3995662,2386,0,S_7
1777452869.399772,2177,0,S_7
1777452869.4028108,1947,0,S_7
1777452869.4053912,1639,0,S_7
1777452869.408301,1820,0,S_7
1777452869.411298,2274,0,S_7
1777452869.4142752,2376,0,S_7
1777452869.421504,2149,0,S_7
1777452869.421652,1879,0,S_7
1777452869.4237142,1649,0,S_7
1777452869.42882,2059,0,S_7
1777452869.429837,2410,0,S_7
1777452869.4330702,2316,0,S_7
1777452869.4367192,1968,0,S_7
1777452869.439373,1738,0,S_7
1777452869.441984,1783,0,S_7
1777452869.444299,2255,0,S_7
1777452869.4501371,2350,0,S_7
1777452869.4507048,2129,0,S_7
1777452869.454994,1859,0,S_7
1777452869.4565718,1621,0,S_7
1777452869.459506,2013,0,S_7
1777452869.4631958,2380,0,S_7
1777452869.4687989,2307,0,S_7
1777452869.468838,2011,0,S_7
1777452869.47211,1754,0,S_7
1777452869.474169,1745,0,S_7
1777452869.4771461,2268,0,S_7
1777452869.4854221,2364,0,S_7
1777452869.486315,2216,0,S_7
1777452869.4892092,1913,0,S_7
1777452869.492157,1606,0,S_7
1777452869.4934862,1900,0,S_7
1777452869.496939,2359,0,S_7
1777452869.5008,2341,0,S_7
1777452869.50124,2073,0,S_7
1777452869.5045462,1795,0,S_7
1777452869.507155,1717,0,S_7
1777452869.510323,2172,0,S_7
1777452869.5131378,2417,0,S_7
1777452869.5161421,2224,0,S_7
