timestamp,ch1,ch2,label
1777452150.9158201,1767,0,S_ɑ
1777452150.918855,1849,0,S_ɑ
1777452150.92725,2204,0,S_ɑ
1777452150.9304252,2284,0,S_ɑ
1777452150.93046,2165,0,S_ɑ
1777452150.930486,1934,0,S_ɑ
1777452150.933082,1780,0,S_ɑ
1777452150.936909,1944,0,S_ɑ
1777452150.939578,2277,0,S_ɑ
1777452150.943955,2339,0,S_ɑ
1777452150.9468942,2069,0,S_ɑ
1777452150.949467,1788,0,S_ɑ
1777452150.9520829,1798,0,S_ɑ
1777452150.955012,2157,0,S_ɑ
1777452150.957567,2303,0,S_ɑ
1777452150.960223,2150,0,S_ɑ
1777452150.963136,2062,0,S_ɑ
1777452150.9677691,1767,0,S_ɑ
1777452150.970421,1925,0,S_ɑ
1777452150.972467,2281,0,S_ɑ
1777452150.975533,2288,0,S_ɑ
1777452150.978245,2104,0,S_ɑ
1777452150.981087,1906,0,S_ɑ
1777452150.9840808,1794,0,S_ɑ
1777452150.987701,2033,0,S_ɑ
1777452150.9936051,2284,0,S_ɑ
1777452150.994804,2250,0,S_ɑ
1777452150.9969778,2004,0,S_ɑ
1777452150.999769,1791,0,S_ɑ
1777452151.0025651,1878,0,S_ɑ
1777452151.0051289,2232,0,S_ɑ
1777452151.0080771,2328,0,S_ɑ
1777452151.0110898,2105,0,S_ɑ
1777452151.0157719,1871,0,S_ɑ
1777452151.01823,1770,0,S_ɑ
1777452151.0201752,2058,0,S_ɑ
1777452151.023423,2296,0,S_ɑ
1777452151.0262778,2213,0,S_ɑ
1777452151.029087,2007,0,S_ɑ
1777452151.032075,1804,0,S_ɑ
1777452151.0356941,1880,0,S_ɑ
1777452151.0421429,2195,0,S_ɑ
1777452151.043075,2292,0,S_ɑ
1777452151.046465,2147,0,S_ɑ
1777452151.0472362,1938,0,S_ɑ
1777452151.052156,1773,0,S_ɑ
1777452151.053466,2026,0,S_ɑ
1777452151.056094,2272,0,S_ɑ
1777452151.059073,2263,0,S_ɑ
1777452151.065863,2031,0,S_ɑ
1777452151.0662882,1782,0,S_ɑ
1777452151.068568,1818,0,S_ɑ
1777452151.072169,2240,0,S_ɑ
1777452151.074357,2322,0,S_ɑ
1777452151.077504,2151,0,S_ɑ
1777452151.080072,1919,0,S_ɑ
1777452151.083061,1758,0,S_ɑ
1777452151.088724,2000,0,S_ɑ
1777452151.08914,2321,0,S_ɑ
1777452151.092641,2256,0,S_ɑ
1777452151.0956311,2071,0,S_ɑ
1777452151.09855,1817,0,S_ɑ
1777452151.101111,1767,0,S_ɑ
1777452151.1041028,2101,0,S_ɑ
1777452151.107095,2335,0,S_ɑ
1777452151.1115541,2236,0,S_ɑ
1777452151.113539,1943,0,S_ɑ
1777452151.116676,1705,0,S_ɑ
1777452151.12112,1922,0,S_ɑ
1777452151.122421,2305,0,S_ɑ
1777452151.12511,2256,0,S_ɑ
1777452151.128108,2074,0,S_ɑ
1777452151.134057,1885,0,S_ɑ
1777452151.134468,1805,0,S_ɑ
1777452151.138439,2035,0,S_ɑ
1777452151.141242,2294,0,S_ɑ
1777452151.1442199,2191,0,S_ɑ
1777452151.146114,2009,0,S_ɑ
1777452151.149091,1732,0,S_ɑ
1777452151.15211,1884,0,S_ɑ
1777452151.156899,2242,0,S_ɑ
1777452151.15913,2288,0,S_ɑ
1777452151.1611829,2122,0,S_ɑ
1777452151.1667469,1894,0,S_ɑ
1777452151.167113,1770,0,S_ɑ
1777452151.170099,2061,0,S_ɑ
1777452151.173111,2252,0,S_ɑ
1777452151.176085,2295,0,S_ɑ
1777452151.1796942,2057,0,S_ɑ
1777452151.182158,1837,0,S_ɑ
1777452151.185341,1774,0,S_ɑ
1777452151.1898031,2221,0,S_ɑ
1777452151.19111,2324,0,S_ɑ
1777452151.1940749,2063,0,S_ɑ
1777452151.197101,1872,0,S_ɑ
1777452151.202424,1725,0,S_ɑ
1777452151.204779,1989,0,S_ɑ
1777452151.206508,2318,0,S_ɑ
1777452151.209491,2238,0,S_ɑ
1777452151.212394,2093,0,S_ɑ
1777452151.215086,1871,0,S_ɑ
1777452151.218082,1854,0,S_ɑ
1777452151.221107,2162,0,S_ɑ
1777452151.225576,2263,0,S_ɑ
1777452151.227614,2187,0,S_ɑ
1777452151.231147,1947,0,S_ɑ
1777452151.233459,1690,0,S_ɑ
1777452151.236425,1864,0,S_ɑ
1777452151.239079,2301,0,S_ɑ
1777452151.2421062,2289,0,S_ɑ
1777452151.245124,2104,0,S_ɑ
1777452151.249129,1881,0,S_ɑ
1777452151.251083,1776,0,S_ɑ
1777452151.2541802,2081,0,S_ɑ
1777452151.2571158,2259,0,S_ɑ
1777452151.260114,2184,0,S_ɑ
1777452151.263725,1959,0,S_ɑ
1777452151.2662761,1684,0,S_ɑ
1777452151.272109,1924,0,S_ɑ
1777452151.272193,2275,0,S_ɑ
1777452151.276223,2249,0,S_ɑ
1777452151.279262,2146,0,S_ɑ
1777452151.282083,1878,0,S_ɑ
1777452151.2846432,1799,0,S_ɑ
1777452151.287193,2032,0,S_ɑ
1777452151.29007,2299,0,S_ɑ
1777452151.296899,2230,0,S_ɑ
1777452151.297256,2032,0,S_ɑ
1777452151.300052,1733,0,S_ɑ
1777452151.3041668,1805,0,S_ɑ
1777452151.306165,2227,0,S_ɑ
1777452151.308722,2291,0,S_ɑ
1777452151.311285,2122,0,S_ɑ
1777452151.3139782,1892,0,S_ɑ
1777452151.319964,1786,0,S_ɑ
1777452151.3211122,1942,0,S_ɑ
1777452151.3234901,2264,0,S_ɑ
1777452151.3269958,2240,0,S_ɑ
1777452151.3290088,2072,0,S_ɑ
1777452151.332713,1762,0,S_ɑ
1777452151.335257,1732,0,S_ɑ
1777452151.3412669,2121,0,S_ɑ
1777452151.342467,2313,0,S_ɑ
1777452151.344277,2184,0,S_ɑ
1777452151.347383,1871,0,S_ɑ
1777452151.3501801,1779,0,S_ɑ
1777452151.352983,1951,0,S_ɑ
1777452151.355953,2267,0,S_ɑ
1777452151.3589828,2276,0,S_ɑ
1777452151.365163,1935,0,S_ɑ
1777452151.366977,1816,0,S_ɑ
1777452151.368789,1771,0,S_ɑ
1777452151.371758,2114,0,S_ɑ
1777452151.374878,2191,0,S_ɑ
1777452151.377582,2141,0,S_ɑ
1777452151.380172,1994,0,S_ɑ
1777452151.382941,1703,0,S_ɑ
1777452151.3876522,1887,0,S_ɑ
1777452151.39007,2348,0,S_ɑ
1777452151.392116,2382,0,S_ɑ
1777452151.3960278,2093,0,S_ɑ
1777452151.39803,1895,0,S_ɑ
1777452151.4009442,1675,0,S_ɑ
1777452151.403955,2012,0,S_ɑ
1777452151.406945,2346,0,S_ɑ
1777452151.411036,2171,0,S_ɑ
1777452151.4149609,1874,0,S_ɑ
1777452151.41682,1699,0,S_ɑ
1777452151.4195042,1692,0,S_ɑ
1777452151.422272,2242,0,S_ɑ
1777452151.425117,2304,0,S_ɑ
1777452151.427937,2248,0,S_ɑ
1777452151.43451,1857,0,S_ɑ
1777452151.434596,1786,0,S_ɑ
1777452151.43824,2078,0,S_ɑ
1777452151.440372,2367,0,S_ɑ
1777452151.4430778,2297,0,S_ɑ
1777452151.4459388,2076,0,S_ɑ
1777452151.44896,1706,0,S_ɑ
1777452151.4519339,1813,0,S_ɑ
1777452151.457547,2264,0,S_ɑ
1777452151.458921,2371,0,S_ɑ
1777452151.4628952,2162,0,S_ɑ
1777452151.464778,1977,0,S_ɑ
1777452151.468284,1758,0,S_ɑ
1777452151.470025,2042,0,S_ɑ
1777452151.472945,2349,0,S_ɑ
1777452151.4759622,2390,0,S_ɑ
1777452151.489377,2114,0,S_ɑ
1777452151.4898088,1808,0,S_ɑ
1777452151.492634,1853,0,S_ɑ
1777452151.492699,2201,0,S_ɑ
1777452151.49282,2359,0,S_ɑ
1777452151.494794,2269,0,S_ɑ
1777452151.497353,2013,0,S_ɑ
1777452151.499941,1733,0,S_ɑ
1777452151.502943,1976,0,S_ɑ
1777452151.507791,2395,0,S_ɑ
1777452151.510292,2347,0,S_ɑ
1777452151.512268,2115,0,S_ɑ
1777452151.515352,1862,0,S_ɑ
1777452151.518382,1774,0,S_ɑ
1777452151.5210161,2200,0,S_ɑ
1777452151.5239801,2372,0,S_ɑ
1777452151.52695,2295,0,S_ɑ
1777452151.532044,2076,0,S_ɑ
1777452151.5338209,1830,0,S_ɑ
1777452151.537017,1930,0,S_ɑ
1777452151.5399702,2399,0,S_ɑ
1777452151.5419729,2391,0,S_ɑ
1777452151.544972,2257,0,S_ɑ
1777452151.5479848,1908,0,S_ɑ
1777452151.554372,1926,0,S_ɑ
1777452151.555444,2062,0,S_ɑ
1777452151.558291,2516,0,S_ɑ
1777452151.56018,2525,0,S_ɑ
1777452151.563137,2196,0,S_ɑ
1777452151.5659342,1797,0,S_ɑ
1777452151.568976,1949,0,S_ɑ
1777452151.5719419,2584,0,S_ɑ
1777452151.577614,2482,0,S_ɑ
1777452151.5780091,2354,0,S_ɑ
1777452151.5816588,2238,0,S_ɑ
1777452151.584642,2062,0,S_ɑ
1777452151.5879529,2369,0,S_ɑ
1777452151.590544,2575,0,S_ɑ
1777452151.5931032,2661,0,S_ɑ
1777452151.59599,2658,0,S_ɑ
1777452151.600755,2329,0,S_ɑ
1777452151.6029172,2246,0,S_ɑ
1777452151.605917,2668,0,S_ɑ
1777452151.60896,2994,0,S_ɑ
1777452151.610979,2742,0,S_ɑ
1777452151.613976,2695,0,S_ɑ
1777452151.61694,2199,0,S_ɑ
1777452151.619949,2563,0,S_ɑ
1777452151.6241012,2949,0,S_ɑ
1777452151.626614,2903,0,S_ɑ
1777452151.629519,2735,0,S_ɑ
1777452151.632822,2475,0,S_ɑ
1777452151.635027,2482,0,S_ɑ
1777452151.637973,2637,0,S_ɑ
1777452151.640976,3157,0,S_ɑ
1777452151.647957,3050,0,S_ɑ
1777452151.6480699,2671,0,S_ɑ
1777452151.650144,2617,0,S_ɑ
1777452151.6533198,2610,0,S_ɑ
1777452151.6564128,3035,0,S_ɑ
1777452151.6592581,3106,0,S_ɑ
1777452151.662258,2945,0,S_ɑ
1777452151.664939,2937,0,S_ɑ
1777452151.6679628,2927,0,S_ɑ
1777452151.674313,3212,0,S_ɑ
1777452151.676097,3591,0,S_ɑ
1777452151.678758,3476,0,S_ɑ
1777452151.68204,3302,0,S_ɑ
1777452151.6839838,3126,0,S_ɑ
1777452151.686215,3077,0,S_ɑ
1777452151.688981,3494,0,S_ɑ
1777452151.695209,3471,0,S_ɑ
1777452151.696185,3215,0,S_ɑ
1777452151.6997209,2949,0,S_ɑ
1777452151.7035468,2747,0,S_ɑ
1777452151.705365,3037,0,S_ɑ
1777452151.707743,3049,0,S_ɑ
1777452151.710191,3301,0,S_ɑ
1777452151.7129622,2908,0,S_ɑ
1777452151.71595,2642,0,S_ɑ
1777452151.723024,2870,0,S_ɑ
1777452151.725587,3092,0,S_ɑ
1777452151.7284732,3006,0,S_ɑ
1777452151.729467,2976,0,S_ɑ
1777452151.731601,2462,0,S_ɑ
1777452151.735795,2599,0,S_ɑ
1777452151.73721,2685,0,S_ɑ
1777452151.743726,2745,0,S_ɑ
1777452151.747203,2842,0,S_ɑ
1777452151.747411,2666,0,S_ɑ
1777452151.749907,2372,0,S_ɑ
1777452151.753345,2345,0,S_ɑ
1777452151.7576451,2649,0,S_ɑ
1777452151.757952,2757,0,S_ɑ
1777452151.760946,2665,0,S_ɑ
1777452151.76394,2332,0,S_ɑ
1777452151.7669451,2221,0,S_ɑ
1777452151.772737,2315,0,S_ɑ
1777452151.775386,2542,0,S_ɑ
1777452151.777159,2682,0,S_ɑ
1777452151.779681,2492,0,S_ɑ
1777452151.7836428,2224,0,S_ɑ
1777452151.785575,2208,0,S_ɑ
1777452151.7882738,2094,0,S_ɑ
1777452151.7977622,2503,0,S_ɑ
1777452151.798002,2590,0,S_ɑ
1777452151.800234,2224,0,S_ɑ
1777452151.801207,2155,0,S_ɑ
1777452151.804106,2191,0,S_ɑ
1777452151.806148,2448,0,S_ɑ
1777452151.8093271,2518,0,S_ɑ
1777452151.812172,2324,0,S_ɑ
1777452151.814971,2163,0,S_ɑ
1777452151.817954,1865,0,S_ɑ
1777452151.824063,2151,0,S_ɑ
1777452151.825797,2498,0,S_ɑ
1777452151.828228,2301,0,S_ɑ
1777452151.830183,2097,0,S_ɑ
1777452151.833865,1866,0,S_ɑ
1777452151.836288,2015,0,S_ɑ
1777452151.838919,2288,0,S_ɑ
1777452151.8458,2298,0,S_ɑ
1777452151.846396,1930,0,S_ɑ
1777452151.848268,2027,0,S_ɑ
1777452151.8525288,1802,0,S_ɑ
1777452151.854265,2057,0,S_ɑ
1777452151.856888,2256,0,S_ɑ
1777452151.860034,2254,0,S_ɑ
1777452151.862838,2257,0,S_ɑ
1777452151.865889,1983,0,S_ɑ
1777452151.869555,1918,0,S_ɑ
1777452151.874709,2171,0,S_ɑ
1777452151.87656,2178,0,S_ɑ
1777452151.879764,2136,0,S_ɑ
1777452151.881929,1966,0,S_ɑ
1777452151.885024,1796,0,S_ɑ
1777452151.887635,1946,0,S_ɑ
1777452151.890274,2235,0,S_ɑ
1777452151.892919,2248,0,S_ɑ
1777452151.9017,2054,0,S_ɑ
1777452151.902314,1830,0,S_ɑ
1777452151.902588,1879,0,S_ɑ
1777452151.906035,2046,0,S_ɑ
1777452151.9086442,2194,0,S_ɑ
1777452151.911218,2144,0,S_ɑ
1777452151.914125,1971,0,S_ɑ
1777452151.917374,1829,0,S_ɑ
1777452151.920012,1947,0,S_ɑ
1777452151.923121,2166,0,S_ɑ
1777452151.926677,2180,0,S_ɑ
1777452151.9332612,2040,0,S_ɑ
1777452151.934027,1880,0,S_ɑ
1777452151.936455,1814,0,S_ɑ
1777452151.939334,2043,0,S_ɑ
1777452151.9415019,2209,0,S_ɑ
1777452151.946079,2158,0,S_ɑ
1777452151.948747,1979,0,S_ɑ
1777452151.950094,1794,0,S_ɑ
1777452151.952824,1899,0,S_ɑ
1777452151.959349,2181,0,S_ɑ
1777452151.9599411,2219,0,S_ɑ
1777452151.963849,2059,0,S_ɑ
1777452151.9659588,1934,0,S_ɑ
1777452151.9683478,1790,0,S_ɑ
1777452151.9709089,1986,0,S_ɑ
1777452151.973813,2173,0,S_ɑ
1777452151.97681,2132,0,S_ɑ
1777452151.979806,1971,0,S_ɑ
1777452151.982811,1761,0,S_ɑ
1777452151.9906812,1807,0,S_ɑ
1777452151.991296,2114,0,S_ɑ
1777452151.991912,2221,0,S_ɑ
1777452151.996337,2143,0,S_ɑ
1777452152.00015,1946,0,S_ɑ
1777452152.003045,1858,0,S_ɑ
1777452152.006167,2018,0,S_ɑ
1777452152.006814,2157,0,S_ɑ
1777452152.009821,2138,0,S_ɑ
1777452152.0169332,2059,0,S_ɑ
1777452152.0186229,1877,0,S_ɑ
1777452152.020496,1838,0,S_ɑ
1777452152.023701,2060,0,S_ɑ
1777452152.027854,2215,0,S_ɑ
1777452152.03076,2164,0,S_ɑ
1777452152.030957,1973,0,S_ɑ
1777452152.0339499,1863,0,S_ɑ
1777452152.036816,1936,0,S_ɑ
1777452152.039812,2149,0,S_ɑ
1777452152.042808,2052,0,S_ɑ
1777452152.046092,2128,0,S_ɑ
1777452152.05289,1906,0,S_ɑ
1777452152.054056,1819,0,S_ɑ
1777452152.056,1968,0,S_ɑ
1777452152.058528,2211,0,S_ɑ
1777452152.0631711,2147,0,S_ɑ
1777452152.0663528,2047,0,S_ɑ
1777452152.0669692,1831,0,S_ɑ
1777452152.070976,1934,0,S_ɑ
1777452152.0728168,2206,0,S_ɑ
1777452152.082307,2260,0,S_ɑ
1777452152.084167,2121,0,S_ɑ
1777452152.084592,1941,0,S_ɑ
1777452152.086761,1838,0,S_ɑ
1777452152.0891361,2122,0,S_ɑ
1777452152.091977,2234,0,S_ɑ
1777452152.095045,2121,0,S_ɑ
1777452152.097883,1994,0,S_ɑ
1777452152.100568,1839,0,S_ɑ
1777452152.103083,1869,0,S_ɑ
1777452152.10582,2201,0,S_ɑ
1777452152.1088152,2206,0,S_ɑ
1777452152.117196,2066,0,S_ɑ
1777452152.119379,2038,0,S_ɑ
1777452152.119495,1854,0,S_ɑ
1777452152.121781,2121,0,S_ɑ
1777452152.125054,2240,0,S_ɑ
1777452152.127136,2184,0,S_ɑ
1777452152.129952,2033,0,S_ɑ
1777452152.133558,1888,0,S_ɑ
1777452152.136278,1931,0,S_ɑ
1777452152.1439822,2222,0,S_ɑ
1777452152.145018,2246,0,S_ɑ
1777452152.1467478,2137,0,S_ɑ
1777452152.149786,1924,0,S_ɑ
1777452152.1521149,1816,0,S_ɑ
1777452152.1540601,2004,0,S_ɑ
1777452152.157037,2251,0,S_ɑ
1777452152.1599512,2197,0,S_ɑ
1777452152.162815,2029,0,S_ɑ
1777452152.165827,1900,0,S_ɑ
1777452152.168822,1896,0,S_ɑ
1777452152.1718478,2170,0,S_ɑ
1777452152.1777658,2264,0,S_ɑ
1777452152.178931,2196,0,S_ɑ
1777452152.181142,1969,0,S_ɑ
1777452152.185882,1812,0,S_ɑ
1777452152.188271,1967,0,S_ɑ
1777452152.1938071,2212,0,S_ɑ
1777452152.193933,2191,0,S_ɑ
1777452152.195811,2049,0,S_ɑ
1777452152.198834,1904,0,S_ɑ
1777452152.203362,1836,0,S_ɑ
1777452152.205546,2109,0,S_ɑ
1777452152.210588,2244,0,S_ɑ
1777452152.211293,2145,0,S_ɑ
1777452152.215153,2010,0,S_ɑ
1777452152.21823,1849,0,S_ɑ
1777452152.221399,1947,0,S_ɑ
1777452152.222761,2215,0,S_ɑ
1777452152.2256992,2211,0,S_ɑ
1777452152.228702,2118,0,S_ɑ
1777452152.231712,1900,0,S_ɑ
1777452152.2400901,1835,0,S_ɑ
1777452152.24126,2075,0,S_ɑ
1777452152.241455,2236,0,S_ɑ
1777452152.246356,2170,0,S_ɑ
1777452152.247117,2028,0,S_ɑ
1777452152.253939,1782,0,S_ɑ
1777452152.254378,1861,0,S_ɑ
1777452152.257387,2174,0,S_ɑ
1777452152.2587378,2183,0,S_ɑ
1777452152.261686,2127,0,S_ɑ
1777452152.269299,1962,0,S_ɑ
1777452152.271717,1796,0,S_ɑ
1777452152.2720299,2035,0,S_ɑ
1777452152.274765,2238,0,S_ɑ
1777452152.277069,2242,0,S_ɑ
1777452152.282635,2046,0,S_ɑ
1777452152.283061,1865,0,S_ɑ
1777452152.285989,1886,0,S_ɑ
1777452152.288707,2127,0,S_ɑ
1777452152.291687,2262,0,S_ɑ
1777452152.294692,2147,0,S_ɑ
1777452152.297698,1929,0,S_ɑ
1777452152.304188,1824,0,S_ɑ
1777452152.30533,1998,0,S_ɑ
1777452152.3075972,2255,0,S_ɑ
1777452152.3112352,2241,0,S_ɑ
1777452152.3151171,2068,0,S_ɑ
1777452152.318347,1872,0,S_ɑ
1777452152.319029,1823,0,S_ɑ
1777452152.321959,2082,0,S_ɑ
1777452152.324718,2249,0,S_ɑ
1777452152.3341491,2229,0,S_ɑ
1777452152.336566,2004,0,S_ɑ
1777452152.3368242,1809,0,S_ɑ
1777452152.337039,1915,0,S_ɑ
1777452152.340826,2205,0,S_ɑ
1777452152.346982,2308,0,S_ɑ
1777452152.3472252,2103,0,S_ɑ
1777452152.350281,1896,0,S_ɑ
1777452152.3517141,1883,0,S_ɑ
1777452152.3546891,2081,0,S_ɑ
1777452152.35769,2200,0,S_ɑ
1777452152.3606899,2231,0,S_ɑ
1777452152.369895,2067,0,S_ɑ
1777452152.3728929,1891,0,S_ɑ
1777452152.374825,1918,0,S_ɑ
1777452152.375943,2127,0,S_ɑ
1777452152.377569,2268,0,S_ɑ
1777452152.378869,2205,0,S_ɑ
1777452152.383858,2072,0,S_ɑ
1777452152.386181,1759,0,S_ɑ
1777452152.3876889,1996,0,S_ɑ
1777452152.390681,2252,0,S_ɑ
1777452152.3974872,2210,0,S_ɑ
1777452152.39815,2136,0,S_ɑ
1777452152.40154,1997,0,S_ɑ
1777452152.404456,1794,0,S_ɑ
1777452152.405948,2193,0,S_ɑ
1777452152.413053,2344,0,S_ɑ
1777452152.413387,2186,0,S_ɑ
1777452152.415978,1981,0,S_ɑ
1777452152.417685,1921,0,S_ɑ
1777452152.420683,2120,0,S_ɑ
1777452152.42369,2254,0,S_ɑ
1777452152.426697,2142,0,S_ɑ
1777452152.429687,2051,0,S_ɑ
1777452152.438331,2003,0,S_ɑ
1777452152.439121,1862,0,S_ɑ
1777452152.441768,2124,0,S_ɑ
1777452152.4420748,2306,0,S_ɑ
1777452152.4459221,2203,0,S_ɑ
1777452152.448017,1917,0,S_ɑ
1777452152.453887,1933,0,S_ɑ
1777452152.454368,2007,0,S_ɑ
1777452152.4576719,2345,0,S_ɑ
1777452152.4603431,2371,0,S_ɑ
1777452152.463509,2071,0,S_ɑ
1777452152.470121,1974,0,S_ɑ
1777452152.470853,1912,0,S_ɑ
1777452152.474068,2248,0,S_ɑ
1777452152.4777422,2270,0,S_ɑ
1777452152.478444,2252,0,S_ɑ
1777452152.482644,2146,0,S_ɑ
1777452152.4868102,1780,0,S_ɑ
1777452152.49013,2051,0,S_ɑ
1777452152.490549,2120,0,S_ɑ
1777452152.493671,2323,0,S_ɑ
1777452152.495692,2202,0,S_ɑ
1777452152.498683,1941,0,S_ɑ
1777452152.501667,1976,0,S_ɑ
1777452152.510752,2045,0,S_ɑ
1777452152.5123122,2185,0,S_ɑ
1777452152.5153658,2336,0,S_ɑ
1777452152.515811,2118,0,S_ɑ
1777452152.517816,1854,0,S_ɑ
1777452152.519914,2020,0,S_ɑ
1777452152.5243561,2278,0,S_ɑ
1777452152.52818,2251,0,S_ɑ
1777452152.528747,2155,0,S_ɑ
1777452152.5323489,1986,0,S_ɑ
1777452152.5351748,1793,0,S_ɑ
1777452152.544023,1994,0,S_ɑ
1777452152.544283,2315,0,S_ɑ
1777452152.545523,2244,0,S_ɑ
1777452152.548219,1960,0,S_ɑ
1777452152.551291,1761,0,S_ɑ
1777452152.55456,1907,0,S_ɑ
1777452152.556791,2071,0,S_ɑ
1777452152.560813,2230,0,S_ɑ
1777452152.564161,2056,0,S_ɑ
1777452152.564666,1837,0,S_ɑ
1777452152.567683,1654,0,S_ɑ
1777452152.570674,1914,0,S_ɑ
1777452152.573667,2092,0,S_ɑ
1777452152.576685,2017,0,S_ɑ
1777452152.584569,1945,0,S_ɑ
1777452152.585935,1727,0,S_ɑ
1777452152.586602,1745,0,S_ɑ
1777452152.5889761,1951,0,S_ɑ
1777452152.592148,2227,0,S_ɑ
1777452152.597267,1982,0,S_ɑ
1777452152.601221,1893,0,S_ɑ
1777452152.6015239,1547,0,S_ɑ
1777452152.6046562,1903,0,S_ɑ
1777452152.607339,2029,0,S_ɑ
1777452152.6101198,2133,0,S_ɑ
1777452152.617366,2145,0,S_ɑ
1777452152.619154,1749,0,S_ɑ
1777452152.619342,1738,0,S_ɑ
1777452152.6219058,1922,0,S_ɑ
1777452152.6260018,2175,0,S_ɑ
1777452152.628191,2121,0,S_ɑ
1777452152.633975,1721,0,S_ɑ
1777452152.63434,1670,0,S_ɑ
1777452152.6376169,1871,0,S_ɑ
1777452152.639574,2015,0,S_ɑ
1777452152.642566,2145,0,S_ɑ
1777452152.645568,1943,0,S_ɑ
1777452152.648563,1704,0,S_ɑ
1777452152.6516511,1683,0,S_ɑ
1777452152.658464,1944,0,S_ɑ
1777452152.6592798,1949,0,S_ɑ
1777452152.664465,2012,0,S_ɑ
1777452152.665332,1842,0,S_ɑ
1777452152.667721,1621,0,S_ɑ
1777452152.671159,1640,0,S_ɑ
1777452152.67523,1857,0,S_ɑ
1777452152.6757,2017,0,S_ɑ
1777452152.678889,2131,0,S_ɑ
1777452152.6815732,1773,0,S_ɑ
1777452152.684565,1623,0,S_ɑ
1777452152.692666,1810,0,S_ɑ
1777452152.693569,1919,0,S_ɑ
1777452152.69488,2005,0,S_ɑ
1777452152.7001238,1949,0,S_ɑ
1777452152.70147,1700,0,S_ɑ
1777452152.703829,1665,0,S_ɑ
1777452152.7062469,1904,0,S_ɑ
1777452152.710231,2089,0,S_ɑ
1777452152.713529,1990,0,S_ɑ
1777452152.714884,1829,0,S_ɑ
1777452152.717567,1700,0,S_ɑ
1777452152.7205691,1785,0,S_ɑ
1777452152.7235572,2004,0,S_ɑ
1777452152.727909,2055,0,S_ɑ
1777452152.734797,2044,0,S_ɑ
1777452152.7386189,1768,0,S_ɑ
1777452152.741924,1673,0,S_ɑ
1777452152.7432032,1954,0,S_ɑ
1777452152.751374,2172,0,S_ɑ
1777452152.751717,2073,0,S_ɑ
1777452152.7518919,1931,0,S_ɑ
1777452152.75249,1714,0,S_ɑ
1777452152.755935,1792,0,S_ɑ
1777452152.757288,2026,0,S_ɑ
1777452152.760396,2056,0,S_ɑ
1777452152.76807,1954,0,S_ɑ
1777452152.7693791,1816,0,S_ɑ
1777452152.7719839,1676,0,S_ɑ
1777452152.772164,1847,0,S_ɑ
1777452152.7750661,2111,0,S_ɑ
1777452152.7839081,1928,0,S_ɑ
1777452152.7840571,1838,0,S_ɑ
1777452152.7872488,1672,0,S_ɑ
1777452152.787743,1754,0,S_ɑ
1777452152.789567,2027,0,S_ɑ
1777452152.7932842,2069,0,S_ɑ
1777452152.79591,1938,0,S_ɑ
1777452152.798572,1774,0,S_ɑ
1777452152.801588,1682,0,S_ɑ
1777452152.809299,1926,0,S_ɑ
1777452152.810126,2163,0,S_ɑ
1777452152.812272,2112,0,S_ɑ
1777452152.815357,1860,0,S_ɑ
1777452152.818132,1663,0,S_ɑ
1777452152.8207638,1775,0,S_ɑ
1777452152.8246841,2085,0,S_ɑ
1777452152.828002,2146,0,S_ɑ
1777452152.8285398,1990,0,S_ɑ
1777452152.831553,1807,0,S_ɑ
1777452152.8400261,1650,0,S_ɑ
1777452152.840827,1870,0,S_ɑ
1777452152.841494,2045,0,S_ɑ
1777452152.8445098,2094,0,S_ɑ
1777452152.846963,1930,0,S_ɑ
1777452152.8505511,1737,0,S_ɑ
1777452152.85268,1690,0,S_ɑ
1777452152.856488,2002,0,S_ɑ
1777452152.8598049,2163,0,S_ɑ
1777452152.861583,2063,0,S_ɑ
1777452152.8645508,1847,0,S_ɑ
1777452152.867554,1671,0,S_ɑ
1777452152.870551,1843,0,S_ɑ
1777452152.873555,2066,0,S_ɑ
1777452152.880651,2098,0,S_ɑ
1777452152.8813498,2008,0,S_ɑ
1777452152.884105,1773,0,S_ɑ
1777452152.887651,1720,0,S_ɑ
1777452152.88929,1985,0,S_ɑ
1777452152.8926778,2146,0,S_ɑ
1777452152.896381,2092,0,S_ɑ
1777452152.899628,1943,0,S_ɑ
1777452152.901026,1736,0,S_ɑ
1777452152.903556,1823,0,S_ɑ
1777452152.9137611,2144,0,S_ɑ
1777452152.913988,2152,0,S_ɑ
1777452152.9141319,2037,0,S_ɑ
1777452152.9159749,1833,0,S_ɑ
1777452152.9199371,1754,0,S_ɑ
1777452152.922155,1955,0,S_ɑ
1777452152.928076,2070,0,S_ɑ
1777452152.931594,2080,0,S_ɑ
1777452152.932308,1904,0,S_ɑ
1777452152.933697,1708,0,S_ɑ
1777452152.936546,1833,0,S_ɑ
1777452152.939564,2137,0,S_ɑ
1777452152.9425468,2170,0,S_ɑ
1777452152.9455628,2050,0,S_ɑ
1777452152.956179,1894,0,S_ɑ
1777452152.9566028,1743,0,S_ɑ
1777452152.956861,1971,0,S_ɑ
1777452152.9592268,2190,0,S_ɑ
1777452152.960747,2124,0,S_ɑ
1777452152.965226,1945,0,S_ɑ
1777452152.969085,1784,0,S_ɑ
1777452152.969554,1807,0,S_ɑ
1777452152.973014,2088,0,S_ɑ
1777452152.975646,2195,0,S_ɑ
1777452152.978771,2093,0,S_ɑ
1777452152.9866571,1878,0,S_ɑ
1777452152.989307,1753,0,S_ɑ
1777452152.992953,1913,0,S_ɑ
1777452152.994113,2195,0,S_ɑ
1777452152.9943218,2210,0,S_ɑ
1777452153.0049431,2008,0,S_ɑ
1777452153.0060391,1808,0,S_ɑ
1777452153.006134,1793,0,S_ɑ
1777452153.006189,2076,0,S_ɑ
1777452153.008899,2176,0,S_ɑ
1777452153.0115998,2105,0,S_ɑ
1777452153.01556,1928,0,S_ɑ
1777452153.018199,1700,0,S_ɑ
1777452153.0212,1851,0,S_ɑ
1777452153.028394,2163,0,S_ɑ
1777452153.029865,2180,0,S_ɑ
1777452153.030636,2035,0,S_ɑ
1777452153.0365791,1872,0,S_ɑ
1777452153.0379431,1794,0,S_ɑ
1777452153.041939,2050,0,S_ɑ
1777452153.0464451,2200,0,S_ɑ
1777452153.0468328,2147,0,S_ɑ
1777452153.0500631,1954,0,S_ɑ
1777452153.050555,1800,0,S_ɑ
1777452153.053565,1881,0,S_ɑ
1777452153.0565708,2199,0,S_ɑ
1777452153.065036,2206,0,S_ɑ
1777452153.06769,2037,0,S_ɑ
1777452153.0680509,1844,0,S_ɑ
1777452153.0706491,1760,0,S_ɑ
1777452153.072903,2010,0,S_ɑ
1777452153.0805461,2174,0,S_ɑ
1777452153.080967,2142,0,S_ɑ
1777452153.081182,1982,0,S_ɑ
1777452153.084885,1815,0,S_ɑ
1777452153.086561,1798,0,S_ɑ
1777452153.0895529,2142,0,S_ɑ
1777452153.092554,2194,0,S_ɑ
1777452153.095708,2105,0,S_ɑ
1777452153.098934,1899,0,S_ɑ
1777452153.106223,1750,0,S_ɑ
1777452153.108567,1971,0,S_ɑ
1777452153.1087291,2214,0,S_ɑ
1777452153.110753,2137,0,S_ɑ
1777452153.119319,2036,0,S_ɑ
1777452153.123051,1816,0,S_ɑ
1777452153.12335,1797,0,S_ɑ
1777452153.123749,2095,0,S_ɑ
1777452153.126963,2222,0,S_ɑ
1777452153.128564,2114,0,S_ɑ
1777452153.131556,1882,0,S_ɑ
1777452153.140321,1706,0,S_ɑ
1777452153.14253,1945,0,S_ɑ
1777452153.143872,2186,0,S_ɑ
1777452153.1460469,2201,0,S_ɑ
1777452153.150006,2023,0,S_ɑ
1777452153.150203,1851,0,S_ɑ
1777452153.152725,1845,0,S_ɑ
1777452153.155783,2118,0,S_ɑ
1777452153.159219,2190,0,S_ɑ
1777452153.163011,2101,0,S_ɑ
1777452153.1645608,2005,0,S_ɑ
1777452153.167555,1846,0,S_ɑ
1777452153.170551,1840,0,S_ɑ
1777452153.173547,2146,0,S_ɑ
1777452153.176554,2202,0,S_ɑ
1777452153.183604,2071,0,S_ɑ
1777452153.1857128,1862,0,S_ɑ
1777452153.188556,1756,0,S_ɑ
1777452153.1888142,1979,0,S_ɑ
1777452153.1935182,2216,0,S_ɑ
1777452153.197321,2179,0,S_ɑ
1777452153.197686,1999,0,S_ɑ
1777452153.201492,1834,0,S_ɑ
1777452153.2048059,1877,0,S_ɑ
1777452153.2072582,2170,0,S_ɑ
1777452153.209919,2213,0,S_ɑ
1777452153.218168,2098,0,S_ɑ
1777452153.218892,1946,0,S_ɑ
1777452153.2203531,1740,0,S_ɑ
1777452153.223101,2015,0,S_ɑ
1777452153.226154,2261,0,S_ɑ
1777452153.229311,2158,0,S_ɑ
1777452153.235803,1973,0,S_ɑ
1777452153.236531,1872,0,S_ɑ
1777452153.236962,1919,0,S_ɑ
1777452153.240148,2147,0,S_ɑ
1777452153.242549,2203,0,S_ɑ
1777452153.2461288,2132,0,S_ɑ
1777452153.249372,1973,0,S_ɑ
1777452153.251925,1812,0,S_ɑ
1777452153.255306,1937,0,S_ɑ
1777452153.2718499,2262,0,S_ɑ
1777452153.278343,2192,0,S_ɑ
1777452153.278657,1980,0,S_ɑ
1777452153.279078,1894,0,S_ɑ
1777452153.2796001,1822,0,S_ɑ
1777452153.28233,2144,0,S_ɑ
1777452153.2832,2288,0,S_ɑ
1777452153.2835379,2171,0,S_ɑ
1777452153.283592,2015,0,S_ɑ
1777452153.284928,1648,0,S_ɑ
1777452153.287575,1993,0,S_ɑ
1777452153.296893,2300,0,S_ɑ
1777452153.3021,2190,0,S_ɑ
1777452153.305869,2110,0,S_ɑ
1777452153.307332,2010,0,S_ɑ
1777452153.309807,1786,0,S_ɑ
1777452153.313557,2012,0,S_ɑ
1777452153.314214,2297,0,S_ɑ
1777452153.315028,2190,0,S_ɑ
1777452153.317699,2000,0,S_ɑ
1777452153.318666,1809,0,S_ɑ
1777452153.320433,1832,0,S_ɑ
1777452153.3234298,2109,0,S_ɑ
1777452153.326452,2157,0,S_ɑ
1777452153.3294342,2151,0,S_ɑ
1777452153.332434,1860,0,S_ɑ
1777452153.3400488,1854,0,S_ɑ
1777452153.340234,2161,0,S_ɑ
1777452153.3440168,2106,0,S_ɑ
1777452153.344467,2236,0,S_ɑ
1777452153.349864,1975,0,S_ɑ
1777452153.3535,1719,0,S_ɑ
1777452153.357028,1846,0,S_ɑ
1777452153.3571332,2203,0,S_ɑ
1777452153.359908,2233,0,S_ɑ
1777452153.3626182,2202,0,S_ɑ
1777452153.365428,1842,0,S_ɑ
1777452153.373396,1830,0,S_ɑ
1777452153.3752708,1982,0,S_ɑ
1777452153.377395,2208,0,S_ɑ
1777452153.3777568,2159,0,S_ɑ
1777452153.3817039,1995,0,S_ɑ
1777452153.385953,1724,0,S_ɑ
1777452153.38955,1873,0,S_ɑ
1777452153.3901691,2081,0,S_ɑ
1777452153.3934,2205,0,S_ɑ
1777452153.396045,2122,0,S_ɑ
1777452153.3986702,1997,0,S_ɑ
1777452153.401422,1787,0,S_ɑ
1777452153.404423,2080,0,S_ɑ
1777452153.413323,2237,0,S_ɑ
1777452153.4140642,2126,0,S_ɑ
1777452153.4148018,1878,0,S_ɑ
1777452153.417964,1921,0,S_ɑ
1777452153.420467,1820,0,S_ɑ
1777452153.4232278,2029,0,S_ɑ
1777452153.4299111,2233,0,S_ɑ
1777452153.430588,2161,0,S_ɑ
1777452153.433846,1969,0,S_ɑ
1777452153.4344141,1773,0,S_ɑ
1777452153.437411,1871,0,S_ɑ
1777452153.4464781,2172,0,S_ɑ
1777452153.447733,2166,0,S_ɑ
1777452153.447893,2099,0,S_ɑ
1777452153.4506528,1777,0,S_ɑ
1777452153.4536152,1726,0,S_ɑ
1777452153.455922,2083,0,S_ɑ
1777452153.459162,2235,0,S_ɑ
1777452153.4652889,2031,0,S_ɑ
1777452153.466027,1891,0,S_ɑ
1777452153.4674308,1730,0,S_ɑ
1777452153.470433,1910,0,S_ɑ
1777452153.4734159,2233,0,S_ɑ
1777452153.476419,2214,0,S_ɑ
1777452153.479448,2051,0,S_ɑ
1777452153.488769,1809,0,S_ɑ
1777452153.48958,1664,0,S_ɑ
1777452153.492102,2117,0,S_ɑ
1777452153.492428,2258,0,S_ɑ
1777452153.494644,2150,0,S_ɑ
1777452153.4990022,1973,0,S_ɑ
1777452153.502103,1712,0,S_ɑ
1777452153.506423,1769,0,S_ɑ
1777452153.506797,2101,0,S_ɑ
1777452153.5096488,2339,0,S_ɑ
1777452153.5124722,2139,0,S_ɑ
1777452153.515429,1830,0,S_ɑ
1777452153.525672,1591,0,S_ɑ
1777452153.529054,1965,0,S_ɑ
1777452153.52932,2213,0,S_ɑ
1777452153.529572,2095,0,S_ɑ
1777452153.533056,1915,0,S_ɑ
1777452153.536648,1569,0,S_ɑ
1777452153.5390432,1969,0,S_ɑ
1777452153.543253,2131,0,S_ɑ
1777452153.543724,2232,0,S_ɑ
1777452153.547368,2043,0,S_ɑ
1777452153.548795,1916,0,S_ɑ
1777452153.551444,1780,0,S_ɑ
1777452153.554422,1892,0,S_ɑ
1777452153.55744,2060,0,S_ɑ
1777452153.560417,2087,0,S_ɑ
1777452153.563485,1984,0,S_ɑ
1777452153.571135,1819,0,S_ɑ
1777452153.5726552,1717,0,S_ɑ
1777452153.575614,2077,0,S_ɑ
1777452153.575777,2218,0,S_ɑ
1777452153.5787258,2135,0,S_ɑ
1777452153.582297,2012,0,S_ɑ
1777452153.585446,1780,0,S_ɑ
1777452153.589634,1880,0,S_ɑ
1777452153.5939891,2149,0,S_ɑ
1777452153.594075,2136,0,S_ɑ
1777452153.5967062,1997,0,S_ɑ
1777452153.5994182,1971,0,S_ɑ
1777452153.6092958,1810,0,S_ɑ
1777452153.610304,2108,0,S_ɑ
1777452153.610392,2136,0,S_ɑ
1777452153.613781,2211,0,S_ɑ
1777452153.616199,2066,0,S_ɑ
1777452153.617991,1791,0,S_ɑ
1777452153.6274612,1771,0,S_ɑ
1777452153.627687,2176,0,S_ɑ
1777452153.628085,2201,0,S_ɑ
1777452153.6318111,2115,0,S_ɑ
1777452153.632415,1806,0,S_ɑ
1777452153.635413,1804,0,S_ɑ
1777452153.638479,1925,0,S_ɑ
1777452153.6414132,2142,0,S_ɑ
1777452153.644423,2587,0,S_ɑ
1777452153.647419,2166,0,S_ɑ
1777452153.6550741,1802,0,S_ɑ
1777452153.655756,1805,0,S_ɑ
1777452153.657349,2040,0,S_ɑ
1777452153.660202,2429,0,S_ɑ
1777452153.663182,2069,0,S_ɑ
1777452153.666089,1937,0,S_ɑ
1777452153.6704252,1598,0,S_ɑ
1777452153.675072,1923,0,S_ɑ
1777452153.675512,2063,0,S_ɑ
1777452153.67937,2234,0,S_ɑ
1777452153.6808472,2010,0,S_ɑ
1777452153.683507,1788,0,S_ɑ
1777452153.686599,1814,0,S_ɑ
1777452153.69469,2167,0,S_ɑ
1777452153.695453,2020,0,S_ɑ
1777452153.695571,2099,0,S_ɑ
1777452153.699198,1992,0,S_ɑ
1777452153.702503,1645,0,S_ɑ
1777452153.708894,1866,0,S_ɑ
1777452153.713356,2208,0,S_ɑ
1777452153.713616,2275,0,S_ɑ
1777452153.7142541,2111,0,S_ɑ
1777452153.718081,1379,0,S_ɑ
1777452153.719661,1972,0,S_ɑ
1777452153.722294,2062,0,S_ɑ
1777452153.7253141,2227,0,S_ɑ
1777452153.7283,2273,0,S_ɑ
1777452153.731311,1998,0,S_ɑ
1777452153.7351072,1628,0,S_ɑ
1777452153.742259,1824,0,S_ɑ
1777452153.7433548,2340,0,S_ɑ
1777452153.7442298,2241,0,S_ɑ
1777452153.748238,2053,0,S_ɑ
1777452153.752158,1827,0,S_ɑ
1777452153.752903,1824,0,S_ɑ
1777452153.756286,2003,0,S_ɑ
1777452153.75924,2205,0,S_ɑ
1777452153.763534,2231,0,S_ɑ
1777452153.767478,2047,0,S_ɑ
1777452153.767885,1907,0,S_ɑ
1777452153.770535,1838,0,S_ɑ
1777452153.773302,2356,0,S_ɑ
1777452153.78174,2263,0,S_ɑ
1777452153.782722,2107,0,S_ɑ
1777452153.784228,1861,0,S_ɑ
1777452153.787155,1751,0,S_ɑ
1777452153.791596,2377,0,S_ɑ
1777452153.791772,2320,0,S_ɑ
1777452153.797399,2256,0,S_ɑ
1777452153.797569,1802,0,S_ɑ
1777452153.8019462,1749,0,S_ɑ
1777452153.805863,1805,0,S_ɑ
1777452153.806289,2413,0,S_ɑ
1777452153.809304,2259,0,S_ɑ
1777452153.812306,2241,0,S_ɑ
1777452153.81531,2053,0,S_ɑ
1777452153.818295,2146,0,S_ɑ
1777452153.8212879,1998,0,S_ɑ
1777452153.829746,2210,0,S_ɑ
1777452153.82988,2472,0,S_ɑ
1777452153.8307881,2166,0,S_ɑ
1777452153.834388,1890,0,S_ɑ
1777452153.838764,1825,0,S_ɑ
1777452153.8396459,2059,0,S_ɑ
1777452153.844531,2288,0,S_ɑ
1777452153.848952,2258,0,S_ɑ
1777452153.849517,2061,0,S_ɑ
1777452153.85341,2157,0,S_ɑ
1777452153.854759,2018,0,S_ɑ
1777452153.857399,2654,0,S_ɑ
1777452153.860383,2399,0,S_ɑ
1777452153.868138,2302,0,S_ɑ
1777452153.868366,2264,0,S_ɑ
1777452153.872189,1846,0,S_ɑ
1777452153.872455,2529,0,S_ɑ
1777452153.8764448,2637,0,S_ɑ
1777452153.8788218,2466,0,S_ɑ
1777452153.881952,2463,0,S_ɑ
1777452153.886275,2068,0,S_ɑ
1777452153.890184,2725,0,S_ɑ
1777452153.890286,2506,0,S_ɑ
1777452153.89329,2920,0,S_ɑ
1777452153.896289,2574,0,S_ɑ
1777452153.899283,2479,0,S_ɑ
1777452153.902286,2292,0,S_ɑ
1777452153.905287,2510,0,S_ɑ
1777452153.9142988,2811,0,S_ɑ
1777452153.916459,2601,0,S_ɑ
1777452153.918664,2731,0,S_ɑ
1777452153.9189188,2421,0,S_ɑ
1777452153.921818,2307,0,S_ɑ
1777452153.9236102,2564,0,S_ɑ
1777452153.928388,2847,0,S_ɑ
1777452153.935903,2795,0,S_ɑ
1777452153.9369888,2649,0,S_ɑ
1777452153.937068,2177,0,S_ɑ
1777452153.938397,2706,0,S_ɑ
1777452153.9412868,2899,0,S_ɑ
1777452153.9504719,2826,0,S_ɑ
1777452153.951342,2783,0,S_ɑ
1777452153.951702,2718,0,S_ɑ
1777452153.953828,2437,0,S_ɑ
1777452153.958911,2800,0,S_ɑ
1777452153.959819,2777,0,S_ɑ
1777452153.9665122,2695,0,S_ɑ
1777452153.966861,2456,0,S_ɑ
1777452153.971054,2365,0,S_ɑ
1777452153.971515,2444,0,S_ɑ
1777452153.9752,2639,0,S_ɑ
1777452153.9778502,2536,0,S_ɑ
1777452153.9804978,2486,0,S_ɑ
1777452153.9833221,2255,0,S_ɑ
1777452153.986284,2043,0,S_ɑ
1777452153.98928,2505,0,S_ɑ
1777452153.998199,2569,0,S_ɑ
1777452154.000492,2377,0,S_ɑ
1777452154.001267,2330,0,S_ɑ
1777452154.003474,2167,0,S_ɑ
1777452154.0069408,2212,0,S_ɑ
1777452154.007796,2439,0,S_ɑ
1777452154.0132852,2343,0,S_ɑ
1777452154.018379,2300,0,S_ɑ
1777452154.018774,2058,0,S_ɑ
1777452154.019327,1656,0,S_ɑ
1777452154.0228548,2557,0,S_ɑ
1777452154.025525,2283,0,S_ɑ
1777452154.0282829,2360,0,S_ɑ
1777452154.031277,2089,0,S_ɑ
1777452154.041316,1973,0,S_ɑ
1777452154.0415292,2044,0,S_ɑ
1777452154.04252,2166,0,S_ɑ
1777452154.046488,2459,0,S_ɑ
1777452154.046793,2137,0,S_ɑ
1777452154.0516639,1935,0,S_ɑ
1777452154.052597,1765,0,S_ɑ
1777452154.0572789,2279,0,S_ɑ
1777452154.061731,2259,0,S_ɑ
1777452154.0619478,2204,0,S_ɑ
1777452154.066143,2091,0,S_ɑ
1777452154.0674949,1869,0,S_ɑ
1777452154.070173,1931,0,S_ɑ
1777452154.073164,2108,0,S_ɑ
1777452154.076155,2149,0,S_ɑ
1777452154.07922,2209,0,S_ɑ
1777452154.0822022,1858,0,S_ɑ
1777452154.0919402,1914,0,S_ɑ
1777452154.093717,1945,0,S_ɑ
1777452154.096905,1799,0,S_ɑ
1777452154.0973198,2554,0,S_ɑ
1777452154.1007528,1956,0,S_ɑ
1777452154.1009421,1920,0,S_ɑ
1777452154.103811,1844,0,S_ɑ
1777452154.109146,1982,0,S_ɑ
1777452154.109421,2253,0,S_ɑ
1777452154.114815,2190,0,S_ɑ
1777452154.115175,1919,0,S_ɑ
1777452154.1188228,1913,0,S_ɑ
1777452154.121386,1962,0,S_ɑ
1777452154.124158,2112,0,S_ɑ
1777452154.12716,2004,0,S_ɑ
1777452154.1370938,2233,0,S_ɑ
1777452154.138171,1878,0,S_ɑ
1777452154.139263,1862,0,S_ɑ
1777452154.1402738,2119,0,S_ɑ
1777452154.143662,2221,0,S_ɑ
1777452154.1473799,2153,0,S_ɑ
1777452154.149069,1954,0,S_ɑ
1777452154.151948,1710,0,S_ɑ
1777452154.155954,2075,0,S_ɑ
1777452154.161251,2101,0,S_ɑ
1777452154.161998,2127,0,S_ɑ
1777452154.165714,2132,0,S_ɑ
1777452154.1661692,1928,0,S_ɑ
1777452154.169206,1824,0,S_ɑ
1777452154.172171,1730,0,S_ɑ
1777452154.175183,2325,0,S_ɑ
1777452154.178176,2308,0,S_ɑ
1777452154.181204,2049,0,S_ɑ
1777452154.19007,1854,0,S_ɑ
1777452154.19031,1848,0,S_ɑ
1777452154.192836,2076,0,S_ɑ
1777452154.1937048,2306,0,S_ɑ
1777452154.196217,2184,0,S_ɑ
1777452154.201153,2036,0,S_ɑ
1777452154.203388,1773,0,S_ɑ
1777452154.2066371,1761,0,S_ɑ
1777452154.211257,2263,0,S_ɑ
1777452154.211929,2192,0,S_ɑ
1777452154.215639,2066,0,S_ɑ
1777452154.217161,1873,0,S_ɑ
1777452154.220147,1742,0,S_ɑ
1777452154.223159,2167,0,S_ɑ
1777452154.2314298,2318,0,S_ɑ
1777452154.232907,2111,0,S_ɑ
1777452154.2338471,1951,0,S_ɑ
1777452154.236073,1683,0,S_ɑ
1777452154.239048,2055,0,S_ɑ
1777452154.24145,2196,0,S_ɑ
1777452154.245527,2304,0,S_ɑ
1777452154.2501929,1962,0,S_ɑ
1777452154.250571,1666,0,S_ɑ
1777452154.25442,1990,0,S_ɑ
1777452154.25615,1937,0,S_ɑ
1777452154.259142,2320,0,S_ɑ
1777452154.2621472,2104,0,S_ɑ
1777452154.265155,2009,0,S_ɑ
1777452154.2681432,1766,0,S_ɑ
1777452154.2777548,2062,0,S_ɑ
1777452154.278659,2045,0,S_ɑ
1777452154.279423,2431,0,S_ɑ
1777452154.283135,2020,0,S_ɑ
1777452154.283595,1882,0,S_ɑ
1777452154.287654,1877,0,S_ɑ
1777452154.289233,1958,0,S_ɑ
1777452154.295198,2197,0,S_ɑ
1777452154.2955031,2199,0,S_ɑ
1777452154.3007529,2065,0,S_ɑ
1777452154.301156,1834,0,S_ɑ
1777452154.305378,1918,0,S_ɑ
1777452154.308527,2055,0,S_ɑ
1777452154.348077,2264,0,S_ɑ
1777452154.348205,2043,0,S_ɑ
1777452154.348267,1820,0,S_ɑ
1777452154.348321,1945,0,S_ɑ
1777452154.348375,1979,0,S_ɑ
1777452154.355026,2114,0,S_ɑ
1777452154.355419,2248,0,S_ɑ
1777452154.3555589,2013,0,S_ɑ
1777452154.355674,1899,0,S_ɑ
1777452154.355737,1885,0,S_ɑ
1777452154.355786,2154,0,S_ɑ
1777452154.355993,2229,0,S_ɑ
1777452154.356075,1999,0,S_ɑ
1777452154.356131,2071,0,S_ɑ
1777452154.356183,1877,0,S_ɑ
1777452154.356232,1850,0,S_ɑ
1777452154.3580348,2139,0,S_ɑ
1777452154.368833,2183,0,S_ɑ
1777452154.375317,2025,0,S_ɑ
1777452154.376204,1866,0,S_ɑ
1777452154.376977,1863,0,S_ɑ
1777452154.377105,2046,0,S_ɑ
1777452154.377293,2155,0,S_ɑ
1777452154.382376,2141,0,S_ɑ
1777452154.382594,2009,0,S_ɑ
1777452154.387095,1858,0,S_ɑ
1777452154.390197,1917,0,S_ɑ
1777452154.391528,2201,0,S_ɑ
1777452154.3941178,2214,0,S_ɑ
1777452154.3970408,2070,0,S_ɑ
1777452154.404717,1927,0,S_ɑ
1777452154.405594,1863,0,S_ɑ
1777452154.4062662,1957,0,S_ɑ
1777452154.409631,2245,0,S_ɑ
1777452154.4130402,2173,0,S_ɑ
1777452154.415082,1952,0,S_ɑ
1777452154.420335,1848,0,S_ɑ
1777452154.425632,1902,0,S_ɑ
1777452154.426181,2164,0,S_ɑ
1777452154.430649,2200,0,S_ɑ
1777452154.431087,2127,0,S_ɑ
1777452154.433019,1959,0,S_ɑ
1777452154.436022,1847,0,S_ɑ
1777452154.439017,1934,0,S_ɑ
1777452154.442018,2275,0,S_ɑ
1777452154.445042,2202,0,S_ɑ
1777452154.448019,2011,0,S_ɑ
1777452154.459546,1898,0,S_ɑ
1777452154.4598348,1879,0,S_ɑ
1777452154.4615612,2128,0,S_ɑ
1777452154.467922,2263,0,S_ɑ
1777452154.469179,2187,0,S_ɑ
1777452154.469604,2034,0,S_ɑ
1777452154.471583,1814,0,S_ɑ
1777452154.472642,2059,0,S_ɑ
1777452154.477684,2203,0,S_ɑ
1777452154.482312,2214,0,S_ɑ
1777452154.482527,2107,0,S_ɑ
1777452154.485672,1893,0,S_ɑ
1777452154.487028,1912,0,S_ɑ
1777452154.4900212,2136,0,S_ɑ
1777452154.4930182,2259,0,S_ɑ
1777452154.5035572,2198,0,S_ɑ
1777452154.5037298,2085,0,S_ɑ
1777452154.504862,1807,0,S_ɑ
1777452154.505719,1977,0,S_ɑ
1777452154.50904,2215,0,S_ɑ
1777452154.513216,2273,0,S_ɑ
1777452154.515469,2031,0,S_ɑ
1777452154.5176792,2045,0,S_ɑ
1777452154.520972,1934,0,S_ɑ
1777452154.52667,2146,0,S_ɑ
1777452154.526935,2193,0,S_ɑ
1777452154.531626,2211,0,S_ɑ
1777452154.532077,2102,0,S_ɑ
1777452154.535059,2003,0,S_ɑ
1777452154.538044,1931,0,S_ɑ
1777452154.541026,2187,0,S_ɑ
1777452154.544032,2277,0,S_ɑ
1777452154.547022,2140,0,S_ɑ
1777452154.557748,2155,0,S_ɑ
1777452154.558531,1944,0,S_ɑ
1777452154.561216,2055,0,S_ɑ
1777452154.5614662,2373,0,S_ɑ
1777452154.5646038,2358,0,S_ɑ
1777452154.565574,2103,0,S_ɑ
1777452154.568469,1946,0,S_ɑ
1777452154.573577,2011,0,S_ɑ
1777452154.578924,2295,0,S_ɑ
1777452154.579464,2344,0,S_ɑ
1777452154.580034,2161,0,S_ɑ
1777452154.583532,1950,0,S_ɑ
1777452154.5861561,1991,0,S_ɑ
1777452154.589024,2136,0,S_ɑ
1777452154.59203,2269,0,S_ɑ
1777452154.6015801,2191,0,S_ɑ
1777452154.6018,2164,0,S_ɑ
1777452154.602761,1907,0,S_ɑ
1777452154.604245,1957,0,S_ɑ
1777452154.607618,2255,0,S_ɑ
1777452154.611082,2379,0,S_ɑ
1777452154.6134558,2114,0,S_ɑ
1777452154.61976,1966,0,S_ɑ
1777452154.620094,1838,0,S_ɑ
1777452154.62566,2025,0,S_ɑ
1777452154.626215,2198,0,S_ɑ
1777452154.630718,2264,0,S_ɑ
1777452154.631295,2110,0,S_ɑ
1777452154.6339872,1891,0,S_ɑ
1777452154.636928,1938,0,S_ɑ
1777452154.639912,2030,0,S_ɑ
1777452154.642967,2341,0,S_ɑ
1777452154.645955,2260,0,S_ɑ
1777452154.655105,2014,0,S_ɑ
1777452154.6571488,1716,0,S_ɑ
1777452154.658046,1765,0,S_ɑ
1777452154.660427,2277,0,S_ɑ
1777452154.6611352,2210,0,S_ɑ
1777452154.665712,1989,0,S_ɑ
1777452154.667231,1780,0,S_ɑ
1777452154.670901,1725,0,S_ɑ
1777452154.675297,2105,0,S_ɑ
1777452154.675988,2058,0,S_ɑ
1777452154.678942,2139,0,S_ɑ
1777452154.6819148,1916,0,S_ɑ
1777452154.684921,1837,0,S_ɑ
1777452154.69462,1763,0,S_ɑ
1777452154.697231,1990,0,S_ɑ
1777452154.6982179,2191,0,S_ɑ
1777452154.700664,2055,0,S_ɑ
1777452154.701092,1915,0,S_ɑ
1777452154.7046342,1774,0,S_ɑ
1777452154.70784,1873,0,S_ɑ
1777452154.715434,2052,0,S_ɑ
1777452154.7158542,2016,0,S_ɑ
1777452154.716013,1817,0,S_ɑ
1777452154.719855,1661,0,S_ɑ
1777452154.721232,1680,0,S_ɑ
1777452154.723891,1921,0,S_ɑ
1777452154.726905,2026,0,S_ɑ
1777452154.729892,1965,0,S_ɑ
1777452154.733239,1715,0,S_ɑ
1777452154.742971,1649,0,S_ɑ
1777452154.744436,1830,0,S_ɑ
1777452154.745308,2154,0,S_ɑ
1777452154.7460842,2008,0,S_ɑ
1777452154.7481909,1924,0,S_ɑ
1777452154.7517672,1637,0,S_ɑ
1777452154.7545369,1614,0,S_ɑ
1777452154.758097,1859,0,S_ɑ
1777452154.7627578,2132,0,S_ɑ
1777452154.7631092,2030,0,S_ɑ
1777452154.766876,1765,0,S_ɑ
1777452154.7695098,1536,0,S_ɑ
1777452154.772115,1781,0,S_ɑ
1777452154.781279,2057,0,S_ɑ
1777452154.7827132,1900,0,S_ɑ
1777452154.782912,1811,0,S_ɑ
1777452154.786203,1665,0,S_ɑ
1777452154.78963,1675,0,S_ɑ
1777452154.7904708,1960,0,S_ɑ
1777452154.796134,2040,0,S_ɑ
1777452154.796395,2034,0,S_ɑ
1777452154.8007529,1872,0,S_ɑ
1777452154.804181,1710,0,S_ɑ
1777452154.805523,1749,0,S_ɑ
1777452154.808299,2051,0,S_ɑ
1777452154.810912,2177,0,S_ɑ
1777452154.8138938,1992,0,S_ɑ
1777452154.816951,1771,0,S_ɑ
1777452154.819903,1671,0,S_ɑ
1777452154.822887,1832,0,S_ɑ
1777452154.833826,2137,0,S_ɑ
1777452154.8347368,2105,0,S_ɑ
1777452154.835668,1920,0,S_ɑ
1777452154.841463,1743,0,S_ɑ
1777452154.841663,1716,0,S_ɑ
1777452154.842601,2265,0,S_ɑ
1777452154.845288,2034,0,S_ɑ
1777452154.850827,1957,0,S_ɑ
1777452154.850967,1807,0,S_ɑ
1777452154.85626,1712,0,S_ɑ
1777452154.856502,1803,0,S_ɑ
1777452154.8609312,2066,0,S_ɑ
1777452154.862228,2117,0,S_ɑ
1777452154.864884,1827,0,S_ɑ
1777452154.867878,1606,0,S_ɑ
1777452154.8776052,1872,0,S_ɑ
1777452154.878568,2130,0,S_ɑ
1777452154.879446,2191,0,S_ɑ
1777452154.880424,2048,0,S_ɑ
1777452154.8836281,1822,0,S_ɑ
1777452154.887261,1738,0,S_ɑ
1777452154.888934,1841,0,S_ɑ
1777452154.89199,2090,0,S_ɑ
1777452154.896061,2107,0,S_ɑ
1777452154.900992,1910,0,S_ɑ
1777452154.9013839,1722,0,S_ɑ
1777452154.9049358,1856,0,S_ɑ
1777452154.907619,1975,0,S_ɑ
1777452154.910253,2152,0,S_ɑ
1777452154.913145,2067,0,S_ɑ
1777452154.9157739,1883,0,S_ɑ
1777452154.918869,1728,0,S_ɑ
1777452154.9218051,1858,0,S_ɑ
1777452154.9315991,2093,0,S_ɑ
1777452154.932619,2102,0,S_ɑ
1777452154.933602,1926,0,S_ɑ
1777452154.9339352,1777,0,S_ɑ
1777452154.938081,1783,0,S_ɑ
1777452154.941735,2140,0,S_ɑ
1777452154.944204,2199,0,S_ɑ
1777452154.946898,2112,0,S_ɑ
1777452154.950403,1956,0,S_ɑ
1777452154.955013,1796,0,S_ɑ
1777452154.95536,1866,0,S_ɑ
1777452154.9591029,2116,0,S_ɑ
1777452154.960785,2209,0,S_ɑ
1777452154.963773,1946,0,S_ɑ
1777452154.967081,1813,0,S_ɑ
1777452154.976473,1740,0,S_ɑ
1777452154.976706,1898,0,S_ɑ
1777452154.9775841,2173,0,S_ɑ
1777452154.979268,2048,0,S_ɑ
1777452154.9820852,1957,0,S_ɑ
1777452154.9855602,1730,0,S_ɑ
1777452154.990338,1929,0,S_ɑ
1777452154.994302,2052,0,S_ɑ
1777452154.994573,2145,0,S_ɑ
1777452154.999988,2075,0,S_ɑ
1777452155.0005288,1907,0,S_ɑ
1777452155.005297,1806,0,S_ɑ
1777452155.005755,1948,0,S_ɑ
1777452155.008933,2150,0,S_ɑ
1777452155.011839,2191,0,S_ɑ
1777452155.014771,2012,0,S_ɑ
1777452155.0177631,1808,0,S_ɑ
1777452155.020763,1757,0,S_ɑ
1777452155.0237749,2063,0,S_ɑ
1777452155.033489,2202,0,S_ɑ
1777452155.034357,2193,0,S_ɑ
1777452155.034577,1828,0,S_ɑ
1777452155.038858,1703,0,S_ɑ
1777452155.039207,1940,0,S_ɑ
1777452155.044031,2190,0,S_ɑ
1777452155.046834,2179,0,S_ɑ
1777452155.0504901,2051,0,S_ɑ
1777452155.050837,1796,0,S_ɑ
1777452155.0552561,1768,0,S_ɑ
1777452155.058382,2035,0,S_ɑ
1777452155.059795,2233,0,S_ɑ
1777452155.0627809,2188,0,S_ɑ
1777452155.06577,2070,0,S_ɑ
1777452155.073586,1832,0,S_ɑ
1777452155.074461,1762,0,S_ɑ
1777452155.075199,2162,0,S_ɑ
1777452155.0785248,2217,0,S_ɑ
1777452155.0820951,1975,0,S_ɑ
1777452155.0843909,1797,0,S_ɑ
1777452155.0898392,1833,0,S_ɑ
1777452155.0900831,2059,0,S_ɑ
1777452155.09509,2187,0,S_ɑ
1777452155.098936,2044,0,S_ɑ
1777452155.0992682,1954,0,S_ɑ
1777452155.101902,1843,0,S_ɑ
1777452155.104786,1947,0,S_ɑ
1777452155.107785,2068,0,S_ɑ
1777452155.110771,2097,0,S_ɑ
1777452155.113784,2057,0,S_ɑ
1777452155.116766,1867,0,S_ɑ
1777452155.1251378,1726,0,S_ɑ
1777452155.126252,1954,0,S_ɑ
1777452155.1281211,2227,0,S_ɑ
1777452155.129659,2217,0,S_ɑ
1777452155.132374,2026,0,S_ɑ
1777452155.1358132,1826,0,S_ɑ
1777452155.1380851,1832,0,S_ɑ
1777452155.141056,2103,0,S_ɑ
1777452155.1443148,2202,0,S_ɑ
1777452155.1495821,2139,0,S_ɑ
1777452155.149958,1839,0,S_ɑ
1777452155.153635,1781,0,S_ɑ
1777452155.156255,1900,0,S_ɑ
1777452155.158771,2313,0,S_ɑ
1777452155.1618712,2215,0,S_ɑ
1777452155.169975,2050,0,S_ɑ
1777452155.171464,1711,0,S_ɑ
1777452155.1717079,1716,0,S_ɑ
1777452155.176461,2141,0,S_ɑ
1777452155.176834,2263,0,S_ɑ
1777452155.181696,2076,0,S_ɑ
1777452155.184322,1979,0,S_ɑ
1777452155.188937,1758,0,S_ɑ
1777452155.1891232,1835,0,S_ɑ
1777452155.194324,2204,0,S_ɑ
1777452155.194839,2267,0,S_ɑ
1777452155.19933,2000,0,S_ɑ
1777452155.2008052,1771,0,S_ɑ
1777452155.203767,1792,0,S_ɑ
1777452155.206804,1939,0,S_ɑ
1777452155.212533,2112,0,S_ɑ
1777452155.212857,2218,0,S_ɑ
1777452155.218493,1872,0,S_ɑ
1777452155.226089,1824,0,S_ɑ
1777452155.22692,1876,0,S_ɑ
1777452155.227067,2140,0,S_ɑ
1777452155.2285938,2180,0,S_ɑ
1777452155.2313302,2070,0,S_ɑ
1777452155.235119,1860,0,S_ɑ
1777452155.237196,1730,0,S_ɑ
1777452155.241675,1987,0,S_ɑ
1777452155.247193,2190,0,S_ɑ
1777452155.24772,2076,0,S_ɑ
1777452155.2523599,2025,0,S_ɑ
1777452155.252435,1815,0,S_ɑ
1777452155.255098,1900,0,S_ɑ
1777452155.257813,2124,0,S_ɑ
1777452155.260774,2192,0,S_ɑ
1777452155.2687418,2116,0,S_ɑ
1777452155.269043,1898,0,S_ɑ
1777452155.2705479,1618,0,S_ɑ
1777452155.274817,1935,0,S_ɑ
1777452155.2784572,2186,0,S_ɑ
1777452155.279493,2174,0,S_ɑ
1777452155.2817678,2040,0,S_ɑ
1777452155.29199,1763,0,S_ɑ
1777452155.29231,1790,0,S_ɑ
1777452155.2925591,2131,0,S_ɑ
1777452155.2973518,2201,0,S_ɑ
1777452155.297524,2142,0,S_ɑ
1777452155.300263,1902,0,S_ɑ
1777452155.302879,1730,0,S_ɑ
1777452155.305632,1926,0,S_ɑ
1777452155.3089821,2206,0,S_ɑ
1777452155.311635,2145,0,S_ɑ
1777452155.3146398,2051,0,S_ɑ
1777452155.325601,1833,0,S_ɑ
1777452155.326605,1815,0,S_ɑ
1777452155.327693,2064,0,S_ɑ
1777452155.328782,2271,0,S_ɑ
1777452155.3322082,2082,0,S_ɑ
1777452155.335118,1922,0,S_ɑ
1777452155.336758,1841,0,S_ɑ
1777452155.339096,1903,0,S_ɑ
1777452155.343585,2164,0,S_ɑ
1777452155.3479621,2158,0,S_ɑ
1777452155.348114,2080,0,S_ɑ
1777452155.351269,1870,0,S_ɑ
1777452155.353915,1828,0,S_ɑ
1777452155.356652,2000,0,S_ɑ
1777452155.366998,2241,0,S_ɑ
1777452155.36807,2123,0,S_ɑ
1777452155.369857,1994,0,S_ɑ
1777452155.371486,1826,0,S_ɑ
1777452155.3718028,1885,0,S_ɑ
1777452155.374797,2156,0,S_ɑ
1777452155.379319,2214,0,S_ɑ
1777452155.381727,2081,0,S_ɑ
1777452155.384352,1886,0,S_ɑ
1777452155.387362,1827,0,S_ɑ
1777452155.3919082,2038,0,S_ɑ
1777452155.3961542,2235,0,S_ɑ
1777452155.396238,2217,0,S_ɑ
1777452155.398774,2050,0,S_ɑ
1777452155.401642,1830,0,S_ɑ
1777452155.404664,1830,0,S_ɑ
1777452155.407647,2137,0,S_ɑ
1777452155.410652,2164,0,S_ɑ
1777452155.42012,2076,0,S_ɑ
1777452155.420362,1941,0,S_ɑ
1777452155.4218938,1763,0,S_ɑ
1777452155.425268,1915,0,S_ɑ
1777452155.4281778,2198,0,S_ɑ
1777452155.429172,2187,0,S_ɑ
1777452155.433141,2077,0,S_ɑ
1777452155.435785,1829,0,S_ɑ
1777452155.4404101,1835,0,S_ɑ
1777452155.440789,2121,0,S_ɑ
1777452155.4445372,2232,0,S_ɑ
1777452155.447232,2128,0,S_ɑ
1777452155.449891,1936,0,S_ɑ
1777452155.459832,1771,0,S_ɑ
1777452155.4608068,1922,0,S_ɑ
1777452155.462247,2190,0,S_ɑ
1777452155.465448,2151,0,S_ɑ
1777452155.465667,2031,0,S_ɑ
1777452155.468561,1863,0,S_ɑ
1777452155.471956,1802,0,S_ɑ
1777452155.4758341,2053,0,S_ɑ
1777452155.480384,2239,0,S_ɑ
1777452155.480709,2162,0,S_ɑ
1777452155.4846342,1985,0,S_ɑ
1777452155.486082,1787,0,S_ɑ
1777452155.4886541,1802,0,S_ɑ
1777452155.4916449,2157,0,S_ɑ
1777452155.495384,2207,0,S_ɑ
1777452155.498016,2057,0,S_ɑ
1777452155.5006468,1863,0,S_ɑ
1777452155.5109382,1759,0,S_ɑ
1777452155.512908,1947,0,S_ɑ
1777452155.513939,2249,0,S_ɑ
1777452155.514944,2198,0,S_ɑ
1777452155.518135,1950,0,S_ɑ
1777452155.521795,1794,0,S_ɑ
1777452155.522772,1806,0,S_ɑ
1777452155.5258482,2118,0,S_ɑ
1777452155.5303721,2228,0,S_ɑ
1777452155.530657,2089,0,S_ɑ
1777452155.535847,1889,0,S_ɑ
1777452155.540766,1781,0,S_ɑ
1777452155.541116,1992,0,S_ɑ
1777452155.542691,2234,0,S_ɑ
1777452155.54566,2132,0,S_ɑ
1777452155.54867,2018,0,S_ɑ
1777452155.556572,1799,0,S_ɑ
1777452155.558836,1782,0,S_ɑ
1777452155.560311,2032,0,S_ɑ
1777452155.562807,2192,0,S_ɑ
1777452155.56742,2166,0,S_ɑ
1777452155.567698,1922,0,S_ɑ
1777452155.5702558,1717,0,S_ɑ
1777452155.5735831,2093,0,S_ɑ
1777452155.577852,2217,0,S_ɑ
1777452155.581177,2188,0,S_ɑ
1777452155.5823371,2020,0,S_ɑ
1777452155.5850198,1825,0,S_ɑ
1777452155.587671,1901,0,S_ɑ
1777452155.590644,2052,0,S_ɑ
1777452155.593635,2250,0,S_ɑ
1777452155.5966332,2104,0,S_ɑ
1777452155.6073039,2047,0,S_ɑ
1777452155.608893,1691,0,S_ɑ
1777452155.611316,1950,0,S_ɑ
1777452155.611528,2234,0,S_ɑ
1777452155.611707,2242,0,S_ɑ
1777452155.614841,2053,0,S_ɑ
1777452155.6180549,1884,0,S_ɑ
1777452155.621896,1830,0,S_ɑ
1777452155.6264489,2047,0,S_ɑ
1777452155.629577,2264,0,S_ɑ
1777452155.6305122,2284,0,S_ɑ
1777452155.633117,1955,0,S_ɑ
1777452155.6357288,1923,0,S_ɑ
1777452155.6451359,1775,0,S_ɑ
1777452155.645463,2235,0,S_ɑ
1777452155.646915,2342,0,S_ɑ
1777452155.649615,2165,0,S_ɑ
1777452155.652506,2035,0,S_ɑ
1777452155.6548622,1802,0,S_ɑ
1777452155.659319,2069,0,S_ɑ
1777452155.663499,2314,0,S_ɑ
1777452155.663975,2289,0,S_ɑ
1777452155.667107,2048,0,S_ɑ
1777452155.6685078,1926,0,S_ɑ
1777452155.671514,1902,0,S_ɑ
1777452155.6745138,2065,0,S_ɑ
1777452155.677508,2331,0,S_ɑ
1777452155.680516,2207,0,S_ɑ
1777452155.6838982,1880,0,S_ɑ
1777452155.691474,1870,0,S_ɑ
1777452155.692417,2080,0,S_ɑ
1777452155.693244,2159,0,S_ɑ
1777452155.69606,2222,0,S_ɑ
1777452155.699122,2139,0,S_ɑ
1777452155.7033222,1968,0,S_ɑ
1777452155.7059221,1772,0,S_ɑ
1777452155.710262,2485,0,S_ɑ
1777452155.710676,2010,0,S_ɑ
1777452155.714462,1979,0,S_ɑ
1777452155.717154,2282,0,S_ɑ
1777452155.7198982,1854,0,S_ɑ
1777452155.728231,1935,0,S_ɑ
1777452155.7291038,2191,0,S_ɑ
1777452155.7298958,2223,0,S_ɑ
1777452155.73316,2232,0,S_ɑ
1777452155.736118,1807,0,S_ɑ
1777452155.7379231,1804,0,S_ɑ
1777452155.7426271,2545,0,S_ɑ
1777452155.746898,2748,0,S_ɑ
1777452155.747086,2033,0,S_ɑ
1777452155.750664,1871,0,S_ɑ
1777452155.752495,1724,0,S_ɑ
1777452155.755502,2027,0,S_ɑ
1777452155.758501,2455,0,S_ɑ
1777452155.7614982,2388,0,S_ɑ
1777452155.764524,2111,0,S_ɑ
1777452155.767526,1681,0,S_ɑ
1777452155.7707038,2078,0,S_ɑ
1777452155.77826,2096,0,S_ɑ
1777452155.780087,2365,0,S_ɑ
1777452155.781906,2287,0,S_ɑ
1777452155.782872,2294,0,S_ɑ
1777452155.785598,1808,0,S_ɑ
1777452155.789823,2001,0,S_ɑ
1777452155.792127,2184,0,S_ɑ
1777452155.797303,2343,0,S_ɑ
1777452155.7977788,2200,0,S_ɑ
1777452155.802631,1914,0,S_ɑ
1777452155.807162,2038,0,S_ɑ
1777452155.807599,2056,0,S_ɑ
1777452155.809501,1997,0,S_ɑ
1777452155.8125749,2268,0,S_ɑ
1777452155.815813,2120,0,S_ɑ
1777452155.825783,2036,0,S_ɑ
1777452155.825999,1836,0,S_ɑ
1777452155.8268611,2203,0,S_ɑ
1777452155.830337,2804,0,S_ɑ
1777452155.830705,2471,0,S_ɑ
1777452155.834033,1990,0,S_ɑ
1777452155.836925,1995,0,S_ɑ
1777452155.8421068,2327,0,S_ɑ
1777452155.84717,2508,0,S_ɑ
1777452155.847397,2474,0,S_ɑ
1777452155.851365,2171,0,S_ɑ
1777452155.8522081,2137,0,S_ɑ
1777452155.854856,2139,0,S_ɑ
1777452155.857535,2356,0,S_ɑ
1777452155.860498,2631,0,S_ɑ
1777452155.863504,2474,0,S_ɑ
1777452155.8665001,2538,0,S_ɑ
1777452155.8695428,1921,0,S_ɑ
1777452155.879354,2252,0,S_ɑ
1777452155.881034,2435,0,S_ɑ
1777452155.882313,2407,0,S_ɑ
1777452155.882497,2425,0,S_ɑ
1777452155.884907,2046,0,S_ɑ
1777452155.887729,2055,0,S_ɑ
1777452155.8908732,2215,0,S_ɑ
1777452155.894785,2267,0,S_ɑ
1777452155.899149,2412,0,S_ɑ
1777452155.899752,2263,0,S_ɑ
1777452155.903466,1963,0,S_ɑ
1777452155.906111,2081,0,S_ɑ
1777452155.90873,2286,0,S_ɑ
1777452155.911671,2351,0,S_ɑ
1777452155.920871,2211,0,S_ɑ
1777452155.921742,2077,0,S_ɑ
1777452155.92188,1897,0,S_ɑ
1777452155.925882,2163,0,S_ɑ
1777452155.92655,2157,0,S_ɑ
1777452155.930835,2615,0,S_ɑ
1777452155.9333172,2118,0,S_ɑ
1777452155.9387379,2008,0,S_ɑ
1777452155.944155,2129,0,S_ɑ
1777452155.944412,1969,0,S_ɑ
1777452155.945032,2999,0,S_ɑ
1777452155.948705,2183,0,S_ɑ
1777452155.9503942,2031,0,S_ɑ
1777452155.953399,1972,0,S_ɑ
1777452155.956387,2132,0,S_ɑ
1777452155.9602392,2450,0,S_ɑ
1777452155.962943,2379,0,S_ɑ
1777452155.965494,2187,0,S_ɑ
1777452155.968441,2026,0,S_ɑ
1777452155.977538,1883,0,S_ɑ
1777452155.978393,2292,0,S_ɑ
1777452155.978623,2495,0,S_ɑ
1777452155.9817312,2144,0,S_ɑ
1777452155.984954,2418,0,S_ɑ
1777452155.986874,1875,0,S_ɑ
1777452155.991793,1997,0,S_ɑ
1777452155.9962082,2365,0,S_ɑ
1777452155.99664,2372,0,S_ɑ
1777452156.000573,2192,0,S_ɑ
1777452156.002203,1912,0,S_ɑ
1777452156.004838,1924,0,S_ɑ
1777452156.007493,2198,0,S_ɑ
1777452156.016681,2320,0,S_ɑ
1777452156.018315,2249,0,S_ɑ
1777452156.021458,2136,0,S_ɑ
1777452156.022062,1889,0,S_ɑ
1777452156.024726,2008,0,S_ɑ
1777452156.026465,2267,0,S_ɑ
1777452156.02915,2327,0,S_ɑ
1777452156.032913,2071,0,S_ɑ
1777452156.0375922,2054,0,S_ɑ
1777452156.038002,1879,0,S_ɑ
1777452156.0410821,1722,0,S_ɑ
1777452156.043724,2222,0,S_ɑ
1777452156.046387,2467,0,S_ɑ
1777452156.049391,2086,0,S_ɑ
1777452156.052377,1876,0,S_ɑ
1777452156.0554,1893,0,S_ɑ
1777452156.066497,2132,0,S_ɑ
1777452156.068089,2400,0,S_ɑ
1777452156.06832,2220,0,S_ɑ
1777452156.070775,2073,0,S_ɑ
1777452156.0712261,1848,0,S_ɑ
1777452156.0740218,2078,0,S_ɑ
1777452156.07679,2253,0,S_ɑ
1777452156.0811121,2197,0,S_ɑ
1777452156.085622,2081,0,S_ɑ
1777452156.0861492,1843,0,S_ɑ
1777452156.090264,1938,0,S_ɑ
1777452156.0917408,2210,0,S_ɑ
1777452156.0944,2206,0,S_ɑ
1777452156.097693,2225,0,S_ɑ
1777452156.1061602,2031,0,S_ɑ
1777452156.1063879,1759,0,S_ɑ
1777452156.107072,2060,0,S_ɑ
1777452156.110243,2200,0,S_ɑ
1777452156.113117,2231,0,S_ɑ
1777452156.1175418,2132,0,S_ɑ
1777452156.12033,1843,0,S_ɑ
1777452156.124914,1860,0,S_ɑ
1777452156.125203,2009,0,S_ɑ
1777452156.1289291,2334,0,S_ɑ
1777452156.1303601,2246,0,S_ɑ
1777452156.133356,2056,0,S_ɑ
1777452156.136357,1744,0,S_ɑ
1777452156.139356,2130,0,S_ɑ
1777452156.1423612,2131,0,S_ɑ
1777452156.151532,2308,0,S_ɑ
1777452156.1546822,2068,0,S_ɑ
1777452156.1571321,1856,0,S_ɑ
1777452156.157444,1955,0,S_ɑ
1777452156.157635,2052,0,S_ɑ
1777452156.161869,2208,0,S_ɑ
1777452156.163954,2165,0,S_ɑ
1777452156.167446,1990,0,S_ɑ
1777452156.171933,1923,0,S_ɑ
1777452156.1724439,1926,0,S_ɑ
1777452156.17644,2159,0,S_ɑ
1777452156.178377,2340,0,S_ɑ
1777452156.181376,2134,0,S_ɑ
1777452156.1902678,1813,0,S_ɑ
1777452156.191178,1811,0,S_ɑ
1777452156.191901,2022,0,S_ɑ
1777452156.195426,2205,0,S_ɑ
1777452156.199191,2164,0,S_ɑ
1777452156.200572,1929,0,S_ɑ
1777452156.2025752,1942,0,S_ɑ
1777452156.2057412,1886,0,S_ɑ
1777452156.210113,2033,0,S_ɑ
1777452156.213908,2396,0,S_ɑ
1777452156.214369,2164,0,S_ɑ
1777452156.217371,1983,0,S_ɑ
1777452156.220365,1787,0,S_ɑ
1777452156.223365,2049,0,S_ɑ
1777452156.226367,2199,0,S_ɑ
1777452156.229381,2237,0,S_ɑ
1777452156.237165,2066,0,S_ɑ
1777452156.238015,1831,0,S_ɑ
1777452156.239072,1642,0,S_ɑ
1777452156.2433631,2413,0,S_ɑ
1777452156.247064,2273,0,S_ɑ
1777452156.247971,2170,0,S_ɑ
1777452156.2518458,2035,0,S_ɑ
1777452156.2558122,1772,0,S_ɑ
1777452156.2611918,1970,0,S_ɑ
1777452156.261678,2257,0,S_ɑ
1777452156.265307,2103,0,S_ɑ
1777452156.266183,2093,0,S_ɑ
1777452156.268825,1813,0,S_ɑ
1777452156.2714481,1846,0,S_ɑ
1777452156.2743711,2181,0,S_ɑ
1777452156.28335,2248,0,S_ɑ
1777452156.285144,2158,0,S_ɑ
1777452156.286273,1988,0,S_ɑ
1777452156.287145,1943,0,S_ɑ
1777452156.289651,1902,0,S_ɑ
1777452156.293389,2223,0,S_ɑ
1777452156.295729,2165,0,S_ɑ
1777452156.300863,2081,0,S_ɑ
1777452156.3055649,1892,0,S_ɑ
1777452156.3060842,1888,0,S_ɑ
1777452156.3103402,2071,0,S_ɑ
1777452156.310697,2297,0,S_ɑ
1777452156.3133671,2228,0,S_ɑ
1777452156.316365,2062,0,S_ɑ
1777452156.319384,1848,0,S_ɑ
1777452156.322381,1930,0,S_ɑ
1777452156.325363,2214,0,S_ɑ
1777452156.328373,2160,0,S_ɑ
1777452156.341109,2107,0,S_ɑ
1777452156.343013,2080,0,S_ɑ
1777452156.349397,1822,0,S_ɑ
1777452156.35022,1992,0,S_ɑ
1777452156.35106,2266,0,S_ɑ
1777452156.3519292,2154,0,S_ɑ
1777452156.356228,1905,0,S_ɑ
1777452156.3564491,2252,0,S_ɑ
1777452156.356729,1864,0,S_ɑ
1777452156.361977,2122,0,S_ɑ
1777452156.362585,2216,0,S_ɑ
1777452156.366349,2128,0,S_ɑ
1777452156.367718,2002,0,S_ɑ
1777452156.370363,1863,0,S_ɑ
1777452156.373369,2064,0,S_ɑ
1777452156.376381,2167,0,S_ɑ
1777452156.386494,2284,0,S_ɑ
1777452156.387545,1980,0,S_ɑ
1777452156.388494,1945,0,S_ɑ
1777452156.3895302,1921,0,S_ɑ
1777452156.392748,2188,0,S_ɑ
1777452156.396381,2210,0,S_ɑ
1777452156.398271,2143,0,S_ɑ
1777452156.4025111,1986,0,S_ɑ
1777452156.407125,1859,0,S_ɑ
1777452156.407337,1924,0,S_ɑ
1777452156.4111638,2207,0,S_ɑ
1777452156.4125729,2231,0,S_ɑ
1777452156.4153652,2188,0,S_ɑ
1777452156.418367,2003,0,S_ɑ
1777452156.421356,1871,0,S_ɑ
1777452156.424362,2093,0,S_ɑ
1777452156.434169,2244,0,S_ɑ
1777452156.4350169,2142,0,S_ɑ
1777452156.4360461,2109,0,S_ɑ
1777452156.4371672,1833,0,S_ɑ
1777452156.441352,1986,0,S_ɑ
1777452156.444919,2269,0,S_ɑ
1777452156.4459,2221,0,S_ɑ
1777452156.448871,2097,0,S_ɑ
1777452156.453363,1950,0,S_ɑ
1777452156.458592,1868,0,S_ɑ
1777452156.4587991,2066,0,S_ɑ
1777452156.463466,2238,0,S_ɑ
1777452156.463538,2162,0,S_ɑ
1777452156.4663732,2062,0,S_ɑ
1777452156.469384,1883,0,S_ɑ
1777452156.4800482,1903,0,S_ɑ
1777452156.4810932,2210,0,S_ɑ
1777452156.482199,2286,0,S_ɑ
1777452156.48229,2160,0,S_ɑ
1777452156.4866529,1976,0,S_ɑ
1777452156.4908512,1812,0,S_ɑ
1777452156.49103,2025,0,S_ɑ
1777452156.493666,2248,0,S_ɑ
1777452156.497416,2247,0,S_ɑ
1777452156.5018098,2090,0,S_ɑ
1777452156.502371,1881,0,S_ɑ
1777452156.506231,1877,0,S_ɑ
1777452156.5088341,2191,0,S_ɑ
1777452156.511505,2166,0,S_ɑ
1777452156.514278,2232,0,S_ɑ
1777452156.518091,1980,0,S_ɑ
1777452156.520729,1904,0,S_ɑ
1777452156.5321631,1947,0,S_ɑ
1777452156.5324202,2259,0,S_ɑ
1777452156.532583,2232,0,S_ɑ
1777452156.532744,2027,0,S_ɑ
1777452156.536402,1882,0,S_ɑ
1777452156.539408,1859,0,S_ɑ
1777452156.543081,2145,0,S_ɑ
1777452156.544714,2267,0,S_ɑ
1777452156.54762,2151,0,S_ɑ
1777452156.555915,2075,0,S_ɑ
1777452156.556066,1869,0,S_ɑ
1777452156.5562391,1995,0,S_ɑ
1777452156.56004,2242,0,S_ɑ
1777452156.5629041,2254,0,S_ɑ
1777452156.5700212,2132,0,S_ɑ
1777452156.570896,1951,0,S_ɑ
1777452156.572414,1876,0,S_ɑ
1777452156.5785239,2075,0,S_ɑ
1777452156.579375,2283,0,S_ɑ
1777452156.581565,2225,0,S_ɑ
1777452156.585948,2065,0,S_ɑ
1777452156.5904799,1882,0,S_ɑ
1777452156.59097,1971,0,S_ɑ
1777452156.59508,2186,0,S_ɑ
1777452156.5952792,2274,0,S_ɑ
1777452156.59828,2155,0,S_ɑ
1777452156.601237,1950,0,S_ɑ
1777452156.604246,1868,0,S_ɑ
1777452156.607235,2037,0,S_ɑ
1777452156.610246,2275,0,S_ɑ
1777452156.619812,2169,0,S_ɑ
1777452156.621418,2097,0,S_ɑ
1777452156.623735,1980,0,S_ɑ
1777452156.62408,1957,0,S_ɑ
1777452156.627844,2135,0,S_ɑ
1777452156.628685,2239,0,S_ɑ
1777452156.6343172,2164,0,S_ɑ
1777452156.6346781,1997,0,S_ɑ
1777452156.638955,1873,0,S_ɑ
1777452156.642972,2029,0,S_ɑ
1777452156.643276,2191,0,S_ɑ
1777452156.6462479,2197,0,S_ɑ
1777452156.649317,2110,0,S_ɑ
1777452156.65747,1982,0,S_ɑ
1777452156.657745,1889,0,S_ɑ
1777452156.65981,2163,0,S_ɑ
1777452156.663035,2303,0,S_ɑ
1777452156.666582,2190,0,S_ɑ
1777452156.66741,2111,0,S_ɑ
1777452156.672837,1904,0,S_ɑ
1777452156.6773162,2031,0,S_ɑ
1777452156.6777978,2207,0,S_ɑ
1777452156.681838,2244,0,S_ɑ
1777452156.68225,2119,0,S_ɑ
1777452156.6852422,1906,0,S_ɑ
1777452156.688246,1973,0,S_ɑ
1777452156.6912398,2133,0,S_ɑ
1777452156.694239,2244,0,S_ɑ
1777452156.703776,2179,0,S_ɑ
1777452156.704582,2010,0,S_ɑ
1777452156.7059321,1893,0,S_ɑ
1777452156.706777,2061,0,S_ɑ
1777452156.71222,2297,0,S_ɑ
1777452156.712458,2425,0,S_ɑ
1777452156.717078,2129,0,S_ɑ
1777452156.720844,1932,0,S_ɑ
1777452156.7213628,1866,0,S_ɑ
1777452156.7246342,2238,0,S_ɑ
1777452156.7272398,2293,0,S_ɑ
1777452156.730419,2198,0,S_ɑ
1777452156.7374778,1986,0,S_ɑ
1777452156.738167,1954,0,S_ɑ
1777452156.7405849,1922,0,S_ɑ
1777452156.743136,2302,0,S_ɑ
1777452156.748919,2225,0,S_ɑ
1777452156.7492049,2184,0,S_ɑ
1777452156.7528582,1853,0,S_ɑ
1777452156.756303,1848,0,S_ɑ
1777452156.7576919,2108,0,S_ɑ
1777452156.760483,2320,0,S_ɑ
1777452156.763268,2099,0,S_ɑ
1777452156.76624,2018,0,S_ɑ
1777452156.769238,1942,0,S_ɑ
1777452156.777746,1856,0,S_ɑ
1777452156.779008,2151,0,S_ɑ
1777452156.780828,2151,0,S_ɑ
1777452156.781276,2141,0,S_ɑ
1777452156.785783,1916,0,S_ɑ
1777452156.789665,1833,0,S_ɑ
1777452156.793741,1947,0,S_ɑ
1777452156.794188,2226,0,S_ɑ
1777452156.797473,2184,0,S_ɑ
1777452156.799243,2020,0,S_ɑ
1777452156.802239,1970,0,S_ɑ
1777452156.811101,1913,0,S_ɑ
1777452156.811818,2043,0,S_ɑ
1777452156.8144598,2241,0,S_ɑ
1777452156.814798,2205,0,S_ɑ
1777452156.818194,2011,0,S_ɑ
1777452156.8230379,1844,0,S_ɑ
1777452156.826946,1963,0,S_ɑ
1777452156.82715,2171,0,S_ɑ
1777452156.83059,2234,0,S_ɑ
1777452156.832233,2080,0,S_ɑ
1777452156.8352509,1876,0,S_ɑ
1777452156.838239,1849,0,S_ɑ
1777452156.841228,2083,0,S_ɑ
1777452156.844543,2085,0,S_ɑ
1777452156.8523011,2195,0,S_ɑ
1777452156.853091,1936,0,S_ɑ
1777452156.8556201,1915,0,S_ɑ
1777452156.8592708,2090,0,S_ɑ
1777452156.860051,2151,0,S_ɑ
1777452156.862624,2186,0,S_ɑ
1777452156.865993,2278,0,S_ɑ
1777452156.8704169,1922,0,S_ɑ
1777452156.8741062,1805,0,S_ɑ
1777452156.874798,2045,0,S_ɑ
1777452156.877433,2194,0,S_ɑ
1777452156.880225,2118,0,S_ɑ
1777452156.8893151,2019,0,S_ɑ
1777452156.890683,1807,0,S_ɑ
1777452156.8909729,1792,0,S_ɑ
1777452156.8943439,2080,0,S_ɑ
1777452156.8973172,2259,0,S_ɑ
1777452156.8991098,2004,0,S_ɑ
1777452156.901762,1978,0,S_ɑ
1777452156.908503,1761,0,S_ɑ
1777452156.908718,1904,0,S_ɑ
1777452156.912589,2099,0,S_ɑ
1777452156.9132211,2152,0,S_ɑ
1777452156.916237,2026,0,S_ɑ
1777452156.9192939,1855,0,S_ɑ
1777452156.922234,1743,0,S_ɑ
1777452156.925228,2117,0,S_ɑ
1777452156.928236,2173,0,S_ɑ
1777452156.936723,2125,0,S_ɑ
1777452156.938277,1870,0,S_ɑ
1777452156.938507,1742,0,S_ɑ
1777452156.9413161,1939,0,S_ɑ
1777452156.947504,2077,0,S_ɑ
1777452156.948265,2100,0,S_ɑ
1777452156.952039,1906,0,S_ɑ
1777452156.952322,1898,0,S_ɑ
1777452156.956469,1854,0,S_ɑ
1777452156.9602911,2082,0,S_ɑ
1777452156.9617012,2165,0,S_ɑ
1777452156.964282,1944,0,S_ɑ
1777452156.967248,1948,0,S_ɑ
1777452156.973814,1756,0,S_ɑ
1777452156.9746392,1977,0,S_ɑ
1777452156.976533,2139,0,S_ɑ
1777452156.979638,2212,0,S_ɑ
1777452156.98238,1916,0,S_ɑ
1777452156.986443,1863,0,S_ɑ
1777452156.9891572,1735,0,S_ɑ
1777452156.9933481,1896,0,S_ɑ
1777452156.997003,2227,0,S_ɑ
1777452156.99738,2114,0,S_ɑ
1777452157.000225,1909,0,S_ɑ
1777452157.003239,1717,0,S_ɑ
1777452157.006233,1886,0,S_ɑ
1777452157.0092218,2105,0,S_ɑ
1777452157.012237,2146,0,S_ɑ
1777452157.0222661,2009,0,S_ɑ
1777452157.024628,1887,0,S_ɑ
1777452157.0249128,1699,0,S_ɑ
1777452157.0278652,1922,0,S_ɑ
1777452157.030112,2090,0,S_ɑ
1777452157.031092,2090,0,S_ɑ
1777452157.039626,2002,0,S_ɑ
1777452157.040004,1836,0,S_ɑ
1777452157.0403829,1910,0,S_ɑ
1777452157.044003,2121,0,S_ɑ
1777452157.0453491,2191,0,S_ɑ
1777452157.048239,2031,0,S_ɑ
1777452157.057199,1953,0,S_ɑ
1777452157.057444,1821,0,S_ɑ
1777452157.058209,1868,0,S_ɑ
1777452157.062635,2114,0,S_ɑ
1777452157.065727,2143,0,S_ɑ
1777452157.066644,2026,0,S_ɑ
1777452157.072365,1880,0,S_ɑ
1777452157.0725708,1837,0,S_ɑ
1777452157.076811,2017,0,S_ɑ
1777452157.080676,2183,0,S_ɑ
1777452157.081111,2055,0,S_ɑ
1777452157.08412,2024,0,S_ɑ
1777452157.087161,1769,0,S_ɑ
1777452157.090173,1898,0,S_ɑ
1777452157.093146,2193,0,S_ɑ
1777452157.096124,2184,0,S_ɑ
1777452157.1054342,2084,0,S_ɑ
1777452157.1056309,1841,0,S_ɑ
1777452157.1071098,1724,0,S_ɑ
1777452157.109823,1952,0,S_ɑ
1777452157.112907,2322,0,S_ɑ
1777452157.1143491,2122,0,S_ɑ
1777452157.119592,2000,0,S_ɑ
1777452157.123915,1723,0,S_ɑ
1777452157.1242728,1880,0,S_ɑ
1777452157.1280499,2282,0,S_ɑ
1777452157.129468,2232,0,S_ɑ
1777452157.1321118,2047,0,S_ɑ
1777452157.135127,1850,0,S_ɑ
1777452157.144567,1833,0,S_ɑ
1777452157.146025,2031,0,S_ɑ
1777452157.1483881,2181,0,S_ɑ
1777452157.14861,2134,0,S_ɑ
1777452157.152107,2032,0,S_ɑ
1777452157.155262,1817,0,S_ɑ
1777452157.1585479,1890,0,S_ɑ
1777452157.16277,2111,0,S_ɑ
1777452157.163137,2214,0,S_ɑ
1777452157.1670122,1954,0,S_ɑ
1777452157.1684082,1902,0,S_ɑ
1777452157.171186,1767,0,S_ɑ
1777452157.174124,1927,0,S_ɑ
1777452157.177142,2078,0,S_ɑ
1777452157.180119,2249,0,S_ɑ
1777452157.183188,2127,0,S_ɑ
1777452157.1923351,1808,0,S_ɑ
1777452157.193154,1803,0,S_ɑ
1777452157.196479,2182,0,S_ɑ
1777452157.1968892,2289,0,S_ɑ
1777452157.20045,2083,0,S_ɑ
1777452157.20139,1895,0,S_ɑ
1777452157.204554,1711,0,S_ɑ
1777452157.207214,1917,0,S_ɑ
1777452157.211612,2161,0,S_ɑ
1777452157.215507,2227,0,S_ɑ
1777452157.216117,2087,0,S_ɑ
1777452157.219105,1838,0,S_ɑ
1777452157.222123,1861,0,S_ɑ
1777452157.2308328,2092,0,S_ɑ
1777452157.231057,2226,0,S_ɑ
1777452157.231852,2197,0,S_ɑ
1777452157.2352588,1897,0,S_ɑ
1777452157.2384372,1750,0,S_ɑ
1777452157.2409222,1918,0,S_ɑ
1777452157.2453408,2124,0,S_ɑ
1777452157.2500758,2168,0,S_ɑ
1777452157.250324,2006,0,S_ɑ
1777452157.253238,1871,0,S_ɑ
1777452157.255094,1864,0,S_ɑ
1777452157.258101,2006,0,S_ɑ
1777452157.261483,2172,0,S_ɑ
1777452157.264145,2178,0,S_ɑ
1777452157.2671082,2048,0,S_ɑ
1777452157.2702131,1713,0,S_ɑ
1777452157.277844,1773,0,S_ɑ
1777452157.2793322,2131,0,S_ɑ
1777452157.282547,2183,0,S_ɑ
1777452157.286567,2124,0,S_ɑ
1777452157.287269,1910,0,S_ɑ
1777452157.289644,1841,0,S_ɑ
1777452157.292217,1908,0,S_ɑ
1777452157.2967858,2143,0,S_ɑ
1777452157.2971442,2187,0,S_ɑ
1777452157.3010418,1988,0,S_ɑ
1777452157.303702,1827,0,S_ɑ
1777452157.306315,1814,0,S_ɑ
1777452157.314844,2107,0,S_ɑ
1777452157.315107,2165,0,S_ɑ
1777452157.316566,2005,0,S_ɑ
1777452157.3201249,1941,0,S_ɑ
1777452157.323197,1810,0,S_ɑ
1777452157.324972,1943,0,S_ɑ
1777452157.327672,2163,0,S_ɑ
1777452157.330139,2133,0,S_ɑ
1777452157.334485,2026,0,S_ɑ
1777452157.337654,1759,0,S_ɑ
1777452157.339091,1750,0,S_ɑ
1777452157.342093,2081,0,S_ɑ
1777452157.345112,2205,0,S_ɑ
1777452157.348097,2091,0,S_ɑ
1777452157.351093,1960,0,S_ɑ
1777452157.3540921,1804,0,S_ɑ
1777452157.363012,1918,0,S_ɑ
1777452157.363282,2081,0,S_ɑ
1777452157.3640819,2161,0,S_ɑ
1777452157.367429,2094,0,S_ɑ
1777452157.371325,1818,0,S_ɑ
1777452157.3731341,1768,0,S_ɑ
1777452157.377485,1960,0,S_ɑ
1777452157.382577,2168,0,S_ɑ
1777452157.383038,2177,0,S_ɑ
1777452157.386677,2021,0,S_ɑ
1777452157.387201,1678,0,S_ɑ
1777452157.390104,1828,0,S_ɑ
1777452157.393086,2175,0,S_ɑ
1777452157.4036689,2220,0,S_ɑ
1777452157.404712,2022,0,S_ɑ
1777452157.405872,1802,0,S_ɑ
1777452157.4061172,1802,0,S_ɑ
1777452157.4088352,2017,0,S_ɑ
1777452157.413232,2201,0,S_ɑ
1777452157.415953,2147,0,S_ɑ
1777452157.417601,1956,0,S_ɑ
1777452157.426603,1757,0,S_ɑ
1777452157.4269361,1844,0,S_ɑ
1777452157.427159,2218,0,S_ɑ
1777452157.4317372,2248,0,S_ɑ
1777452157.432263,2054,0,S_ɑ
1777452157.4350898,1870,0,S_ɑ
1777452157.43809,1763,0,S_ɑ
1777452157.441102,1985,0,S_ɑ
1777452157.4441159,2227,0,S_ɑ
1777452157.447098,2258,0,S_ɑ
1777452157.450102,2057,0,S_ɑ
1777452157.4603179,1733,0,S_ɑ
1777452157.4613361,1796,0,S_ɑ
1777452157.471414,2135,0,S_ɑ
1777452157.473241,2247,0,S_ɑ
1777452157.474046,2097,0,S_ɑ
1777452157.474377,1943,0,S_ɑ
1777452157.4751449,1801,0,S_ɑ
1777452157.476511,1981,0,S_ɑ
1777452157.479435,2235,0,S_ɑ
1777452157.486739,2205,0,S_ɑ
1777452157.487662,2065,0,S_ɑ
1777452157.487728,1827,0,S_ɑ
1777452157.489098,1854,0,S_ɑ
1777452157.492102,2092,0,S_ɑ
1777452157.503583,2214,0,S_ɑ
1777452157.503944,2134,0,S_ɑ
1777452157.5050082,1943,0,S_ɑ
1777452157.508539,1779,0,S_ɑ
1777452157.5088441,1932,0,S_ɑ
1777452157.5133178,2181,0,S_ɑ
1777452157.514482,2248,0,S_ɑ
1777452157.5161731,2085,0,S_ɑ
1777452157.521559,1862,0,S_ɑ
1777452157.5260642,1832,0,S_ɑ
1777452157.526509,2095,0,S_ɑ
1777452157.5300732,2258,0,S_ɑ
1777452157.531425,2159,0,S_ɑ
1777452157.534145,2010,0,S_ɑ
1777452157.5371242,1766,0,S_ɑ
1777452157.540102,1868,0,S_ɑ
1777452157.5430882,2175,0,S_ɑ
1777452157.546127,2210,0,S_ɑ
1777452157.554239,2060,0,S_ɑ
1777452157.555179,1853,0,S_ɑ
1777452157.555944,1794,0,S_ɑ
1777452157.559814,2012,0,S_ɑ
1777452157.5642948,2241,0,S_ɑ
1777452157.564424,2227,0,S_ɑ
1777452157.567591,2023,0,S_ɑ
1777452157.572354,1758,0,S_ɑ
1777452157.5774899,1872,0,S_ɑ
1777452157.5779462,2137,0,S_ɑ
1777452157.582309,2201,0,S_ɑ
1777452157.582734,2061,0,S_ɑ
1777452157.585382,1898,0,S_ɑ
1777452157.588098,1795,0,S_ɑ
1777452157.59835,1987,0,S_ɑ
1777452157.599361,2205,0,S_ɑ
1777452157.5995688,2176,0,S_ɑ
1777452157.600514,2023,0,S_ɑ
1777452157.6053429,1860,0,S_ɑ
1777452157.608788,1856,0,S_ɑ
1777452157.609706,2108,0,S_ɑ
1777452157.613825,2232,0,S_ɑ
1777452157.617877,2130,0,S_ɑ
1777452157.6183171,1990,0,S_ɑ
1777452157.622711,1827,0,S_ɑ
1777452157.626577,2031,0,S_ɑ
1777452157.627093,2095,0,S_ɑ
1777452157.630123,2170,0,S_ɑ
1777452157.6331022,2073,0,S_ɑ
1777452157.636108,1785,0,S_ɑ
1777452157.6391082,1879,0,S_ɑ
1777452157.642119,2099,0,S_ɑ
1777452157.650439,2187,0,S_ɑ
1777452157.651316,2188,0,S_ɑ
1777452157.653474,1977,0,S_ɑ
1777452157.65581,1873,0,S_ɑ
1777452157.6593769,1922,0,S_ɑ
1777452157.662035,2173,0,S_ɑ
1777452157.6660101,2162,0,S_ɑ
1777452157.6662521,2104,0,S_ɑ
1777452157.67059,1858,0,S_ɑ
1777452157.674562,1748,0,S_ɑ
1777452157.675099,2061,0,S_ɑ
1777452157.678099,2249,0,S_ɑ
1777452157.681105,2214,0,S_ɑ
1777452157.6895201,2009,0,S_ɑ
1777452157.691778,1847,0,S_ɑ
1777452157.69528,1890,0,S_ɑ
1777452157.699293,2186,0,S_ɑ
1777452157.699637,2131,0,S_ɑ
1777452157.701139,2077,0,S_ɑ
1777452157.703896,2052,0,S_ɑ
1777452157.706825,1720,0,S_ɑ
1777452157.7112908,1812,0,S_ɑ
1777452157.71169,2290,0,S_ɑ
1777452157.7155058,2101,0,S_ɑ
1777452157.7171159,2059,0,S_ɑ
1777452157.7200909,1792,0,S_ɑ
1777452157.723086,1864,0,S_ɑ
1777452157.7260811,2136,0,S_ɑ
1777452157.729116,2299,0,S_ɑ
1777452157.7389529,1975,0,S_ɑ
1777452157.7405381,1970,0,S_ɑ
1777452157.742157,1790,0,S_ɑ
1777452157.744412,1858,0,S_ɑ
1777452157.747531,2285,0,S_ɑ
1777452157.749134,2078,0,S_ɑ
1777452157.7523258,1977,0,S_ɑ
1777452157.759907,1707,0,S_ɑ
1777452157.760397,1907,0,S_ɑ
1777452157.7608051,2287,0,S_ɑ
1777452157.764392,2134,0,S_ɑ
1777452157.765773,2071,0,S_ɑ
1777452157.768403,1980,0,S_ɑ
1777452157.77131,1743,0,S_ɑ
1777452157.778941,1979,0,S_ɑ
1777452157.7798452,2224,0,S_ɑ
1777452157.7807202,2199,0,S_ɑ
1777452157.784058,2073,0,S_ɑ
1777452157.787761,1816,0,S_ɑ
1777452157.7904131,1995,0,S_ɑ
1777452157.794224,2023,0,S_ɑ
1777452157.798239,2064,0,S_ɑ
1777452157.7985358,2214,0,S_ɑ
1777452157.8016798,1933,0,S_ɑ
1777452157.804317,1775,0,S_ɑ
1777452157.807083,1686,0,S_ɑ
1777452157.810085,2191,0,S_ɑ
1777452157.8130949,2304,0,S_ɑ
1777452157.816101,2084,0,S_ɑ
1777452157.82529,1854,0,S_ɑ
1777452157.82754,1870,0,S_ɑ
1777452157.828413,2065,0,S_ɑ
1777452157.831298,2235,0,S_ɑ
1777452157.831607,2056,0,S_ɑ
1777452157.834561,2078,0,S_ɑ
1777452157.838815,1780,0,S_ɑ
1777452157.841263,1779,0,S_ɑ
1777452157.845509,1971,0,S_ɑ
1777452157.84622,2285,0,S_ɑ
1777452157.849697,2218,0,S_ɑ
1777452157.852321,1927,0,S_ɑ
1777452157.855093,1780,0,S_ɑ
1777452157.8581,1895,0,S_ɑ
1777452157.867024,2010,0,S_ɑ
1777452157.867222,2040,0,S_ɑ
1777452157.868086,2060,0,S_ɑ
1777452157.870615,1776,0,S_ɑ
1777452157.873385,1793,0,S_ɑ
1777452157.876513,2149,0,S_ɑ
1777452157.883515,2178,0,S_ɑ
1777452157.883782,2101,0,S_ɑ
1777452157.888265,2051,0,S_ɑ
1777452157.888716,1698,0,S_ɑ
1777452157.8930602,2008,0,S_ɑ
1777452157.894432,2305,0,S_ɑ
1777452157.8971038,2129,0,S_ɑ
1777452157.8999622,1881,0,S_ɑ
1777452157.902965,1850,0,S_ɑ
1777452157.9059699,1799,0,S_ɑ
1777452157.908971,2122,0,S_ɑ
1777452157.9119868,2185,0,S_ɑ
1777452157.922831,2220,0,S_ɑ
1777452157.9238899,1932,0,S_ɑ
1777452157.924769,1806,0,S_ɑ
1777452157.925793,1874,0,S_ɑ
1777452157.928648,2145,0,S_ɑ
1777452157.932226,2224,0,S_ɑ
1777452157.934507,2126,0,S_ɑ
1777452157.936096,2009,0,S_ɑ
1777452157.940574,1795,0,S_ɑ
1777452157.9461818,2050,0,S_ɑ
1777452157.946717,2119,0,S_ɑ
1777452157.9499788,2121,0,S_ɑ
1777452157.951481,2517,0,S_ɑ
1777452157.954113,1716,0,S_ɑ
1777452157.9569678,1895,0,S_ɑ
1777452157.968748,2225,0,S_ɑ
1777452157.969883,2230,0,S_ɑ
1777452157.970737,2148,0,S_ɑ
1777452157.973017,1899,0,S_ɑ
1777452157.973261,1817,0,S_ɑ
1777452157.976168,1920,0,S_ɑ
1777452157.979271,2166,0,S_ɑ
1777452157.982908,2088,0,S_ɑ
1777452157.988163,1958,0,S_ɑ
1777452157.9884539,1847,0,S_ɑ
1777452157.992036,1853,0,S_ɑ
1777452157.9935732,2185,0,S_ɑ
1777452157.996258,2273,0,S_ɑ
1777452157.9989781,2105,0,S_ɑ
1777452158.0019898,1886,0,S_ɑ
1777452158.004968,1732,0,S_ɑ
1777452158.007961,1796,0,S_ɑ
1777452158.017815,2167,0,S_ɑ
1777452158.019669,2223,0,S_ɑ
1777452158.0198,2051,0,S_ɑ
1777452158.02268,1827,0,S_ɑ
1777452158.023057,1786,0,S_ɑ
1777452158.026992,2066,0,S_ɑ
1777452158.030213,2206,0,S_ɑ
1777452158.0330482,2124,0,S_ɑ
1777452158.0380821,1920,0,S_ɑ
1777452158.038495,1776,0,S_ɑ
1777452158.042932,1930,0,S_ɑ
1777452158.044375,2147,0,S_ɑ
1777452158.047117,2232,0,S_ɑ
1777452158.049973,2025,0,S_ɑ
1777452158.060179,1861,0,S_ɑ
1777452158.062021,1817,0,S_ɑ
1777452158.062974,2119,0,S_ɑ
1777452158.0640268,2272,0,S_ɑ
1777452158.066678,2150,0,S_ɑ
1777452158.071145,2132,0,S_ɑ
1777452158.071302,1740,0,S_ɑ
1777452158.0744588,1891,0,S_ɑ
1777452158.079238,2242,0,S_ɑ
1777452158.084361,2207,0,S_ɑ
1777452158.084877,2121,0,S_ɑ
1777452158.089489,1977,0,S_ɑ
1777452158.089948,1787,0,S_ɑ
1777452158.092652,1969,0,S_ɑ
1777452158.095179,2378,0,S_ɑ
1777452158.098217,2067,0,S_ɑ
1777452158.100982,1993,0,S_ɑ
1777452158.1039722,1827,0,S_ɑ
1777452158.113687,1941,0,S_ɑ
1777452158.115593,2191,0,S_ɑ
1777452158.116479,2257,0,S_ɑ
1777452158.117365,2096,0,S_ɑ
1777452158.119775,1899,0,S_ɑ
1777452158.124202,1820,0,S_ɑ
1777452158.1267798,2015,0,S_ɑ
1777452158.133904,2223,0,S_ɑ
1777452158.134207,2201,0,S_ɑ
1777452158.1344,2043,0,S_ɑ
1777452158.138458,1738,0,S_ɑ
1777452158.139976,1814,0,S_ɑ
1777452158.1429708,2132,0,S_ɑ
1777452158.153085,2311,0,S_ɑ
1777452158.1534138,2106,0,S_ɑ
1777452158.154384,2011,0,S_ɑ
1777452158.158379,1749,0,S_ɑ
1777452158.1610072,1886,0,S_ɑ
1777452158.1626399,2307,0,S_ɑ
1777452158.164804,2340,0,S_ɑ
1777452158.169306,2060,0,S_ɑ
1777452158.1736162,1810,0,S_ɑ
1777452158.173849,1798,0,S_ɑ
1777452158.176976,2012,0,S_ɑ
1777452158.179693,2407,0,S_ɑ
1777452158.182317,2171,0,S_ɑ
1777452158.18496,1976,0,S_ɑ
1777452158.187967,1752,0,S_ɑ
1777452158.1909661,1920,0,S_ɑ
1777452158.19398,2254,0,S_ɑ
1777452158.2023418,2273,0,S_ɑ
1777452158.203103,2081,0,S_ɑ
1777452158.204097,1869,0,S_ɑ
1777452158.207644,1882,0,S_ɑ
1777452158.211336,2077,0,S_ɑ
1777452158.212268,2280,0,S_ɑ
1777452158.2174752,2194,0,S_ɑ
1777452158.221638,2049,0,S_ɑ
1777452158.2219038,1813,0,S_ɑ
1777452158.225046,1871,0,S_ɑ
1777452158.226954,2272,0,S_ɑ
1777452158.229964,2231,0,S_ɑ
1777452158.232952,2080,0,S_ɑ
1777452158.240822,1993,0,S_ɑ
1777452158.241666,1787,0,S_ɑ
1777452158.242507,2075,0,S_ɑ
1777452158.245714,2232,0,S_ɑ
1777452158.248707,2176,0,S_ɑ
1777452158.251883,2080,0,S_ɑ
1777452158.2553868,1841,0,S_ɑ
1777452158.2597592,1881,0,S_ɑ
1777452158.260365,2180,0,S_ɑ
1777452158.263904,2235,0,S_ɑ
1777452158.265961,2074,0,S_ɑ
1777452158.268967,1943,0,S_ɑ
1777452158.271966,1924,0,S_ɑ
1777452158.274961,1981,0,S_ɑ
1777452158.2779799,2269,0,S_ɑ
1777452158.2868931,2290,0,S_ɑ
1777452158.287864,2078,0,S_ɑ
1777452158.28862,1867,0,S_ɑ
1777452158.2920818,1832,0,S_ɑ
1777452158.294986,2146,0,S_ɑ
1777452158.298024,2224,0,S_ɑ
1777452158.3018649,2216,0,S_ɑ
1777452158.302101,1995,0,S_ɑ
1777452158.306027,1722,0,S_ɑ
1777452158.3098,1995,0,S_ɑ
1777452158.311158,2225,0,S_ɑ
1777452158.31395,2295,0,S_ɑ
1777452158.3171468,2147,0,S_ɑ
1777452158.3239942,1924,0,S_ɑ
1777452158.324909,1866,0,S_ɑ
1777452158.328656,2222,0,S_ɑ
1777452158.329037,2308,0,S_ɑ
1777452158.334259,2219,0,S_ɑ
1777452158.33616,1998,0,S_ɑ
1777452158.338618,1840,0,S_ɑ
1777452158.3431199,1943,0,S_ɑ
1777452158.3468149,2195,0,S_ɑ
1777452158.347216,2255,0,S_ɑ
1777452158.349958,2115,0,S_ɑ
1777452158.3529458,2021,0,S_ɑ
1777452158.355947,1866,0,S_ɑ
1777452158.3589492,2080,0,S_ɑ
1777452158.3619661,2264,0,S_ɑ
1777452158.371408,2249,0,S_ɑ
1777452158.372395,2021,0,S_ɑ
1777452158.375977,1808,0,S_ɑ
1777452158.376195,1933,0,S_ɑ
1777452158.379709,2256,0,S_ɑ
1777452158.38061,2255,0,S_ɑ
1777452158.385149,2233,0,S_ɑ
1777452158.388273,1974,0,S_ɑ
1777452158.393287,1861,0,S_ɑ
1777452158.393661,2158,0,S_ɑ
1777452158.396996,2262,0,S_ɑ
1777452158.398345,2284,0,S_ɑ
1777452158.400987,2068,0,S_ɑ
1777452158.403965,1820,0,S_ɑ
1777452158.413019,1958,0,S_ɑ
1777452158.414716,2194,0,S_ɑ
1777452158.4149828,2343,0,S_ɑ
1777452158.416517,2170,0,S_ɑ
1777452158.419161,1983,0,S_ɑ
1777452158.4225411,1844,0,S_ɑ
1777452158.4258099,2039,0,S_ɑ
1777452158.430495,2309,0,S_ɑ
1777452158.435602,2296,0,S_ɑ
1777452158.4364731,1928,0,S_ɑ
1777452158.436974,1851,0,S_ɑ
1777452158.440402,1737,0,S_ɑ
1777452158.4430459,2103,0,S_ɑ
1777452158.445996,2232,0,S_ɑ
1777452158.4489632,2097,0,S_ɑ
1777452158.4519649,2054,0,S_ɑ
1777452158.454957,1751,0,S_ɑ
1777452158.45805,1969,0,S_ɑ
1777452158.469815,2234,0,S_ɑ
1777452158.470143,2335,0,S_ɑ
1777452158.470434,2049,0,S_ɑ
1777452158.470639,1980,0,S_ɑ
1777452158.473491,1916,0,S_ɑ
1777452158.477222,2092,0,S_ɑ
1777452158.480327,2196,0,S_ɑ
1777452158.4861388,2169,0,S_ɑ
1777452158.486458,1983,0,S_ɑ
1777452158.4910479,1928,0,S_ɑ
1777452158.4911108,1968,0,S_ɑ
1777452158.493952,2171,0,S_ɑ
1777452158.4969668,2205,0,S_ɑ
1777452158.507553,2177,0,S_ɑ
1777452158.5085912,1888,0,S_ɑ
1777452158.509587,1831,0,S_ɑ
1777452158.510611,2095,0,S_ɑ
1777452158.5140102,2346,0,S_ɑ
1777452158.51676,2194,0,S_ɑ
1777452158.518872,2079,0,S_ɑ
1777452158.5225742,1839,0,S_ɑ
1777452158.525677,1925,0,S_ɑ
1777452158.530997,2294,0,S_ɑ
1777452158.5313642,2162,0,S_ɑ
1777452158.535935,2081,0,S_ɑ
1777452158.5364249,1903,0,S_ɑ
1777452158.5398989,1788,0,S_ɑ
1777452158.5419588,2040,0,S_ɑ
1777452158.544959,2284,0,S_ɑ
1777452158.5479748,2136,0,S_ɑ
1777452158.55097,2102,0,S_ɑ
1777452158.5539808,1897,0,S_ɑ
1777452158.561913,1870,0,S_ɑ
1777452158.5627,2224,0,S_ɑ
1777452158.563605,2378,0,S_ɑ
1777452158.567232,2234,0,S_ɑ
1777452158.570522,1927,0,S_ɑ
1777452158.573956,1737,0,S_ɑ
1777452158.577806,2042,0,S_ɑ
1777452158.5781288,2271,0,S_ɑ
1777452158.583034,2208,0,S_ɑ
1777452158.586983,1975,0,S_ɑ
1777452158.587069,1904,0,S_ɑ
1777452158.589958,1894,0,S_ɑ
1777452158.5929532,2115,0,S_ɑ
1777452158.600734,2301,0,S_ɑ
1777452158.601541,2178,0,S_ɑ
1777452158.603124,2019,0,S_ɑ
1777452158.606255,1769,0,S_ɑ
1777452158.610594,1982,0,S_ɑ
1777452158.6114318,2218,0,S_ɑ
1777452158.6205409,2241,0,S_ɑ
1777452158.620924,2068,0,S_ɑ
1777452158.621418,1846,0,S_ɑ
1777452158.62522,1829,0,S_ɑ
1777452158.62659,2147,0,S_ɑ
1777452158.629206,2205,0,S_ɑ
1777452158.6320121,2222,0,S_ɑ
1777452158.6349702,1984,0,S_ɑ
1777452158.637974,1926,0,S_ɑ
1777452158.6409512,2027,0,S_ɑ
1777452158.650388,2115,0,S_ɑ
1777452158.650603,2358,0,S_ɑ
1777452158.651411,2000,0,S_ɑ
1777452158.654753,1937,0,S_ɑ
1777452158.658866,1841,0,S_ɑ
1777452158.659719,2130,0,S_ɑ
1777452158.6624808,2211,0,S_ɑ
1777452158.665765,2165,0,S_ɑ
1777452158.670125,2044,0,S_ɑ
1777452158.6733289,1918,0,S_ɑ
1777452158.674479,1953,0,S_ɑ
1777452158.6771042,2283,0,S_ɑ
1777452158.679955,2295,0,S_ɑ
1777452158.689492,2144,0,S_ɑ
1777452158.6911008,1944,0,S_ɑ
1777452158.6920269,1706,0,S_ɑ
1777452158.692812,1951,0,S_ɑ
1777452158.695231,2218,0,S_ɑ
1777452158.6988711,2200,0,S_ɑ
1777452158.702376,2039,0,S_ɑ
1777452158.705767,1829,0,S_ɑ
1777452158.710075,1883,0,S_ɑ
1777452158.710508,2229,0,S_ɑ
1777452158.7149491,2287,0,S_ɑ
1777452158.716311,2110,0,S_ɑ
1777452158.718952,1983,0,S_ɑ
1777452158.721944,1846,0,S_ɑ
1777452158.724949,2048,0,S_ɑ
1777452158.727956,2259,0,S_ɑ
1777452158.7379,2291,0,S_ɑ
1777452158.7388642,1998,0,S_ɑ
1777452158.740372,1781,0,S_ɑ
1777452158.7413409,1905,0,S_ɑ
1777452158.7473018,2074,0,S_ɑ
1777452158.749461,2262,0,S_ɑ
1777452158.751143,2169,0,S_ɑ
1777452158.754453,1909,0,S_ɑ
1777452158.758636,1705,0,S_ɑ
1777452158.7590709,1893,0,S_ɑ
1777452158.762882,2287,0,S_ɑ
1777452158.764236,2164,0,S_ɑ
1777452158.766944,2055,0,S_ɑ
1777452158.7758021,1863,0,S_ɑ
1777452158.775987,1905,0,S_ɑ
1777452158.7765892,1974,0,S_ɑ
1777452158.7800362,2246,0,S_ɑ
1777452158.78253,2177,0,S_ɑ
1777452158.786093,2006,0,S_ɑ
1777452158.788429,1881,0,S_ɑ
1777452158.7918699,1794,0,S_ɑ
1777452158.795176,2228,0,S_ɑ
1777452158.796937,2189,0,S_ɑ
1777452158.7999418,2081,0,S_ɑ
1777452158.8029492,1883,0,S_ɑ
1777452158.805974,1809,0,S_ɑ
1777452158.8089721,1937,0,S_ɑ
1777452158.815778,2122,0,S_ɑ
1777452158.8165572,2137,0,S_ɑ
1777452158.819384,2166,0,S_ɑ
1777452158.822016,1818,0,S_ɑ
1777452158.824212,1681,0,S_ɑ
1777452158.827792,2202,0,S_ɑ
1777452158.831587,2187,0,S_ɑ
1777452158.834975,2180,0,S_ɑ
1777452158.836492,1976,0,S_ɑ
1777452158.83916,1891,0,S_ɑ
1777452158.842121,2053,0,S_ɑ
1777452158.849728,2232,0,S_ɑ
1777452158.850632,2036,0,S_ɑ
1777452158.852971,2052,0,S_ɑ
1777452158.855872,1810,0,S_ɑ
1777452158.857435,1937,0,S_ɑ
1777452158.861084,2058,0,S_ɑ
1777452158.864747,2124,0,S_ɑ
1777452158.868227,2130,0,S_ɑ
1777452158.869581,2018,0,S_ɑ
1777452158.872158,1793,0,S_ɑ
1777452158.8750012,1981,0,S_ɑ
1777452158.8779469,2170,0,S_ɑ
1777452158.88094,2314,0,S_ɑ
1777452158.889224,2161,0,S_ɑ
1777452158.8898969,1756,0,S_ɑ
1777452158.890683,1757,0,S_ɑ
1777452158.8931122,2079,0,S_ɑ
1777452158.8964171,2226,0,S_ɑ
1777452158.90193,2142,0,S_ɑ
1777452158.9055371,1951,0,S_ɑ
1777452158.9060218,1834,0,S_ɑ
1777452158.909562,1823,0,S_ɑ
1777452158.910951,2194,0,S_ɑ
1777452158.91384,2194,0,S_ɑ
1777452158.922243,2073,0,S_ɑ
1777452158.923462,1869,0,S_ɑ
1777452158.9241862,1823,0,S_ɑ
1777452158.9271019,2047,0,S_ɑ
1777452158.9300969,2196,0,S_ɑ
1777452158.932199,2159,0,S_ɑ
1777452158.938622,2003,0,S_ɑ
1777452158.9389682,1877,0,S_ɑ
1777452158.942312,1761,0,S_ɑ
1777452158.9438562,2209,0,S_ɑ
1777452158.9469,2212,0,S_ɑ
1777452158.949939,2102,0,S_ɑ
1777452158.952893,1935,0,S_ɑ
1777452158.955845,1754,0,S_ɑ
1777452158.963949,2043,0,S_ɑ
1777452158.9654558,2221,0,S_ɑ
1777452158.970939,2227,0,S_ɑ
1777452158.9718301,2067,0,S_ɑ
1777452158.9726698,1826,0,S_ɑ
1777452158.9751732,1851,0,S_ɑ
1777452158.9780438,2232,0,S_ɑ
1777452158.9822478,2222,0,S_ɑ
1777452158.985899,2047,0,S_ɑ
1777452158.9860768,1951,0,S_ɑ
1777452158.988825,1757,0,S_ɑ
1777452158.991932,1955,0,S_ɑ
1777452158.999878,2150,0,S_ɑ
1777452159.000863,2287,0,S_ɑ
1777452159.0033438,2012,0,S_ɑ
1777452159.00401,1828,0,S_ɑ
1777452159.008329,1809,0,S_ɑ
1777452159.012119,2134,0,S_ɑ
1777452159.016073,2315,0,S_ɑ
1777452159.016501,2226,0,S_ɑ
1777452159.01965,1895,0,S_ɑ
1777452159.022292,1741,0,S_ɑ
1777452159.02494,1895,0,S_ɑ
1777452159.027806,2138,0,S_ɑ
1777452159.030855,2223,0,S_ɑ
1777452159.0340638,2028,0,S_ɑ
1777452159.043895,1844,0,S_ɑ
1777452159.044231,1787,0,S_ɑ
1777452159.044508,2095,0,S_ɑ
1777452159.056878,2284,0,S_ɑ
1777452159.059284,2240,0,S_ɑ
1777452159.0603561,1984,0,S_ɑ
1777452159.060443,1729,0,S_ɑ
1777452159.0606122,1922,0,S_ɑ
1777452159.060833,2108,0,S_ɑ
1777452159.063818,2145,0,S_ɑ
1777452159.066869,2093,0,S_ɑ
1777452159.0810418,1885,0,S_ɑ
1777452159.0832782,1815,0,S_ɑ
1777452159.083366,2055,0,S_ɑ
1777452159.0834198,2222,0,S_ɑ
1777452159.0834692,2183,0,S_ɑ
1777452159.092124,2032,0,S_ɑ
1777452159.092554,1846,0,S_ɑ
1777452159.0926468,1840,0,S_ɑ
1777452159.097467,2141,0,S_ɑ
1777452159.0975308,2203,0,S_ɑ
1777452159.100259,2136,0,S_ɑ
1777452159.102983,2002,0,S_ɑ
1777452159.1058009,1701,0,S_ɑ
1777452159.1088011,1957,0,S_ɑ
1777452159.1194298,2264,0,S_ɑ
1777452159.12015,2155,0,S_ɑ
1777452159.1244879,2030,0,S_ɑ
1777452159.125761,1780,0,S_ɑ
1777452159.1260319,1822,0,S_ɑ
1777452159.127628,2148,0,S_ɑ
1777452159.134538,2240,0,S_ɑ
1777452159.134897,2117,0,S_ɑ
1777452159.138272,1949,0,S_ɑ
1777452159.1387992,1843,0,S_ɑ
1777452159.141802,1950,0,S_ɑ
1777452159.1513011,2190,0,S_ɑ
1777452159.152087,2167,0,S_ɑ
1777452159.152739,2028,0,S_ɑ
1777452159.1587,1837,0,S_ɑ
1777452159.159437,1849,0,S_ɑ
1777452159.160398,2109,0,S_ɑ
1777452159.1640809,2319,0,S_ɑ
1777452159.167753,2188,0,S_ɑ
1777452159.171224,1930,0,S_ɑ
1777452159.171797,1757,0,S_ɑ
1777452159.1748102,1982,0,S_ɑ
1777452159.1777952,2168,0,S_ɑ
1777452159.180801,2211,0,S_ɑ
1777452159.183798,2061,0,S_ɑ
1777452159.193077,1883,0,S_ɑ
1777452159.193773,1816,0,S_ɑ
1777452159.196159,2010,0,S_ɑ
1777452159.196448,2266,0,S_ɑ
1777452159.2001421,2190,0,S_ɑ
1777452159.202419,1996,0,S_ɑ
1777452159.205224,1803,0,S_ɑ
1777452159.208948,1931,0,S_ɑ
1777452159.2122948,2207,0,S_ɑ
1777452159.213824,2221,0,S_ɑ
1777452159.216811,2034,0,S_ɑ
1777452159.225903,1865,0,S_ɑ
1777452159.2267299,1829,0,S_ɑ
1777452159.229195,2078,0,S_ɑ
1777452159.229669,2201,0,S_ɑ
1777452159.232662,2126,0,S_ɑ
1777452159.2350411,2011,0,S_ɑ
1777452159.2416818,1771,0,S_ɑ
1777452159.2419488,1861,0,S_ɑ
1777452159.2454422,2182,0,S_ɑ
1777452159.2468631,2302,0,S_ɑ
1777452159.2498071,2141,0,S_ɑ
1777452159.252813,1913,0,S_ɑ
1777452159.255806,1733,0,S_ɑ
1777452159.2588422,1966,0,S_ɑ
1777452159.265683,2237,0,S_ɑ
1777452159.266486,2215,0,S_ɑ
1777452159.269639,2055,0,S_ɑ
1777452159.273064,1827,0,S_ɑ
1777452159.275254,1862,0,S_ɑ
1777452159.2814898,2047,0,S_ɑ
1777452159.2818491,2229,0,S_ɑ
1777452159.285244,2137,0,S_ɑ
1777452159.2859101,2028,0,S_ɑ
1777452159.288795,1719,0,S_ɑ
1777452159.297993,1915,0,S_ɑ
1777452159.2987788,2218,0,S_ɑ
1777452159.3000598,2148,0,S_ɑ
1777452159.3017569,2092,0,S_ɑ
1777452159.304569,1933,0,S_ɑ
1777452159.309886,1787,0,S_ɑ
1777452159.3138099,2102,0,S_ɑ
1777452159.313951,2268,0,S_ɑ
1777452159.317517,2177,0,S_ɑ
1777452159.318841,2023,0,S_ɑ
1777452159.3218071,1761,0,S_ɑ
1777452159.3248022,1928,0,S_ɑ
1777452159.327811,2222,0,S_ɑ
1777452159.330805,2210,0,S_ɑ
1777452159.338593,2008,0,S_ɑ
1777452159.3401291,1950,0,S_ɑ
1777452159.342857,1638,0,S_ɑ
1777452159.346228,2051,0,S_ɑ
1777452159.3484008,2158,0,S_ɑ
1777452159.352135,2139,0,S_ɑ
1777452159.352524,2037,0,S_ɑ
1777452159.356289,2004,0,S_ɑ
1777452159.359808,1858,0,S_ɑ
1777452159.3611531,2066,0,S_ɑ
1777452159.36382,2315,0,S_ɑ
1777452159.3732412,2108,0,S_ɑ
1777452159.373579,1872,0,S_ɑ
1777452159.374336,1800,0,S_ɑ
1777452159.376746,1891,0,S_ɑ
1777452159.380013,2252,0,S_ɑ
1777452159.382348,2164,0,S_ɑ
1777452159.389698,2005,0,S_ɑ
1777452159.393402,1917,0,S_ɑ
1777452159.3934982,1877,0,S_ɑ
1777452159.393701,2196,0,S_ɑ
1777452159.396713,2138,0,S_ɑ
1777452159.400474,2113,0,S_ɑ
1777452159.4030871,1884,0,S_ɑ
1777452159.4057028,1812,0,S_ɑ
1777452159.413454,1931,0,S_ɑ
1777452159.414693,2158,0,S_ɑ
1777452159.4155068,2309,0,S_ɑ
1777452159.4177291,2131,0,S_ɑ
1777452159.4222221,1844,0,S_ɑ
1777452159.426025,1773,0,S_ɑ
1777452159.429933,2162,0,S_ɑ
1777452159.430209,2149,0,S_ɑ
1777452159.4334662,2291,0,S_ɑ
1777452159.4361,2017,0,S_ɑ
1777452159.438826,1803,0,S_ɑ
1777452159.4459782,1914,0,S_ɑ
1777452159.447296,2203,0,S_ɑ
1777452159.448051,2316,0,S_ɑ
1777452159.452599,2183,0,S_ɑ
1777452159.454283,1942,0,S_ɑ
1777452159.4613419,1802,0,S_ɑ
1777452159.461515,2080,0,S_ɑ
1777452159.4647539,2257,0,S_ɑ
1777452159.4661639,2215,0,S_ɑ
1777452159.469263,2025,0,S_ɑ
1777452159.471937,1836,0,S_ɑ
1777452159.4747121,1925,0,S_ɑ
1777452159.477694,2235,0,S_ɑ
1777452159.48612,2300,0,S_ɑ
1777452159.48693,2022,0,S_ɑ
1777452159.488117,1908,0,S_ɑ
1777452159.490023,1789,0,S_ɑ
1777452159.4936588,1985,0,S_ɑ
1777452159.502041,2320,0,S_ɑ
1777452159.502771,2325,0,S_ɑ
1777452159.505258,2043,0,S_ɑ
1777452159.506186,1838,0,S_ɑ
1777452159.507691,1847,0,S_ɑ
1777452159.5106869,2159,0,S_ɑ
1777452159.520166,2182,0,S_ɑ
1777452159.5208719,2078,0,S_ɑ
1777452159.5229251,2031,0,S_ɑ
1777452159.523359,1783,0,S_ɑ
1777452159.5267751,2084,0,S_ɑ
1777452159.5288792,2300,0,S_ɑ
1777452159.531851,2141,0,S_ɑ
1777452159.53904,2049,0,S_ɑ
1777452159.539111,1832,0,S_ɑ
1777452159.540693,2056,0,S_ɑ
1777452159.544497,2087,0,S_ɑ
1777452159.5473258,2175,0,S_ɑ
1777452159.5509481,2022,0,S_ɑ
1777452159.5526972,1940,0,S_ɑ
1777452159.569479,1876,0,S_ɑ
1777452159.601557,1936,0,S_ɑ
1777452159.6074371,2216,0,S_ɑ
1777452159.608261,2278,0,S_ɑ
1777452159.608489,2000,0,S_ɑ
1777452159.608904,1809,0,S_ɑ
1777452159.609192,1887,0,S_ɑ
1777452159.611629,2090,0,S_ɑ
1777452159.6125,2001,0,S_ɑ
1777452159.612799,2260,0,S_ɑ
1777452159.612896,1999,0,S_ɑ
1777452159.612962,1797,0,S_ɑ
1777452159.613048,1963,0,S_ɑ
1777452159.613112,2013,0,S_ɑ
1777452159.613214,2429,0,S_ɑ
1777452159.6132832,2066,0,S_ɑ
1777452159.613368,1849,0,S_ɑ
1777452159.613431,1833,0,S_ɑ
1777452159.613506,2088,0,S_ɑ
1777452159.6135669,2213,0,S_ɑ
1777452159.616224,1947,0,S_ɑ
1777452159.618836,2044,0,S_ɑ
1777452159.621691,1926,0,S_ɑ
1777452159.624706,1850,0,S_ɑ
1777452159.633884,2049,0,S_ɑ
1777452159.6368902,2111,0,S_ɑ
1777452159.6373188,2210,0,S_ɑ
1777452159.6393778,1868,0,S_ɑ
1777452159.639986,1880,0,S_ɑ
1777452159.643619,1938,0,S_ɑ
1777452159.6459048,2166,0,S_ɑ
1777452159.649635,2172,0,S_ɑ
1777452159.65295,1861,0,S_ɑ
1777452159.6547022,2186,0,S_ɑ
1777452159.657702,1912,0,S_ɑ
1777452159.664924,2109,0,S_ɑ
1777452159.665527,2151,0,S_ɑ
1777452159.668929,2279,0,S_ɑ
1777452159.671938,1934,0,S_ɑ
1777452159.673973,1756,0,S_ɑ
1777452159.676967,1959,0,S_ɑ
1777452159.6804092,2180,0,S_ɑ
1777452159.683666,2202,0,S_ɑ
1777452159.684999,2084,0,S_ɑ
1777452159.687716,1758,0,S_ɑ
1777452159.690679,1866,0,S_ɑ
1777452159.693726,2193,0,S_ɑ
1777452159.6966772,2085,0,S_ɑ
1777452159.7042408,2340,0,S_ɑ
1777452159.704997,2067,0,S_ɑ
1777452159.707811,1666,0,S_ɑ
1777452159.711967,1916,0,S_ɑ
1777452159.712651,2366,0,S_ɑ
1777452159.7163122,2269,0,S_ɑ
1777452159.719784,2079,0,S_ɑ
1777452159.723095,1983,0,S_ɑ
1777452159.723712,1884,0,S_ɑ
1777452159.7267032,2060,0,S_ɑ
1777452159.7353668,2292,0,S_ɑ
1777452159.735936,2082,0,S_ɑ
1777452159.7361012,1922,0,S_ɑ
1777452159.73882,1770,0,S_ɑ
1777452159.742155,2037,0,S_ɑ
1777452159.7467709,2299,0,S_ɑ
1777452159.750299,2051,0,S_ɑ
1777452159.750786,2378,0,S_ɑ
1777452159.7543218,1720,0,S_ɑ
1777452159.756901,1985,0,S_ɑ
1777452159.759757,2093,0,S_ɑ
1777452159.762719,2200,0,S_ɑ
1777452159.765676,2323,0,S_ɑ
1777452159.774077,1942,0,S_ɑ
1777452159.774243,1872,0,S_ɑ
1777452159.7748458,1912,0,S_ɑ
1777452159.777733,2223,0,S_ɑ
1777452159.781557,2219,0,S_ɑ
1777452159.78575,2067,0,S_ɑ
1777452159.789356,2067,0,S_ɑ
1777452159.789802,1688,0,S_ɑ
1777452159.792803,1729,0,S_ɑ
1777452159.795712,2887,0,S_ɑ
1777452159.7988439,2224,0,S_ɑ
1777452159.8043919,1926,0,S_ɑ
1777452159.8050811,1764,0,S_ɑ
1777452159.8085032,1777,0,S_ɑ
1777452159.81136,2252,0,S_ɑ
1777452159.8139231,2225,0,S_ɑ
1777452159.819712,2001,0,S_ɑ
1777452159.819904,1814,0,S_ɑ
1777452159.823115,1640,0,S_ɑ
1777452159.82569,1930,0,S_ɑ
1777452159.8286679,2133,0,S_ɑ
1777452159.831674,2189,0,S_ɑ
1777452159.834697,2087,0,S_ɑ
1777452159.84254,1910,0,S_ɑ
1777452159.843256,1746,0,S_ɑ
1777452159.843873,1933,0,S_ɑ
1777452159.848274,2274,0,S_ɑ
1777452159.850213,1961,0,S_ɑ
1777452159.853573,1979,0,S_ɑ
1777452159.857158,1741,0,S_ɑ
1777452159.859801,1948,0,S_ɑ
1777452159.8616982,2137,0,S_ɑ
1777452159.8646982,2079,0,S_ɑ
1777452159.871357,2194,0,S_ɑ
1777452159.87199,1803,0,S_ɑ
1777452159.875552,1703,0,S_ɑ
1777452159.878929,2154,0,S_ɑ
1777452159.883557,2228,0,S_ɑ
1777452159.887101,2124,0,S_ɑ
1777452159.890605,1944,0,S_ɑ
1777452159.890666,1803,0,S_ɑ
1777452159.89199,1780,0,S_ɑ
1777452159.894656,2299,0,S_ɑ
1777452159.8977091,2226,0,S_ɑ
1777452159.900676,1891,0,S_ɑ
1777452159.9036741,2118,0,S_ɑ
1777452159.9112709,1752,0,S_ɑ
1777452159.9150138,2001,0,S_ɑ
1777452159.915581,2349,0,S_ɑ
1777452159.917513,2171,0,S_ɑ
1777452159.919092,1925,0,S_ɑ
1777452159.924067,1811,0,S_ɑ
1777452159.928052,1885,0,S_ɑ
1777452159.928374,2132,0,S_ɑ
1777452159.931349,2189,0,S_ɑ
1777452159.933961,2054,0,S_ɑ
1777452159.936707,1808,0,S_ɑ
1777452159.944315,1772,0,S_ɑ
1777452159.945011,1982,0,S_ɑ
1777452159.947893,2163,0,S_ɑ
1777452159.953716,1979,0,S_ɑ
1777452159.956523,2197,0,S_ɑ
1777452159.956804,1762,0,S_ɑ
1777452159.9606771,1787,0,S_ɑ
1777452159.9609442,2154,0,S_ɑ
1777452159.964242,2174,0,S_ɑ
1777452159.9668758,1993,0,S_ɑ
1777452159.969682,2206,0,S_ɑ
1777452159.9726899,1794,0,S_ɑ
1777452159.97568,1954,0,S_ɑ
1777452159.984891,2108,0,S_ɑ
1777452159.988061,2307,0,S_ɑ
1777452159.98835,2050,0,S_ɑ
1777452159.988574,1779,0,S_ɑ
1777452159.9908962,1976,0,S_ɑ
1777452159.993957,2136,0,S_ɑ
1777452160.000227,2362,0,S_ɑ
1777452160.000553,2110,0,S_ɑ
1777452160.003875,1907,0,S_ɑ
1777452160.0056698,1776,0,S_ɑ
1777452160.008685,1906,0,S_ɑ
1777452160.01629,2211,0,S_ɑ
1777452160.016979,2236,0,S_ɑ
1777452160.020523,2046,0,S_ɑ
1777452160.022593,1862,0,S_ɑ
1777452160.024771,1728,0,S_ɑ
1777452160.0289311,2023,0,S_ɑ
1777452160.0327868,2188,0,S_ɑ
1777452160.033477,2098,0,S_ɑ
1777452160.035875,2051,0,S_ɑ
1777452160.038684,1783,0,S_ɑ
1777452160.041675,1786,0,S_ɑ
1777452160.044697,2194,0,S_ɑ
1777452160.047678,2209,0,S_ɑ
1777452160.056291,2091,0,S_ɑ
1777452160.057934,1943,0,S_ɑ
1777452160.058073,1877,0,S_ɑ
1777452160.060627,1995,0,S_ɑ
1777452160.06422,2185,0,S_ɑ
1777452160.065987,2201,0,S_ɑ
1777452160.069231,1985,0,S_ɑ
1777452160.0733309,1808,0,S_ɑ
1777452160.077406,1858,0,S_ɑ
1777452160.077673,2152,0,S_ɑ
1777452160.080677,2266,0,S_ɑ
1777452160.0886521,2115,0,S_ɑ
1777452160.0922492,1939,0,S_ɑ
1777452160.0925162,1800,0,S_ɑ
1777452160.092814,1992,0,S_ɑ
1777452160.09667,2224,0,S_ɑ
1777452160.0988328,2193,0,S_ɑ
1777452160.104527,2054,0,S_ɑ
1777452160.1047418,1747,0,S_ɑ
1777452160.108048,1929,0,S_ɑ
1777452160.110972,2172,0,S_ɑ
1777452160.113642,2197,0,S_ɑ
1777452160.1173592,2096,0,S_ɑ
1777452160.12044,1949,0,S_ɑ
1777452160.13087,1758,0,S_ɑ
1777452160.132189,1944,0,S_ɑ
1777452160.1342158,2160,0,S_ɑ
1777452160.134469,2337,0,S_ɑ
1777452160.13487,2088,0,S_ɑ
1777452160.138103,1836,0,S_ɑ
1777452160.143105,1840,0,S_ɑ
1777452160.146925,2080,0,S_ɑ
1777452160.147286,2266,0,S_ɑ
1777452160.150665,2240,0,S_ɑ
1777452160.152552,1919,0,S_ɑ
1777452160.1555462,1715,0,S_ɑ
1777452160.164253,1904,0,S_ɑ
1777452160.1650088,2147,0,S_ɑ
1777452160.166968,2312,0,S_ɑ
1777452160.169914,2117,0,S_ɑ
1777452160.172318,1810,0,S_ɑ
1777452160.1754618,2040,0,S_ɑ
1777452160.179518,2077,0,S_ɑ
1777452160.17978,2281,0,S_ɑ
1777452160.183302,2197,0,S_ɑ
1777452160.18593,2069,0,S_ɑ
1777452160.188564,1894,0,S_ɑ
1777452160.1915479,1918,0,S_ɑ
1777452160.19544,2154,0,S_ɑ
1777452160.203458,2233,0,S_ɑ
1777452160.204304,2158,0,S_ɑ
1777452160.205642,1945,0,S_ɑ
1777452160.2082,1848,0,S_ɑ
1777452160.211494,2029,0,S_ɑ
1777452160.213174,2201,0,S_ɑ
1777452160.216971,2319,0,S_ɑ
1777452160.220927,2298,0,S_ɑ
1777452160.2237298,1864,0,S_ɑ
1777452160.225116,1828,0,S_ɑ
1777452160.2278452,2237,0,S_ɑ
1777452160.236613,2399,0,S_ɑ
1777452160.237399,2146,0,S_ɑ
1777452160.238086,1949,0,S_ɑ
1777452160.241127,1838,0,S_ɑ
1777452160.243992,2073,0,S_ɑ
1777452160.246377,2168,0,S_ɑ
1777452160.253228,2315,0,S_ɑ
1777452160.2534819,2117,0,S_ɑ
1777452160.256146,1884,0,S_ɑ
1777452160.2575731,1917,0,S_ɑ
1777452160.2605639,2103,0,S_ɑ
1777452160.263562,2248,0,S_ɑ
1777452160.2665842,2127,0,S_ɑ
1777452160.269591,2192,0,S_ɑ
1777452160.277072,1856,0,S_ɑ
1777452160.278292,1906,0,S_ɑ
1777452160.279126,2302,0,S_ɑ
1777452160.284292,2370,0,S_ɑ
1777452160.285552,2178,0,S_ɑ
1777452160.289154,1964,0,S_ɑ
1777452160.292782,1871,0,S_ɑ
1777452160.296314,2169,0,S_ɑ
1777452160.296553,2223,0,S_ɑ
1777452160.299585,2342,0,S_ɑ
1777452160.3078809,2229,0,S_ɑ
1777452160.308543,1982,0,S_ɑ
1777452160.3097138,1993,0,S_ɑ
1777452160.312104,2203,0,S_ɑ
1777452160.315507,2467,0,S_ɑ
1777452160.319764,2046,0,S_ɑ
1777452160.323303,2018,0,S_ɑ
1777452160.323691,1821,0,S_ɑ
1777452160.327392,1930,0,S_ɑ
1777452160.329973,2304,0,S_ɑ
1777452160.332588,2208,0,S_ɑ
1777452160.33555,2128,0,S_ɑ
1777452160.3385532,1930,0,S_ɑ
1777452160.346317,1980,0,S_ɑ
1777452160.346883,2265,0,S_ɑ
1777452160.3496451,2361,0,S_ɑ
1777452160.3525262,2257,0,S_ɑ
1777452160.354027,1803,0,S_ɑ
1777452160.35758,1838,0,S_ɑ
1777452160.3613381,2180,0,S_ɑ
1777452160.363949,2245,0,S_ɑ
1777452160.36557,2266,0,S_ɑ
1777452160.3685849,2038,0,S_ɑ
1777452160.377154,1965,0,S_ɑ
1777452160.3785212,1927,0,S_ɑ
1777452160.3799691,2120,0,S_ɑ
1777452160.381906,2392,0,S_ɑ
1777452160.3844118,2093,0,S_ɑ
1777452160.3880582,1977,0,S_ɑ
1777452160.390252,1851,0,S_ɑ
1777452160.394208,1996,0,S_ɑ
1777452160.397113,2238,0,S_ɑ
1777452160.3985548,2249,0,S_ɑ
1777452160.401547,2135,0,S_ɑ
1777452160.404554,1952,0,S_ɑ
1777452160.40754,1792,0,S_ɑ
1777452160.41055,2132,0,S_ɑ
1777452160.4227252,2211,0,S_ɑ
1777452160.4233909,2197,0,S_ɑ
1777452160.425527,1927,0,S_ɑ
1777452160.426888,1808,0,S_ɑ
1777452160.427233,1904,0,S_ɑ
1777452160.4294531,2216,0,S_ɑ
1777452160.436361,2198,0,S_ɑ
1777452160.436747,2051,0,S_ɑ
1777452160.440258,1829,0,S_ɑ
1777452160.4405382,1837,0,S_ɑ
1777452160.443548,2074,0,S_ɑ
1777452160.451925,2243,0,S_ɑ
1777452160.452647,2193,0,S_ɑ
1777452160.452877,2043,0,S_ɑ
1777452160.456334,1824,0,S_ɑ
1777452160.45934,2023,0,S_ɑ
1777452160.4620621,2234,0,S_ɑ
1777452160.4681149,2236,0,S_ɑ
1777452160.46835,2107,0,S_ɑ
1777452160.4718158,1871,0,S_ɑ
1777452160.473553,1802,0,S_ɑ
1777452160.476554,2065,0,S_ɑ
1777452160.4795399,2171,0,S_ɑ
1777452160.4825711,2262,0,S_ɑ
1777452160.49169,2027,0,S_ɑ
1777452160.49365,1864,0,S_ɑ
1777452160.496415,1904,0,S_ɑ
1777452160.499883,2199,0,S_ɑ
1777452160.5000901,2216,0,S_ɑ
1777452160.500913,2253,0,S_ɑ
1777452160.505981,1905,0,S_ɑ
1777452160.510033,1734,0,S_ɑ
1777452160.5105212,1921,0,S_ɑ
1777452160.513815,2223,0,S_ɑ
1777452160.515549,2329,0,S_ɑ
1777452160.518543,2172,0,S_ɑ
1777452160.530606,1863,0,S_ɑ
1777452160.5332742,1847,0,S_ɑ
1777452160.534127,2170,0,S_ɑ
1777452160.535531,2166,0,S_ɑ
1777452160.535875,2182,0,S_ɑ
1777452160.5377102,2006,0,S_ɑ
1777452160.5446131,1798,0,S_ɑ
1777452160.54528,1872,0,S_ɑ
1777452160.545968,2230,0,S_ɑ
1777452160.548606,2273,0,S_ɑ
1777452160.551574,2088,0,S_ɑ
1777452160.5546298,1923,0,S_ɑ
1777452160.557641,1884,0,S_ɑ
1777452160.560684,2157,0,S_ɑ
1777452160.564152,2282,0,S_ɑ
1777452160.573199,2168,0,S_ɑ
1777452160.575659,1940,0,S_ɑ
1777452160.5784352,1839,0,S_ɑ
1777452160.579278,1863,0,S_ɑ
1777452160.580807,2264,0,S_ɑ
1777452160.5825338,2272,0,S_ɑ
1777452160.585105,2148,0,S_ɑ
1777452160.5887291,2028,0,S_ɑ
1777452160.5922182,1710,0,S_ɑ
1777452160.5935638,2056,0,S_ɑ
1777452160.596564,2246,0,S_ɑ
1777452160.604481,2182,0,S_ɑ
1777452160.605126,2065,0,S_ɑ
1777452160.606267,1780,0,S_ɑ
1777452160.61109,1834,0,S_ɑ
1777452160.612395,2252,0,S_ɑ
1777452160.616354,2348,0,S_ɑ
1777452160.619967,2161,0,S_ɑ
1777452160.6205719,1911,0,S_ɑ
1777452160.6238499,1774,0,S_ɑ
1777452160.626554,2093,0,S_ɑ
1777452160.629523,2244,0,S_ɑ
1777452160.63257,2315,0,S_ɑ
1777452160.635539,2134,0,S_ɑ
1777452160.64424,1735,0,S_ɑ
1777452160.6449249,1857,0,S_ɑ
1777452160.646847,2189,0,S_ɑ
1777452160.64929,2389,0,S_ɑ
1777452160.650881,2193,0,S_ɑ
1777452160.654994,1955,0,S_ɑ
1777452160.658666,1763,0,S_ɑ
1777452160.661257,1939,0,S_ɑ
1777452160.662594,2242,0,S_ɑ
1777452160.6655538,2229,0,S_ɑ
1777452160.673219,2015,0,S_ɑ
1777452160.674415,1976,0,S_ɑ
1777452160.675027,1875,0,S_ɑ
1777452160.68022,2181,0,S_ɑ
1777452160.681932,2341,0,S_ɑ
1777452160.685534,2211,0,S_ɑ
1777452160.689255,2021,0,S_ɑ
1777452160.689567,1798,0,S_ɑ
1777452160.6931798,1926,0,S_ɑ
1777452160.695758,2283,0,S_ɑ
1777452160.698553,2246,0,S_ɑ
1777452160.701534,2081,0,S_ɑ
1777452160.704525,1888,0,S_ɑ
1777452160.711914,1700,0,S_ɑ
1777452160.712576,2038,0,S_ɑ
1777452160.7157278,2160,0,S_ɑ
1777452160.718498,2218,0,S_ɑ
1777452160.720055,2071,0,S_ɑ
1777452160.723519,1836,0,S_ɑ
1777452160.727266,1902,0,S_ɑ
1777452160.7304802,2277,0,S_ɑ
1777452160.7317839,2246,0,S_ɑ
1777452160.734538,2275,0,S_ɑ
1777452160.7416801,1964,0,S_ɑ
1777452160.742374,1742,0,S_ɑ
1777452160.744566,2027,0,S_ɑ
1777452160.746933,2310,0,S_ɑ
1777452160.751232,2087,0,S_ɑ
1777452160.7542899,2008,0,S_ɑ
1777452160.756984,1690,0,S_ɑ
1777452160.758552,1880,0,S_ɑ
1777452160.761545,2246,0,S_ɑ
1777452160.764554,2348,0,S_ɑ
1777452160.767529,2143,0,S_ɑ
1777452160.774097,1915,0,S_ɑ
1777452160.7742,1869,0,S_ɑ
1777452160.777341,2031,0,S_ɑ
1777452160.7807832,2272,0,S_ɑ
1777452160.784157,2249,0,S_ɑ
1777452160.787383,2072,0,S_ɑ
1777452160.790258,1840,0,S_ɑ
1777452160.791589,1814,0,S_ɑ
1777452160.7945652,2081,0,S_ɑ
1777452160.799993,2227,0,S_ɑ
1777452160.801425,2160,0,S_ɑ
1777452160.803815,1946,0,S_ɑ
1777452160.807421,1719,0,S_ɑ
1777452160.810412,1925,0,S_ɑ
1777452160.813557,2154,0,S_ɑ
1777452160.8163478,2259,0,S_ɑ
1777452160.818911,2081,0,S_ɑ
1777452160.8216162,1882,0,S_ɑ
1777452160.824567,1871,0,S_ɑ
1777452160.8275359,2135,0,S_ɑ
1777452160.833738,2305,0,S_ɑ
1777452160.834686,2220,0,S_ɑ
1777452160.836937,2001,0,S_ɑ
1777452160.8399382,1793,0,S_ɑ
1777452160.843881,1896,0,S_ɑ
1777452160.8469372,2081,0,S_ɑ
1777452160.84924,2231,0,S_ɑ
1777452160.851809,2074,0,S_ɑ
1777452160.854568,1895,0,S_ɑ
1777452160.858922,1816,0,S_ɑ
1777452160.861821,2029,0,S_ɑ
1777452160.8640451,2212,0,S_ɑ
1777452160.867854,2247,0,S_ɑ
1777452160.8728929,2006,0,S_ɑ
1777452160.873166,1798,0,S_ɑ
1777452160.875773,1900,0,S_ɑ
1777452160.878554,2180,0,S_ɑ
1777452160.881556,2192,0,S_ɑ
1777452160.8877819,2103,0,S_ɑ
1777452160.8895,1944,0,S_ɑ
1777452160.891231,1877,0,S_ɑ
1777452160.8941069,1997,0,S_ɑ
1777452160.8970969,2235,0,S_ɑ
1777452160.9000142,2304,0,S_ɑ
1777452160.903181,2034,0,S_ɑ
1777452160.9057438,1770,0,S_ɑ
1777452160.910947,1849,0,S_ɑ
1777452160.911826,2125,0,S_ɑ
1777452160.915849,2258,0,S_ɑ
1777452160.918258,2106,0,S_ɑ
1777452160.922833,1942,0,S_ɑ
1777452160.925045,1807,0,S_ɑ
1777452160.926563,1977,0,S_ɑ
1777452160.9295318,2213,0,S_ɑ
1777452160.932554,2204,0,S_ɑ
1777452160.9355352,2093,0,S_ɑ
1777452160.9403331,1931,0,S_ɑ
1777452160.943241,1824,0,S_ɑ
1777452160.9451032,2063,0,S_ɑ
1777452160.952151,2216,0,S_ɑ
1777452160.9539871,2130,0,S_ɑ
1777452160.954596,2044,0,S_ɑ
1777452160.95718,1701,0,S_ɑ
1777452160.9647958,1945,0,S_ɑ
1777452160.965342,2191,0,S_ɑ
1777452160.967277,2301,0,S_ɑ
1777452160.9699461,2033,0,S_ɑ
1777452160.971703,1927,0,S_ɑ
1777452160.976917,1895,0,S_ɑ
1777452160.9790971,2087,0,S_ɑ
1777452160.9805398,2254,0,S_ɑ
1777452160.9835432,2171,0,S_ɑ
1777452160.9865239,2005,0,S_ɑ
1777452160.9895308,1818,0,S_ɑ
1777452160.9955258,1854,0,S_ɑ
1777452160.997052,2208,0,S_ɑ
1777452160.9992409,2294,0,S_ɑ
1777452161.001964,2160,0,S_ɑ
1777452161.005643,1821,0,S_ɑ
1777452161.008735,1770,0,S_ɑ
1777452161.0114079,2035,0,S_ɑ
1777452161.014117,2230,0,S_ɑ
1777452161.0215628,2233,0,S_ɑ
1777452161.024139,1997,0,S_ɑ
1777452161.024299,1783,0,S_ɑ
1777452161.026997,1950,0,S_ɑ
1777452161.030735,2213,0,S_ɑ
1777452161.033955,2184,0,S_ɑ
1777452161.034554,2156,0,S_ɑ
1777452161.037617,1934,0,S_ɑ
1777452161.04055,1767,0,S_ɑ
1777452161.04354,2032,0,S_ɑ
1777452161.046541,2243,0,S_ɑ
1777452161.052663,2210,0,S_ɑ
1777452161.0536268,2059,0,S_ɑ
1777452161.05582,1872,0,S_ɑ
1777452161.060216,1800,0,S_ɑ
1777452161.062382,2252,0,S_ɑ
1777452161.065451,2308,0,S_ɑ
1777452161.06792,2048,0,S_ɑ
1777452161.070625,1886,0,S_ɑ
1777452161.073565,1789,0,S_ɑ
1777452161.079345,1995,0,S_ɑ
1777452161.0801148,2177,0,S_ɑ
1777452161.084662,2228,0,S_ɑ
1777452161.086772,2079,0,S_ɑ
1777452161.0912771,1833,0,S_ɑ
1777452161.09167,1837,0,S_ɑ
1777452161.094939,2119,0,S_ɑ
1777452161.097557,2222,0,S_ɑ
1777452161.100533,2165,0,S_ɑ
1777452161.10354,1987,0,S_ɑ
1777452161.1116002,1793,0,S_ɑ
1777452161.1123462,1987,0,S_ɑ
1777452161.112967,2248,0,S_ɑ
1777452161.115865,2201,0,S_ɑ
1777452161.1205812,2058,0,S_ɑ
1777452161.122994,1924,0,S_ɑ
1777452161.126221,1855,0,S_ɑ
1777452161.12927,2014,0,S_ɑ
1777452161.13067,2266,0,S_ɑ
1777452161.133545,2181,0,S_ɑ
1777452161.140495,1959,0,S_ɑ
1777452161.1415591,1818,0,S_ɑ
1777452161.143754,1882,0,S_ɑ
1777452161.147004,2277,0,S_ɑ
1777452161.150597,2221,0,S_ɑ
1777452161.15378,2101,0,S_ɑ
1777452161.15616,1928,0,S_ɑ
1777452161.157544,1802,0,S_ɑ
1777452161.160539,1968,0,S_ɑ
1777452161.163541,2282,0,S_ɑ
1777452161.166534,2190,0,S_ɑ
1777452161.1760042,2031,0,S_ɑ
1777452161.176564,1840,0,S_ɑ
1777452161.178229,1829,0,S_ɑ
1777452161.178546,2265,0,S_ɑ
1777452161.182357,2229,0,S_ɑ
1777452161.185663,2117,0,S_ɑ
1777452161.188921,1968,0,S_ɑ
1777452161.191317,1798,0,S_ɑ
1777452161.193998,2024,0,S_ɑ
1777452161.1965399,2172,0,S_ɑ
1777452161.202602,2208,0,S_ɑ
1777452161.203275,2026,0,S_ɑ
1777452161.205822,1814,0,S_ɑ
1777452161.209902,1838,0,S_ɑ
1777452161.212875,2143,0,S_ɑ
1777452161.2160482,2241,0,S_ɑ
1777452161.218848,2156,0,S_ɑ
1777452161.220543,1991,0,S_ɑ
1777452161.223524,1787,0,S_ɑ
1777452161.226532,1977,0,S_ɑ
1777452161.22953,2190,0,S_ɑ
1777452161.236769,2257,0,S_ɑ
1777452161.237494,2122,0,S_ɑ
1777452161.2399879,1952,0,S_ɑ
1777452161.2426062,1852,0,S_ɑ
1777452161.2453382,2032,0,S_ɑ
1777452161.2503018,2242,0,S_ɑ
1777452161.250839,2150,0,S_ɑ
1777452161.253773,1994,0,S_ɑ
1777452161.256535,1753,0,S_ɑ
1777452161.265203,1933,0,S_ɑ
1777452161.265861,2131,0,S_ɑ
1777452161.268379,2219,0,S_ɑ
1777452161.270901,2147,0,S_ɑ
1777452161.272449,1939,0,S_ɑ
1777452161.2786088,1796,0,S_ɑ
1777452161.279041,2068,0,S_ɑ
1777452161.281835,2248,0,S_ɑ
1777452161.283536,2249,0,S_ɑ
1777452161.286539,2030,0,S_ɑ
1777452161.289523,1796,0,S_ɑ
1777452161.292526,1853,0,S_ɑ
1777452161.299728,2184,0,S_ɑ
1777452161.3008902,2227,0,S_ɑ
1777452161.3032992,2103,0,S_ɑ
1777452161.3063118,1857,0,S_ɑ
1777452161.308578,1778,0,S_ɑ
1777452161.313621,2007,0,S_ɑ
1777452161.313934,2266,0,S_ɑ
1777452161.316756,2225,0,S_ɑ
1777452161.3195531,2073,0,S_ɑ
1777452161.3225348,1916,0,S_ɑ
1777452161.3256588,1833,0,S_ɑ
