timestamp,ch1,ch2,label
1775033273.784321,183,0,9_S
1775033273.78441,1749,0,9_S
1775033273.7900429,1963,0,9_S
1775033273.796154,2080,0,9_S
1775033273.79635,2248,0,9_S
1775033273.796407,2020,0,9_S
1775033273.7994199,1777,0,9_S
1775033273.802654,1842,0,9_S
1775033273.8057332,2005,0,9_S
1775033273.821476,2143,0,9_S
1775033273.821792,2094,0,9_S
1775033273.821866,1909,0,9_S
1775033273.821928,1772,0,9_S
1775033273.8220859,1956,0,9_S
1775033273.828716,2082,0,9_S
1775033273.8311129,2210,0,9_S
1775033273.831201,2026,0,9_S
1775033273.8481338,1801,0,9_S
1775033273.84849,1889,0,9_S
1775033273.8489752,1974,0,9_S
1775033273.849118,2091,0,9_S
1775033273.849199,2045,0,9_S
1775033273.8492658,2028,0,9_S
1775033273.85134,1892,0,9_S
1775033273.854209,1928,0,9_S
1775033273.8578198,1944,0,9_S
1775033273.870027,2222,0,9_S
1775033273.875178,2097,0,9_S
1775033273.879197,1793,0,9_S
1775033273.87937,1751,0,9_S
1775033273.879444,2038,0,9_S
1775033273.879504,2101,0,9_S
1775033273.879553,2229,0,9_S
1775033273.8810182,1894,0,9_S
1775033273.897546,1812,0,9_S
1775033273.898151,1878,0,9_S
1775033273.898249,2007,0,9_S
1775033273.898304,2218,0,9_S
1775033273.8983538,2073,0,9_S
1775033273.8984058,1896,0,9_S
1775033273.9013069,1786,0,9_S
1775033273.904785,1999,0,9_S
1775033273.940358,2149,0,9_S
1775033273.9404511,2184,0,9_S
1775033273.940507,1993,0,9_S
1775033273.940639,1743,0,9_S
1775033273.940703,1865,0,9_S
1775033273.940757,2032,0,9_S
1775033273.9408078,2151,0,9_S
1775033273.940863,2019,0,9_S
1775033273.940914,1864,0,9_S
1775033273.9409652,1818,0,9_S
1775033273.941014,1983,0,9_S
1775033273.941107,2096,0,9_S
1775033273.943821,2175,0,9_S
1775033273.946528,1952,0,9_S
1775033273.9494112,1731,0,9_S
1775033273.9673789,1911,0,9_S
1775033273.967511,1986,0,9_S
1775033273.967573,2084,0,9_S
1775033273.967623,2153,0,9_S
1775033273.967672,2032,0,9_S
1775033273.9677608,1771,0,9_S
1775033273.970593,1900,0,9_S
1775033274.000336,2047,0,9_S
1775033274.000384,2229,0,9_S
1775033274.000601,2106,0,9_S
1775033274.000671,1797,0,9_S
1775033274.000725,1936,0,9_S
1775033274.000779,2023,0,9_S
1775033274.000834,2045,0,9_S
1775033274.000962,2122,0,9_S
1775033274.001049,1994,0,9_S
1775033274.001085,1781,0,9_S
1775033274.0039701,1885,0,9_S
1775033274.006685,2012,0,9_S
1775033274.009393,2227,0,9_S
1775033274.0124311,2027,0,9_S
1775033274.015276,1872,0,9_S
1775033274.0184891,1811,0,9_S
1775033274.0398421,2002,0,9_S
1775033274.040042,2120,0,9_S
1775033274.040084,2117,0,9_S
1775033274.04011,1916,0,9_S
1775033274.0409758,1782,0,9_S
1775033274.041068,1915,0,9_S
1775033274.041128,1982,0,9_S
1775033274.0584629,2192,0,9_S
1775033274.0588958,2135,0,9_S
1775033274.058987,1892,0,9_S
1775033274.0590641,1822,0,9_S
1775033274.059152,1915,0,9_S
1775033274.0591822,2101,0,9_S
1775033274.061781,2229,0,9_S
1775033274.063333,2039,0,9_S
1775033274.066293,1763,0,9_S
1775033274.0694258,1830,0,9_S
1775033274.072323,2034,0,9_S
1775033274.085859,2198,0,9_S
1775033274.088825,2089,0,9_S
1775033274.088864,1872,0,9_S
1775033274.0889459,1788,0,9_S
1775033274.0890071,1876,0,9_S
1775033274.090573,2069,0,9_S
1775033274.093345,2276,0,9_S
1775033274.0964532,2066,0,9_S
1775033274.112641,1809,0,9_S
1775033274.112729,1869,0,9_S
1775033274.112782,1972,0,9_S
1775033274.1128378,2152,0,9_S
1775033274.112886,2162,0,9_S
1775033274.114492,1848,0,9_S
1775033274.117239,1807,0,9_S
1775033274.120987,1911,0,9_S
1775033274.138453,1971,0,9_S
1775033274.1386828,2310,0,9_S
1775033274.138747,2034,0,9_S
1775033274.1387992,2033,0,9_S
1775033274.138943,1950,0,9_S
1775033274.1390731,1887,0,9_S
1775033274.142402,2070,0,9_S
1775033274.145969,2181,0,9_S
1775033274.14751,1957,0,9_S
1775033274.1717708,1691,0,9_S
1775033274.1718159,1873,0,9_S
1775033274.190018,2078,0,9_S
1775033274.2004359,2169,0,9_S
1775033274.201233,2064,0,9_S
1775033274.2013,1837,0,9_S
1775033274.201359,1870,0,9_S
1775033274.201408,2046,0,9_S
1775033274.201561,1980,0,9_S
1775033274.2016482,2209,0,9_S
1775033274.201706,1858,0,9_S
1775033274.2017548,1783,0,9_S
1775033274.201803,1838,0,9_S
1775033274.2018502,1970,0,9_S
1775033274.201896,2345,0,9_S
1775033274.203424,2107,0,9_S
1775033274.2034829,1924,0,9_S
1775033274.2035131,1854,0,9_S
1775033274.204757,1858,0,9_S
1775033274.213237,2040,0,9_S
1775033274.221895,2276,0,9_S
1775033274.2220318,2026,0,9_S
1775033274.222093,1728,0,9_S
1775033274.222144,1856,0,9_S
1775033274.222193,2077,0,9_S
1775033274.2251809,2125,0,9_S
1775033274.228236,1995,0,9_S
1775033274.231903,2062,0,9_S
1775033274.246283,1797,0,9_S
1775033274.2488818,1941,0,9_S
1775033274.248963,2038,0,9_S
1775033274.249064,2193,0,9_S
1775033274.249322,2021,0,9_S
1775033274.249376,1859,0,9_S
1775033274.252258,1818,0,9_S
1775033274.270674,2061,0,9_S
1775033274.2730591,2140,0,9_S
1775033274.273194,2115,0,9_S
1775033274.2732642,1788,0,9_S
1775033274.273317,1809,0,9_S
1775033274.27337,1999,0,9_S
1775033274.27342,2075,0,9_S
1775033274.276299,2290,0,9_S
1775033274.2791731,1966,0,9_S
1775033274.28225,1927,0,9_S
1775033274.293536,1734,0,9_S
1775033274.3122518,2044,0,9_S
1775033274.323839,2166,0,9_S
1775033274.323902,2110,0,9_S
1775033274.3239338,1900,0,9_S
1775033274.3239648,1789,0,9_S
1775033274.3239942,1935,0,9_S
1775033274.325495,2094,0,9_S
1775033274.325601,2199,0,9_S
1775033274.325663,1988,0,9_S
1775033274.325781,1883,0,9_S
1775033274.326012,1910,0,9_S
1775033274.32604,1994,0,9_S
1775033274.326068,2082,0,9_S
1775033274.3274848,2125,0,9_S
1775033274.330233,1944,0,9_S
1775033274.3438668,1711,0,9_S
1775033274.348362,2051,0,9_S
1775033274.350417,2103,0,9_S
1775033274.35197,2203,0,9_S
1775033274.352067,1965,0,9_S
1775033274.352125,1691,0,9_S
1775033274.352179,1926,0,9_S
1775033274.35433,2082,0,9_S
1775033274.364749,2163,0,9_S
1775033274.37219,2028,0,9_S
1775033274.373942,1969,0,9_S
1775033274.373985,1887,0,9_S
1775033274.374039,1883,0,9_S
1775033274.374072,1982,0,9_S
1775033274.375393,2183,0,9_S
1775033274.380814,2145,0,9_S
1775033274.381144,1893,0,9_S
1775033274.3841789,1744,0,9_S
1775033274.38775,1953,0,9_S
1775033274.3904152,2222,0,9_S
1775033274.397707,2110,0,9_S
1775033274.4018319,1861,0,9_S
1775033274.404335,1920,0,9_S
1775033274.407001,1871,0,9_S
1775033274.408488,2085,0,9_S
1775033274.409211,2186,0,9_S
1775033274.4118478,2071,0,9_S
1775033274.4145012,1872,0,9_S
1775033274.41764,1656,0,9_S
1775033274.424117,1949,0,9_S
1775033274.4273012,2094,0,9_S
1775033274.429164,2248,0,9_S
1775033274.429694,1900,0,9_S
1775033274.436626,1798,0,9_S
1775033274.437527,1840,0,9_S
1775033274.4380329,2011,0,9_S
1775033274.441783,2201,0,9_S
1775033274.44449,2301,0,9_S
1775033274.447545,1791,0,9_S
1775033274.459145,1759,0,9_S
1775033274.460352,1919,0,9_S
1775033274.461536,2090,0,9_S
1775033274.4621592,2289,0,9_S
1775033274.464301,2011,0,9_S
1775033274.466052,1720,0,9_S
1775033274.468447,1938,0,9_S
1775033274.4712262,2029,0,9_S
1775033274.478291,2166,0,9_S
1775033274.4831018,2151,0,9_S
1775033274.483729,1828,0,9_S
1775033274.48649,1773,0,9_S
1775033274.4883819,1892,0,9_S
1775033274.490561,2057,0,9_S
1775033274.4925609,2256,0,9_S
1775033274.495268,2058,0,9_S
1775033274.4980469,1745,0,9_S
1775033274.5010839,1891,0,9_S
1775033274.5057411,2023,0,9_S
1775033274.5100842,2031,0,9_S
1775033274.5113559,2280,0,9_S
1775033274.514905,1908,0,9_S
1775033274.5166762,1808,0,9_S
1775033274.519039,2082,0,9_S
1775033274.522034,1904,0,9_S
1775033274.530366,2116,0,9_S
1775033274.532228,2148,0,9_S
1775033274.532796,1865,0,9_S
1775033274.534678,1757,0,9_S
1775033274.538131,1950,0,9_S
1775033274.540417,1908,0,9_S
1775033274.5435112,2310,0,9_S
1775033274.546189,1756,0,9_S
1775033274.549042,1709,0,9_S
1775033274.5568798,2019,0,9_S
1775033274.557476,1984,0,9_S
1775033274.559741,2124,0,9_S
1775033274.561897,2225,0,9_S
1775033274.565429,1872,0,9_S
1775033274.5670788,1685,0,9_S
1775033274.570019,1939,0,9_S
1775033274.573049,2251,0,9_S
1775033274.57741,2097,0,9_S
1775033274.579987,1953,0,9_S
1775033274.582222,1782,0,9_S
1775033274.585207,1938,0,9_S
1775033274.588453,2064,0,9_S
1775033274.591103,2267,0,9_S
1775033274.594038,2111,0,9_S
1775033274.597008,1884,0,9_S
1775033274.601324,1748,0,9_S
1775033274.603689,1916,0,9_S
1775033274.607029,2083,0,9_S
1775033274.609895,2120,0,9_S
1775033274.61273,2073,0,9_S
1775033274.615283,1659,0,9_S
1775033274.618043,1947,0,9_S
1775033274.624424,1784,0,9_S
1775033274.6251562,2228,0,9_S
1775033274.6272051,2233,0,9_S
1775033274.630378,1921,0,9_S
1775033274.6336231,1745,0,9_S
1775033274.6362188,1819,0,9_S
1775033274.639041,2038,0,9_S
1775033274.642011,2230,0,9_S
1775033274.6482491,2066,0,9_S
1775033274.6489952,1924,0,9_S
1775033274.651078,1738,0,9_S
1775033274.6540768,1983,0,9_S
1775033274.6572769,2139,0,9_S
1775033274.660023,2104,0,9_S
1775033274.663025,2073,0,9_S
1775033274.666008,1829,0,9_S
1775033274.672127,1981,0,9_S
1775033274.672562,1905,0,9_S
1775033274.67616,2152,0,9_S
1775033274.678186,2114,0,9_S
1775033274.681271,1941,0,9_S
1775033274.684065,1741,0,9_S
1775033274.6870332,1953,0,9_S
1775033274.694815,1967,0,9_S
1775033274.694885,2245,0,9_S
1775033274.6971562,2006,0,9_S
1775033274.6992462,1846,0,9_S
1775033274.7031941,1771,0,9_S
1775033274.704951,2151,0,9_S
1775033274.707912,2177,0,9_S
1775033274.710925,1977,0,9_S
1775033274.716987,1879,0,9_S
1775033274.717751,1746,0,9_S
1775033274.720685,1999,0,9_S
1775033274.724069,2094,0,9_S
1775033274.727198,2295,0,9_S
1775033274.72891,1861,0,9_S
1775033274.731882,1758,0,9_S
1775033274.73491,2001,0,9_S
1775033274.7397382,2065,0,9_S
1775033274.741628,2126,0,9_S
1775033274.744801,2038,0,9_S
1775033274.747794,1912,0,9_S
1775033274.7505012,1660,0,9_S
1775033274.753073,2058,0,9_S
1775033274.75592,2100,0,9_S
1775033274.762176,2198,0,9_S
1775033274.762578,1967,0,9_S
1775033274.765975,1780,0,9_S
1775033274.7681322,1700,0,9_S
1775033274.770943,2119,0,9_S
1775033274.77388,2064,0,9_S
1775033274.776934,2137,0,9_S
1775033274.7798789,1992,0,9_S
1775033274.7854762,1851,0,9_S
1775033274.7861938,1936,0,9_S
1775033274.7899148,2007,0,9_S
1775033274.792578,2313,0,9_S
1775033274.795668,2122,0,9_S
1775033274.798222,1673,0,9_S
1775033274.8009138,1722,0,9_S
1775033274.803932,2147,0,9_S
1775033274.808598,1999,0,9_S
1775033274.8106902,2012,0,9_S
1775033274.813974,2063,0,9_S
1775033274.81651,1781,0,9_S
1775033274.819113,1966,0,9_S
1775033274.821889,2035,0,9_S
1775033274.825705,2242,0,9_S
1775033274.8282619,2018,0,9_S
1775033274.833489,1870,0,9_S
1775033274.8338969,1900,0,9_S
1775033274.836929,1992,0,9_S
1775033274.840052,2096,0,9_S
1775033274.84307,2289,0,9_S
1775033274.845876,1885,0,9_S
1775033274.84892,1820,0,9_S
1775033274.855061,1809,0,9_S
1775033274.8558269,1897,0,9_S
1775033274.8591459,2228,0,9_S
1775033274.861124,2023,0,9_S
1775033274.863928,1931,0,9_S
1775033274.866903,1760,0,9_S
1775033274.869906,2002,0,9_S
1775033274.8769321,2071,0,9_S
1775033274.87765,2203,0,9_S
1775033274.879186,2055,0,9_S
1775033274.882518,1681,0,9_S
1775033274.884939,1958,0,9_S
1775033274.8879051,1962,0,9_S
1775033274.890919,2102,0,9_S
1775033274.8939059,2097,0,9_S
1775033274.898396,1786,0,9_S
1775033274.9004931,1883,0,9_S
1775033274.903929,1857,0,9_S
1775033274.906385,2054,0,9_S
1775033274.9093592,2167,0,9_S
1775033274.911917,2225,0,9_S
1775033274.914906,1801,0,9_S
1775033274.919141,1660,0,9_S
1775033274.921637,2127,0,9_S
1775033274.924632,2084,0,9_S
1775033274.927337,2249,0,9_S
1775033274.929933,1869,0,9_S
1775033274.932919,1875,0,9_S
1775033274.935882,1896,0,9_S
1775033274.9418309,1940,0,9_S
1775033274.942162,2137,0,9_S
1775033274.945258,2028,0,9_S
1775033274.9491131,1837,0,9_S
1775033274.950903,2010,0,9_S
1775033274.953917,1998,0,9_S
1775033274.9569101,2134,0,9_S
1775033274.9621801,2147,0,9_S
1775033274.964363,1971,0,9_S
1775033274.966197,1878,0,9_S
1775033274.969845,1831,0,9_S
1775033274.972446,2023,0,9_S
1775033274.974991,2207,0,9_S
1775033274.9779131,2061,0,9_S
1775033274.982295,1874,0,9_S
1775033274.9846022,1758,0,9_S
1775033274.9873211,1941,0,9_S
1775033274.990217,2154,0,9_S
1775033274.992875,2137,0,9_S
1775033274.9957561,1922,0,9_S
1775033274.999637,1854,0,9_S
1775033275.0038688,1886,0,9_S
1775033275.005196,2056,0,9_S
1775033275.007908,2273,0,9_S
1775033275.011005,2136,0,9_S
1775033275.013794,1869,0,9_S
1775033275.0167701,1720,0,9_S
1775033275.020343,1999,0,9_S
1775033275.024297,2025,0,9_S
1775033275.026314,2127,0,9_S
1775033275.029071,2001,0,9_S
1775033275.03205,1641,0,9_S
1775033275.0349271,1829,0,9_S
1775033275.037749,2104,0,9_S
1775033275.040771,2131,0,9_S
1775033275.046114,2214,0,9_S
1775033275.048107,1956,0,9_S
1775033275.050035,1790,0,9_S
1775033275.0539122,1925,0,9_S
1775033275.0558069,1993,0,9_S
1775033275.058777,2228,0,9_S
1775033275.061776,2058,0,9_S
1775033275.066787,1777,0,9_S
1775033275.067908,1944,0,9_S
1775033275.071862,2044,0,9_S
1775033275.0747468,2158,0,9_S
1775033275.077334,2170,0,9_S
1775033275.0798788,1890,0,9_S
1775033275.0832288,1687,0,9_S
1775033275.085936,1938,0,9_S
1775033275.08988,2099,0,9_S
1775033275.092813,2180,0,9_S
1775033275.095986,2025,0,9_S
1775033275.099515,1646,0,9_S
1775033275.10082,1771,0,9_S
1775033275.103764,2156,0,9_S
1775033275.107564,2338,0,9_S
1775033275.111469,1992,0,9_S
1775033275.113622,1949,0,9_S
1775033275.11687,1905,0,9_S
1775033275.119665,1964,0,9_S
1775033275.121758,1964,0,9_S
1775033275.124788,2161,0,9_S
1775033275.127747,2097,0,9_S
1775033275.1307468,1895,0,9_S
1775033275.13466,1894,0,9_S
1775033275.137874,1952,0,9_S
1775033275.1398149,2069,0,9_S
1775033275.1439219,2199,0,9_S
1775033275.14575,1933,0,9_S
1775033275.148787,1700,0,9_S
1775033275.151801,1826,0,9_S
1775033275.1548228,2053,0,9_S
1775033275.158558,2274,0,9_S
1775033275.161331,2100,0,9_S
1775033275.164426,1729,0,9_S
1775033275.1669781,1657,0,9_S
1775033275.169806,2144,0,9_S
1775033275.175601,2151,0,9_S
1775033275.176352,2148,0,9_S
1775033275.179837,2159,0,9_S
1775033275.1822011,1868,0,9_S
1775033275.185131,1738,0,9_S
1775033275.187798,1927,0,9_S
1775033275.190778,2220,0,9_S
1775033275.1976168,2159,0,9_S
1775033275.198285,1805,0,9_S
1775033275.199842,1899,0,9_S
1775033275.202852,1862,0,9_S
1775033275.2068942,2023,0,9_S
1775033275.20876,2119,0,9_S
1775033275.211776,1967,0,9_S
1775033275.21771,1932,0,9_S
1775033275.2180521,1928,0,9_S
1775033275.221476,1942,0,9_S
1775033275.224226,2244,0,9_S
1775033275.2271922,2146,0,9_S
1775033275.2298582,1917,0,9_S
1775033275.2327838,1750,0,9_S
1775033275.238038,1941,0,9_S
1775033275.240166,2051,0,9_S
1775033275.242025,2166,0,9_S
1775033275.2458692,1916,0,9_S
1775033275.247626,1890,0,9_S
1775033275.2508001,1759,0,9_S
1775033275.2537348,2059,0,9_S
1775033275.259305,2211,0,9_S
1775033275.261376,2166,0,9_S
1775033275.2634811,1922,0,9_S
1775033275.266443,1716,0,9_S
1775033275.269429,1937,0,9_S
1775033275.271997,2013,0,9_S
1775033275.274637,2347,0,9_S
1775033275.277645,2225,0,9_S
1775033275.28095,1720,0,9_S
1775033275.284889,1732,0,9_S
1775033275.2873778,1903,0,9_S
1775033275.290407,2168,0,9_S
1775033275.29295,2257,0,9_S
1775033275.295624,1991,0,9_S
1775033275.3031301,1700,0,9_S
1775033275.3032498,1856,0,9_S
1775033275.305143,2017,0,9_S
1775033275.308925,2232,0,9_S
1775033275.310803,2116,0,9_S
1775033275.313653,1769,0,9_S
1775033275.3166149,1981,0,9_S
1775033275.3196511,1947,0,9_S
1775033275.3241,2132,0,9_S
1775033275.325944,2237,0,9_S
1775033275.33009,1910,0,9_S
1775033275.331698,1718,0,9_S
1775033275.3346539,1887,0,9_S
1775033275.3376498,2031,0,9_S
1775033275.340768,2245,0,9_S
1775033275.344086,2100,0,9_S
1775033275.347286,1803,0,9_S
1775033275.3501801,1783,0,9_S
1775033275.353219,1970,0,9_S
1775033275.3559139,2097,0,9_S
1775033275.358613,2397,0,9_S
1775033275.361726,2032,0,9_S
1775033275.365911,1754,0,9_S
1775033275.3677812,1816,0,9_S
1775033275.371849,1950,0,9_S
1775033275.373781,2137,0,9_S
1775033275.37662,2104,0,9_S
1775033275.379627,1816,0,9_S
1775033275.382711,1777,0,9_S
1775033275.3858318,1921,0,9_S
1775033275.389867,2169,0,9_S
1775033275.3924658,2248,0,9_S
1775033275.3957,2064,0,9_S
1775033275.398266,1830,0,9_S
1775033275.400823,1902,0,9_S
1775033275.403648,1891,0,9_S
1775033275.409556,2041,0,9_S
1775033275.4107,2194,0,9_S
1775033275.412799,2007,0,9_S
1775033275.416713,1758,0,9_S
1775033275.418653,1867,0,9_S
1775033275.4220889,2060,0,9_S
1775033275.424683,2205,0,9_S
1775033275.431544,2142,0,9_S
1775033275.4329689,1830,0,9_S
1775033275.4346392,1724,0,9_S
1775033275.439221,1901,0,9_S
1775033275.439689,2074,0,9_S
1775033275.44266,2211,0,9_S
1775033275.445676,1913,0,9_S
1775033275.448643,1817,0,9_S
1775033275.455667,1911,0,9_S
1775033275.455796,2073,0,9_S
1775033275.458696,2158,0,9_S
1775033275.4624908,2052,0,9_S
1775033275.464464,1852,0,9_S
1775033275.467179,1806,0,9_S
1775033275.4698439,1945,0,9_S
1775033275.472905,2083,0,9_S
1775033275.477173,2223,0,9_S
1775033275.4793978,2060,0,9_S
1775033275.4838881,1802,0,9_S
1775033275.485743,1793,0,9_S
1775033275.487653,2106,0,9_S
1775033275.490656,2153,0,9_S
1775033275.493637,2014,0,9_S
1775033275.500389,1958,0,9_S
1775033275.500862,1879,0,9_S
1775033275.505404,1936,0,9_S
1775033275.506284,2058,0,9_S
1775033275.5097501,2268,0,9_S
1775033275.511793,2032,0,9_S
1775033275.514633,1701,0,9_S
1775033275.517653,1679,0,9_S
1775033275.520663,1945,0,9_S
1775033275.526295,2221,0,9_S
1775033275.527494,2079,0,9_S
1775033275.53147,1974,0,9_S
1775033275.53492,1812,0,9_S
1775033275.5369961,2001,0,9_S
1775033275.5384939,2020,0,9_S
1775033275.541523,2201,0,9_S
1775033275.544519,2117,0,9_S
1775033275.552722,1891,0,9_S
1775033275.553022,1729,0,9_S
1775033275.55566,2022,0,9_S
1775033275.5604532,2086,0,9_S
1775033275.560846,2230,0,9_S
1775033275.562837,1922,0,9_S
1775033275.5655549,1811,0,9_S
1775033275.571594,1899,0,9_S
1775033275.572201,1950,0,9_S
1775033275.577185,2182,0,9_S
1775033275.5781388,2046,0,9_S
1775033275.5816,1974,0,9_S
1775033275.583607,1702,0,9_S
1775033275.586514,1902,0,9_S
1775033275.589525,2203,0,9_S
1775033275.59251,2311,0,9_S
1775033275.597533,1836,0,9_S
1775033275.599968,1695,0,9_S
1775033275.602999,1814,0,9_S
1775033275.6054752,2122,0,9_S
1775033275.607591,2115,0,9_S
1775033275.6107929,2071,0,9_S
1775033275.6136162,1890,0,9_S
1775033275.618956,1876,0,9_S
1775033275.620809,2075,0,9_S
1775033275.622972,2029,0,9_S
1775033275.626119,2163,0,9_S
1775033275.630162,2092,0,9_S
1775033275.6316118,1793,0,9_S
1775033275.634495,1816,0,9_S
1775033275.637577,2031,0,9_S
1775033275.644471,2149,0,9_S
1775033275.64672,2172,0,9_S
1775033275.646948,1892,0,9_S
1775033275.6499891,1830,0,9_S
1775033275.654102,2013,0,9_S
1775033275.656086,2034,0,9_S
1775033275.658655,2303,0,9_S
1775033275.664046,1978,0,9_S
1775033275.665122,1799,0,9_S
1775033275.6689641,1854,0,9_S
1775033275.671485,2019,0,9_S
1775033275.673692,2150,0,9_S
1775033275.6765351,2168,0,9_S
1775033275.6795049,1816,0,9_S
1775033275.6825259,1761,0,9_S
1775033275.6891782,1863,0,9_S
1775033275.691919,2127,0,9_S
1775033275.692513,2305,0,9_S
1775033275.696234,2055,0,9_S
1775033275.697945,1855,0,9_S
1775033275.702059,1890,0,9_S
1775033275.703488,1952,0,9_S
1775033275.710349,2053,0,9_S
1775033275.7107809,2147,0,9_S
1775033275.712888,1966,0,9_S
1775033275.716387,1846,0,9_S
1775033275.71996,1845,0,9_S
1775033275.722077,2059,0,9_S
1775033275.7246358,2142,0,9_S
1775033275.727529,2051,0,9_S
1775033275.730528,1752,0,9_S
1775033275.736342,1747,0,9_S
1775033275.737887,2087,0,9_S
1775033275.739892,2102,0,9_S
1775033275.743347,2212,0,9_S
1775033275.745567,1993,0,9_S
1775033275.748527,1790,0,9_S
1775033275.751533,1934,0,9_S
1775033275.754514,1929,0,9_S
1775033275.7608058,2226,0,9_S
1775033275.761601,2170,0,9_S
1775033275.763535,1899,0,9_S
1775033275.768642,1721,0,9_S
1775033275.770566,1857,0,9_S
1775033275.772614,2053,0,9_S
1775033275.775511,2227,0,9_S
1775033275.7785332,1996,0,9_S
1775033275.7814999,1823,0,9_S
1775033275.787463,1923,0,9_S
1775033275.7889621,1998,0,9_S
1775033275.790921,2155,0,9_S
1775033275.7961931,2154,0,9_S
1775033275.796551,1895,0,9_S
1775033275.799527,1769,0,9_S
1775033275.806772,1970,0,9_S
1775033275.807282,2141,0,9_S
1775033275.8092291,2127,0,9_S
1775033275.8124878,2036,0,9_S
1775033275.814524,1846,0,9_S
1775033275.819005,1822,0,9_S
1775033275.820836,1986,0,9_S
1775033275.82353,2110,0,9_S
1775033275.826497,2166,0,9_S
1775033275.8328478,1968,0,9_S
1775033275.836427,1791,0,9_S
1775033275.836565,1883,0,9_S
1775033275.839107,1940,0,9_S
1775033275.842598,2306,0,9_S
1775033275.844909,2133,0,9_S
1775033275.848253,1831,0,9_S
1775033275.850827,1791,0,9_S
1775033275.858807,1964,0,9_S
1775033275.860652,2168,0,9_S
1775033275.861588,2246,0,9_S
1775033275.867214,1963,0,9_S
1775033275.8674078,1717,0,9_S
1775033275.8697019,1860,0,9_S
1775033275.8714418,2010,0,9_S
1775033275.874416,2177,0,9_S
1775033275.8775098,2162,0,9_S
1775033275.887125,1854,0,9_S
1775033275.8874,1812,0,9_S
1775033275.890073,1941,0,9_S
1775033275.895612,2025,0,9_S
1775033275.8961751,2215,0,9_S
1775033275.89792,2069,0,9_S
1775033275.898626,1761,0,9_S
1775033275.901383,1838,0,9_S
1775033275.909693,1978,0,9_S
1775033275.910141,2239,0,9_S
1775033275.9125261,2186,0,9_S
1775033275.9177,1874,0,9_S
1775033275.917851,1768,0,9_S
1775033275.9201741,1966,0,9_S
1775033275.922875,2040,0,9_S
1775033275.925427,2224,0,9_S
1775033275.928386,2076,0,9_S
1775033275.934165,1788,0,9_S
1775033275.9358358,1780,0,9_S
1775033275.939393,1940,0,9_S
1775033275.944499,2151,0,9_S
1775033275.9447622,2163,0,9_S
1775033275.947017,1901,0,9_S
1775033275.9497018,1799,0,9_S
1775033275.955859,1979,0,9_S
1775033275.9563909,2034,0,9_S
1775033275.958463,2213,0,9_S
1775033275.96242,2032,0,9_S
1775033275.966308,1789,0,9_S
1775033275.968638,1832,0,9_S
1775033275.970371,2022,0,9_S
1775033275.973383,2126,0,9_S
1775033275.976492,2227,0,9_S
1775033275.9832268,1927,0,9_S
1775033275.984289,1740,0,9_S
1775033275.9899461,1920,0,9_S
1775033275.9923499,2065,0,9_S
1775033275.994774,2209,0,9_S
1775033275.995371,2104,0,9_S
1775033275.997422,1833,0,9_S
1775033276.000381,1764,0,9_S
1775033276.007477,1918,0,9_S
1775033276.0091252,2063,0,9_S
1775033276.01191,2210,0,9_S
1775033276.012945,2131,0,9_S
1775033276.015682,1778,0,9_S
1775033276.0199318,1791,0,9_S
1775033276.021378,1930,0,9_S
1775033276.024371,2140,0,9_S
1775033276.027371,2228,0,9_S
1775033276.0352142,1925,0,9_S
1775033276.035661,1791,0,9_S
1775033276.0386372,1936,0,9_S
1775033276.040612,2047,0,9_S
1775033276.042867,2202,0,9_S
1775033276.046635,2072,0,9_S
1775033276.048374,1782,0,9_S
1775033276.051392,1808,0,9_S
1775033276.055604,2011,0,9_S
1775033276.0579042,2137,0,9_S
1775033276.06109,2034,0,9_S
1775033276.064922,1901,0,9_S
1775033276.066864,1880,0,9_S
1775033276.0694232,1989,0,9_S
1775033276.072376,2010,0,9_S
1775033276.075422,2262,0,9_S
1775033276.080152,1987,0,9_S
1775033276.082516,1785,0,9_S
1775033276.084477,1849,0,9_S
1775033276.087643,1969,0,9_S
1775033276.091106,2270,0,9_S
1775033276.093668,2174,0,9_S
1775033276.0964339,1918,0,9_S
1775033276.0993931,1739,0,9_S
1775033276.1045718,1967,0,9_S
1775033276.10703,2059,0,9_S
1775033276.1092439,2211,0,9_S
1775033276.114151,2034,0,9_S
1775033276.115777,1768,0,9_S
1775033276.117367,1829,0,9_S
1775033276.120358,1911,0,9_S
1775033276.123362,2179,0,9_S
1775033276.129233,2167,0,9_S
1775033276.130377,1942,0,9_S
1775033276.133923,1796,0,9_S
1775033276.13697,1891,0,9_S
1775033276.139051,2032,0,9_S
1775033276.141851,2256,0,9_S
1775033276.144445,2014,0,9_S
1775033276.1473632,1831,0,9_S
1775033276.150393,1752,0,9_S
1775033276.1551208,2088,0,9_S
1775033276.157289,2161,0,9_S
1775033276.1598551,2212,0,9_S
1775033276.16429,2049,0,9_S
1775033276.1660302,1618,0,9_S
1775033276.1685839,2015,0,9_S
1775033276.171396,1950,0,9_S
1775033276.174401,2230,0,9_S
1775033276.178823,2106,0,9_S
1775033276.1808388,1810,0,9_S
1775033276.184513,1738,0,9_S
1775033276.187447,2071,0,9_S
1775033276.189377,2003,0,9_S
1775033276.19227,2297,0,9_S
1775033276.195912,1930,0,9_S
1775033276.2017548,1963,0,9_S
1775033276.202476,1832,0,9_S
1775033276.205621,1941,0,9_S
1775033276.207507,2247,0,9_S
1775033276.210488,2070,0,9_S
1775033276.213248,1824,0,9_S
1775033276.2162628,1782,0,9_S
1775033276.2192352,1991,0,9_S
1775033276.225748,2015,0,9_S
1775033276.226897,2208,0,9_S
1775033276.2283578,1917,0,9_S
1775033276.231605,1894,0,9_S
1775033276.235148,1843,0,9_S
1775033276.237716,1990,0,9_S
1775033276.240274,2153,0,9_S
1775033276.243243,2222,0,9_S
1775033276.247445,1864,0,9_S
1775033276.249623,1761,0,9_S
1775033276.253139,1915,0,9_S
1775033276.256413,2111,0,9_S
1775033276.258278,2290,0,9_S
1775033276.261269,1846,0,9_S
1775033276.264271,1838,0,9_S
1775033276.270474,1920,0,9_S
1775033276.270539,1973,0,9_S
1775033276.274184,2194,0,9_S
1775033276.278521,2083,0,9_S
1775033276.280364,1953,0,9_S
1775033276.2822762,1750,0,9_S
1775033276.2852218,2032,0,9_S
1775033276.288369,1955,0,9_S
1775033276.2923899,2262,0,9_S
1775033276.295525,2106,0,9_S
1775033276.298375,1730,0,9_S
1775033276.300355,1867,0,9_S
1775033276.303266,2059,0,9_S
1775033276.3062441,2137,0,9_S
1775033276.309262,2152,0,9_S
1775033276.313177,1910,0,9_S
1775033276.3175712,1750,0,9_S
1775033276.319011,1946,0,9_S
1775033276.32179,2025,0,9_S
1775033276.324439,2232,0,9_S
1775033276.327269,2098,0,9_S
1775033276.3302321,1969,0,9_S
1775033276.334521,1731,0,9_S
1775033276.336928,2002,0,9_S
1775033276.339692,2192,0,9_S
1775033276.343059,2136,0,9_S
1775033276.346406,1943,0,9_S
1775033276.348256,1798,0,9_S
1775033276.3512168,1869,0,9_S
1775033276.357143,2007,0,9_S
1775033276.3578,2254,0,9_S
1775033276.360933,2065,0,9_S
1775033276.363942,1903,0,9_S
1775033276.367272,1753,0,9_S
1775033276.369838,2014,0,9_S
1775033276.3723881,1973,0,9_S
1775033276.375272,2201,0,9_S
1775033276.3801332,1922,0,9_S
1775033276.3832269,1860,0,9_S
1775033276.384973,1825,0,9_S
1775033276.388237,2001,0,9_S
1775033276.3902578,2295,0,9_S
1775033276.393265,2038,0,9_S
1775033276.396242,1910,0,9_S
1775033276.4022899,1601,0,9_S
1775033276.402687,2081,0,9_S
1775033276.406157,2176,0,9_S
1775033276.4107368,2189,0,9_S
1775033276.412531,1886,0,9_S
1775033276.41424,1783,0,9_S
1775033276.4172642,1816,0,9_S
1775033276.4202209,2053,0,9_S
1775033276.425107,2416,0,9_S
1775033276.427016,1862,0,9_S
1775033276.431446,1797,0,9_S
1775033276.433127,1839,0,9_S
1775033276.435762,1923,0,9_S
1775033276.438316,2118,0,9_S
1775033276.441139,2228,0,9_S
1775033276.446615,1822,0,9_S
1775033276.448599,1683,0,9_S
1775033276.450426,1961,0,9_S
1775033276.454537,2132,0,9_S
1775033276.456319,2125,0,9_S
1775033276.459104,2053,0,9_S
1775033276.462141,2136,0,9_S
1775033276.467686,1527,0,9_S
1775033276.468384,1929,0,9_S
1775033276.471935,2414,0,9_S
1775033276.474148,2080,0,9_S
1775033276.47745,1838,0,9_S
1775033276.480201,1917,0,9_S
1775033276.483118,2062,0,9_S
1775033276.48853,1859,0,9_S
1775033276.489182,2210,0,9_S
1775033276.493115,2260,0,9_S
1775033276.496958,1808,0,9_S
1775033276.498382,1650,0,9_S
1775033276.5011399,2014,0,9_S
1775033276.504128,2161,0,9_S
1775033276.509695,2274,0,9_S
1775033276.510994,1897,0,9_S
1775033276.5137448,1770,0,9_S
1775033276.518087,1697,0,9_S
1775033276.519786,2144,0,9_S
1775033276.5223339,2192,0,9_S
1775033276.5251331,2224,0,9_S
1775033276.5308,1775,0,9_S
1775033276.5314188,1607,0,9_S
1775033276.535019,1799,0,9_S
1775033276.5374851,2111,0,9_S
1775033276.5408099,2423,0,9_S
1775033276.543382,2100,0,9_S
1775033276.54617,1733,0,9_S
1775033276.55179,1881,0,9_S
1775033276.552808,1979,0,9_S
1775033276.556038,2347,0,9_S
1775033276.560191,2278,0,9_S
1775033276.5618382,1691,0,9_S
1775033276.564398,1746,0,9_S
1775033276.567141,1774,0,9_S
1775033276.573257,2097,0,9_S
1775033276.573921,2189,0,9_S
1775033276.5772748,2029,0,9_S
1775033276.579722,1756,0,9_S
1775033276.582912,1686,0,9_S
1775033276.5854678,2053,0,9_S
1775033276.588147,2214,0,9_S
1775033276.593885,2186,0,9_S
1775033276.594524,1912,0,9_S
1775033276.597727,1726,0,9_S
1775033276.600675,1888,0,9_S
1775033276.603949,2164,0,9_S
1775033276.606494,2135,0,9_S
1775033276.609151,2117,0,9_S
1775033276.6153321,1858,0,9_S
1775033276.61593,1625,0,9_S
1775033276.619313,2063,0,9_S
1775033276.621757,2213,0,9_S
1775033276.624985,2235,0,9_S
1775033276.6275148,1922,0,9_S
1775033276.630143,1720,0,9_S
1775033276.6362529,1819,0,9_S
1775033276.6365912,2032,0,9_S
1775033276.639775,2305,0,9_S
1775033276.6426492,2091,0,9_S
1775033276.645853,1874,0,9_S
1775033276.6484082,1781,0,9_S
1775033276.6511319,2007,0,9_S
1775033276.6574001,2183,0,9_S
1775033276.658035,2109,0,9_S
1775033276.6608908,2058,0,9_S
1775033276.6673229,1861,0,9_S
1775033276.667357,1808,0,9_S
1775033276.669112,2069,0,9_S
1775033276.672022,2190,0,9_S
1775033276.674999,2205,0,9_S
1775033276.6790872,1684,0,9_S
1775033276.681064,1768,0,9_S
1775033276.68413,2063,0,9_S
1775033276.6881971,2182,0,9_S
1775033276.6907551,2213,0,9_S
1775033276.693316,1963,0,9_S
1775033276.6960168,1717,0,9_S
1775033276.700554,1818,0,9_S
1775033276.7021818,2028,0,9_S
1775033276.705177,2245,0,9_S
1775033276.708363,2135,0,9_S
1775033276.711019,1846,0,9_S
1775033276.7139919,1783,0,9_S
1775033276.7170088,1864,0,9_S
1775033276.722328,2190,0,9_S
1775033276.7242398,2291,0,9_S
1775033276.7260811,2000,0,9_S
1775033276.730289,1649,0,9_S
1775033276.7320151,1831,0,9_S
1775033276.734968,1966,0,9_S
1775033276.7379751,2251,0,9_S
1775033276.7431612,2198,0,9_S
1775033276.7454011,1786,0,9_S
1775033276.747303,1769,0,9_S
1775033276.751422,1881,0,9_S
1775033276.753057,2155,0,9_S
1775033276.756016,2402,0,9_S
1775033276.7589839,2038,0,9_S
1775033276.76427,1585,0,9_S
1775033276.766287,1714,0,9_S
1775033276.768179,2108,0,9_S
1775033276.7722628,2222,0,9_S
1775033276.7740319,2277,0,9_S
1775033276.7770188,1867,0,9_S
1775033276.7800078,1704,0,9_S
1775033276.785171,1854,0,9_S
1775033276.7873018,2217,0,9_S
1775033276.789162,2260,0,9_S
1775033276.7932549,2105,0,9_S
1775033276.7949839,1752,0,9_S
1775033276.798014,1736,0,9_S
1775033276.8010082,1961,0,9_S
1775033276.807201,2315,0,9_S
1775033276.808437,2098,0,9_S
1775033276.810438,1809,0,9_S
1775033276.814552,1749,0,9_S
1775033276.81637,1852,0,9_S
1775033276.818998,1936,0,9_S
1775033276.821995,2323,0,9_S
1775033276.829035,2035,0,9_S
1775033276.8294342,1880,0,9_S
1775033276.831372,1792,0,9_S
1775033276.836566,1965,0,9_S
1775033276.838316,2236,0,9_S
1775033276.840024,2230,0,9_S
1775033276.843014,2139,0,9_S
1775033276.846823,1661,0,9_S
1775033276.851394,1737,0,9_S
1775033276.853298,1976,0,9_S
1775033276.855267,2234,0,9_S
1775033276.859403,2301,0,9_S
1775033276.861335,1787,0,9_S
1775033276.864007,1667,0,9_S
1775033276.866981,1995,0,9_S
1775033276.873157,2163,0,9_S
1775033276.873596,2078,0,9_S
1775033276.8768058,2035,0,9_S
1775033276.879526,1756,0,9_S
1775033276.882905,1874,0,9_S
1775033276.88545,1947,0,9_S
1775033276.888001,2152,0,9_S
1775033276.8937972,2252,0,9_S
1775033276.894159,1908,0,9_S
1775033276.898301,1681,0,9_S
1775033276.900498,1808,0,9_S
1775033276.903662,2168,0,9_S
1775033276.906213,2309,0,9_S
1775033276.908879,2096,0,9_S
1775033276.915343,1766,0,9_S
1775033276.9156969,1673,0,9_S
1775033276.918444,1916,0,9_S
1775033276.922456,2249,0,9_S
1775033276.9241621,2323,0,9_S
1775033276.926913,1984,0,9_S
1775033276.929884,1623,0,9_S
1775033276.934775,1806,0,9_S
1775033276.936757,1966,0,9_S
1775033276.942698,2324,0,9_S
1775033276.942791,2192,0,9_S
1775033276.9455051,1894,0,9_S
1775033276.948053,1731,0,9_S
1775033276.950876,1948,0,9_S
1775033276.955352,2124,0,9_S
1775033276.9571269,2252,0,9_S
1775033276.9611259,2016,0,9_S
1775033276.96293,1724,0,9_S
1775033276.965871,1726,0,9_S
1775033276.968854,2069,0,9_S
1775033276.971922,2239,0,9_S
1775033276.976578,2198,0,9_S
1775033276.9791958,1826,0,9_S
1775033276.983377,1686,0,9_S
1775033276.985201,2068,0,9_S
1775033276.9868429,2177,0,9_S
1775033276.989845,2286,0,9_S
1775033276.9929652,1881,0,9_S
1775033276.9962502,1734,0,9_S
1775033277.00004,1808,0,9_S
1775033277.0024152,2101,0,9_S
1775033277.005641,2259,0,9_S
1775033277.008448,2156,0,9_S
1775033277.011032,1763,0,9_S
1775033277.0139,1695,0,9_S
1775033277.017445,1918,0,9_S
1775033277.0209,2090,0,9_S
1775033277.023892,2227,0,9_S
1775033277.027157,2068,0,9_S
1775033277.0288808,1673,0,9_S
1775033277.0318651,1743,0,9_S
1775033277.037617,2082,0,9_S
1775033277.0379488,2235,0,9_S
1775033277.041621,2279,0,9_S
1775033277.044045,1878,0,9_S
1775033277.047262,1758,0,9_S
1775033277.0499,1946,0,9_S
1775033277.0528882,2122,0,9_S
1775033277.0586398,2140,0,9_S
1775033277.060097,2000,0,9_S
1775033277.062506,1833,0,9_S
1775033277.066018,1745,0,9_S
1775033277.067876,1963,0,9_S
1775033277.070873,2212,0,9_S
1775033277.073917,2263,0,9_S
1775033277.078211,1920,0,9_S
1775033277.0801752,1663,0,9_S
1775033277.085711,1853,0,9_S
1775033277.085935,2146,0,9_S
1775033277.088887,2241,0,9_S
1775033277.0918589,2105,0,9_S
1775033277.094882,1783,0,9_S
1775033277.0990021,1757,0,9_S
1775033277.101598,1946,0,9_S
1775033277.104741,2222,0,9_S
1775033277.107722,2284,0,9_S
1775033277.1102788,1981,0,9_S
1775033277.112911,1658,0,9_S
1775033277.118761,1808,0,9_S
1775033277.119383,2066,0,9_S
1775033277.122192,2237,0,9_S
1775033277.126436,2062,0,9_S
1775033277.128082,1795,0,9_S
1775033277.130878,1783,0,9_S
1775033277.133888,1965,0,9_S
1775033277.138742,2162,0,9_S
1775033277.1401112,2154,0,9_S
1775033277.143244,2091,0,9_S
1775033277.147085,1807,0,9_S
1775033277.148885,1796,0,9_S
1775033277.151913,2056,0,9_S
1775033277.154876,2178,0,9_S
1775033277.159358,2229,0,9_S
1775033277.1613472,1749,0,9_S
1775033277.1640341,1667,0,9_S
1775033277.16724,2014,0,9_S
1775033277.1699939,2092,0,9_S
1775033277.172765,2260,0,9_S
1775033277.1757288,2191,0,9_S
1775033277.179796,1731,0,9_S
1775033277.182212,1780,0,9_S
1775033277.185188,2014,0,9_S
1775033277.188106,2238,0,9_S
1775033277.1907551,2204,0,9_S
1775033277.1937249,1800,0,9_S
1775033277.196757,1685,0,9_S
1775033277.201487,1783,0,9_S
1775033277.2036638,2021,0,9_S
1775033277.2065659,2233,0,9_S
1775033277.2097988,2073,0,9_S
1775033277.211731,1906,0,9_S
1775033277.214756,1775,0,9_S
1775033277.2179,2066,0,9_S
1775033277.220729,2241,0,9_S
1775033277.226113,2204,0,9_S
1775033277.22996,1842,0,9_S
1775033277.232924,1749,0,9_S
1775033277.233075,1954,0,9_S
1775033277.23678,2065,0,9_S
1775033277.239347,2239,0,9_S
1775033277.242015,2075,0,9_S
1775033277.2449799,1753,0,9_S
1775033277.249708,1759,0,9_S
1775033277.255129,1932,0,9_S
1775033277.258965,2216,0,9_S
1775033277.259386,2220,0,9_S
1775033277.261257,2063,0,9_S
1775033277.262743,1725,0,9_S
1775033277.26574,1753,0,9_S
1775033277.2687302,2086,0,9_S
1775033277.276225,2236,0,9_S
1775033277.276417,2166,0,9_S
1775033277.2782059,1760,0,9_S
1775033277.281203,1651,0,9_S
1775033277.285013,1833,0,9_S
1775033277.286728,2227,0,9_S
1775033277.289739,2262,0,9_S
1775033277.292726,2009,0,9_S
1775033277.297746,1742,0,9_S
1775033277.300032,1821,0,9_S
1775033277.304785,2140,0,9_S
1775033277.306957,2233,0,9_S
1775033277.308883,2183,0,9_S
1775033277.3107479,1833,0,9_S
1775033277.31374,1714,0,9_S
1775033277.316719,1976,0,9_S
1775033277.325021,2168,0,9_S
1775033277.3252149,2218,0,9_S
1775033277.327094,2036,0,9_S
1775033277.330681,1692,0,9_S
1775033277.333003,1670,0,9_S
1775033277.335228,2074,0,9_S
1775033277.337894,2237,0,9_S
1775033277.3430989,2262,0,9_S
1775033277.344074,1838,0,9_S
1775033277.349408,1657,0,9_S
1775033277.349971,1921,0,9_S
1775033277.354642,2149,0,9_S
1775033277.3569212,2249,0,9_S
1775033277.3587358,2165,0,9_S
1775033277.3617542,1760,0,9_S
1775033277.3647392,1706,0,9_S
1775033277.371616,1954,0,9_S
1775033277.37697,2155,0,9_S
1775033277.37921,2330,0,9_S
1775033277.3817558,1986,0,9_S
1775033277.382266,1725,0,9_S
1775033277.384162,1812,0,9_S
1775033277.385761,2042,0,9_S
1775033277.393497,2137,0,9_S
1775033277.3963919,2221,0,9_S
1775033277.3968909,1863,0,9_S
1775033277.3988638,1727,0,9_S
1775033277.402221,1885,0,9_S
1775033277.404468,2178,0,9_S
1775033277.4071329,2339,0,9_S
1775033277.409612,1983,0,9_S
1775033277.4126022,1682,0,9_S
1775033277.4233432,1780,0,9_S
1775033277.427396,2099,0,9_S
1775033277.4293592,2120,0,9_S
1775033277.429476,2117,0,9_S
1775033277.4296901,1919,0,9_S
1775033277.431846,1725,0,9_S
1775033277.433634,1893,0,9_S
1775033277.440726,2133,0,9_S
1775033277.441189,2359,0,9_S
1775033277.4449751,2097,0,9_S
1775033277.4477189,1726,0,9_S
1775033277.450138,1709,0,9_S
1775033277.451945,1996,0,9_S
1775033277.454615,2208,0,9_S
1775033277.45761,2315,0,9_S
1775033277.460607,1875,0,9_S
1775033277.46606,1676,0,9_S
1775033277.467926,1851,0,9_S
1775033277.4698381,2112,0,9_S
1775033277.4731038,2261,0,9_S
1775033277.477195,2109,0,9_S
1775033277.4786198,1833,0,9_S
1775033277.485045,1743,0,9_S
1775033277.486152,1973,0,9_S
1775033277.488044,2101,0,9_S
1775033277.491457,2235,0,9_S
1775033277.495323,1859,0,9_S
1775033277.4973571,1631,0,9_S
1775033277.49996,1937,0,9_S
1775033277.502657,2153,0,9_S
1775033277.5056288,2242,0,9_S
1775033277.511693,2051,0,9_S
1775033277.5124512,1774,0,9_S
1775033277.515597,1743,0,9_S
1775033277.517626,2037,0,9_S
1775033277.521249,2198,0,9_S
1775033277.524013,2260,0,9_S
1775033277.526593,1970,0,9_S
1775033277.529599,1676,0,9_S
1775033277.536459,1650,0,9_S
1775033277.537363,2106,0,9_S
1775033277.5393229,2355,0,9_S
1775033277.54214,2148,0,9_S
1775033277.5466251,1783,0,9_S
1775033277.548167,1622,0,9_S
1775033277.5507379,1948,0,9_S
1775033277.556641,2265,0,9_S
1775033277.5570729,2348,0,9_S
1775033277.561331,2049,0,9_S
1775033277.563318,1490,0,9_S
1775033277.566693,1769,0,9_S
1775033277.5687099,2110,0,9_S
1775033277.5716312,2307,0,9_S
1775033277.574631,2141,0,9_S
1775033277.5776188,1796,0,9_S
1775033277.58272,1795,0,9_S
1775033277.584904,1958,0,9_S
1775033277.587167,2082,0,9_S
1775033277.590267,2267,0,9_S
1775033277.592702,2201,0,9_S
1775033277.595607,1769,0,9_S
1775033277.598624,1727,0,9_S
1775033277.6032379,2014,0,9_S
1775033277.605228,2129,0,9_S
1775033277.608608,2245,0,9_S
1775033277.6124852,1906,0,9_S
1775033277.614364,1730,0,9_S
1775033277.61693,1701,0,9_S
1775033277.6195168,2129,0,9_S
1775033277.622472,2206,0,9_S
1775033277.6290162,2028,0,9_S
1775033277.6313071,1745,0,9_S
1775033277.633517,1840,0,9_S
1775033277.6391659,2093,0,9_S
1775033277.639333,2169,0,9_S
1775033277.64129,2162,0,9_S
1775033277.643973,1980,0,9_S
1775033277.651416,1876,0,9_S
1775033277.654485,1886,0,9_S
1775033277.655062,1984,0,9_S
1775033277.6556108,2180,0,9_S
1775033277.660995,2058,0,9_S
1775033277.661529,1806,0,9_S
1775033277.66449,1802,0,9_S
1775033277.6674838,2013,0,9_S
1775033277.670493,2244,0,9_S
1775033277.677985,2188,0,9_S
1775033277.6801002,1912,0,9_S
1775033277.680383,1665,0,9_S
1775033277.683132,1739,0,9_S
1775033277.686123,1976,0,9_S
1775033277.688512,2228,0,9_S
1775033277.691474,2204,0,9_S
1775033277.698897,1943,0,9_S
1775033277.699785,1725,0,9_S
1775033277.701393,1944,0,9_S
1775033277.703804,2151,0,9_S
1775033277.709121,2218,0,9_S
1775033277.709561,2029,0,9_S
1775033277.7126348,1709,0,9_S
1775033277.715478,1863,0,9_S
1775033277.718613,1955,0,9_S
1775033277.72614,2157,0,9_S
1775033277.727798,2140,0,9_S
1775033277.7282,1906,0,9_S
1775033277.7336051,1768,0,9_S
1775033277.735902,2002,0,9_S
1775033277.736483,2137,0,9_S
1775033277.739723,2225,0,9_S
1775033277.7424798,2032,0,9_S
1775033277.74846,1745,0,9_S
1775033277.753995,1742,0,9_S
1775033277.7560031,2071,0,9_S
1775033277.75828,2227,0,9_S
1775033277.7587001,2193,0,9_S
1775033277.761013,1925,0,9_S
1775033277.7634828,1635,0,9_S
1775033277.766486,1821,0,9_S
1775033277.7700312,2114,0,9_S
1775033277.7753322,2185,0,9_S
1775033277.776254,2103,0,9_S
1775033277.78078,1799,0,9_S
1775033277.784361,1739,0,9_S
1775033277.786796,2033,0,9_S
1775033277.788866,2153,0,9_S
1775033277.790484,2272,0,9_S
1775033277.793582,1990,0,9_S
1775033277.799475,1711,0,9_S
1775033277.800838,1841,0,9_S
1775033277.808757,2019,0,9_S
1775033277.808981,2223,0,9_S
1775033277.809597,2160,0,9_S
1775033277.8116028,1894,0,9_S
1775033277.8144891,1720,0,9_S
1775033277.8176808,1947,0,9_S
1775033277.825072,2088,0,9_S
1775033277.8274088,2239,0,9_S
1775033277.8294542,1929,0,9_S
1775033277.829661,1785,0,9_S
1775033277.8328881,1868,0,9_S
1775033277.8375711,2040,0,9_S
1775033277.8399749,2178,0,9_S
1775033277.8414998,2115,0,9_S
1775033277.8480508,1795,0,9_S
1775033277.848495,1831,0,9_S
1775033277.851056,2011,0,9_S
1775033277.854153,2094,0,9_S
1775033277.856809,2192,0,9_S
1775033277.8609972,2008,0,9_S
1775033277.862378,1817,0,9_S
1775033277.8653738,1794,0,9_S
1775033277.8683531,2043,0,9_S
1775033277.874505,2222,0,9_S
1775033277.8749208,2181,0,9_S
1775033277.878508,1826,0,9_S
1775033277.880482,1726,0,9_S
1775033277.883919,1903,0,9_S
1775033277.886682,2164,0,9_S
1775033277.88939,2206,0,9_S
1775033277.8923562,2059,0,9_S
1775033277.898807,1738,0,9_S
1775033277.8992152,1789,0,9_S
1775033277.90141,2032,0,9_S
1775033277.9046452,2170,0,9_S
1775033277.9083571,2223,0,9_S
1775033277.9104252,1872,0,9_S
1775033277.9133718,1802,0,9_S
1775033277.916332,1874,0,9_S
1775033277.9195,2104,0,9_S
1775033277.924039,2203,0,9_S
1775033277.925834,2133,0,9_S
1775033277.929218,1821,0,9_S
1775033277.9328609,1789,0,9_S
1775033277.9349592,1994,0,9_S
1775033277.937524,2077,0,9_S
1775033277.940355,2272,0,9_S
1775033277.943369,1939,0,9_S
1775033277.948738,1723,0,9_S
1775033277.9494421,1813,0,9_S
1775033277.952415,2092,0,9_S
1775033277.955828,2187,0,9_S
1775033277.959635,2112,0,9_S
1775033277.96151,1832,0,9_S
1775033277.964444,1730,0,9_S
1775033277.9684181,1987,0,9_S
1775033277.970568,2163,0,9_S
1775033277.973373,2236,0,9_S
1775033277.9770381,1988,0,9_S
1775033277.979821,1783,0,9_S
1775033277.9823701,1863,0,9_S
1775033277.985323,2023,0,9_S
1775033277.9963698,2183,0,9_S
1775033278.001912,2135,0,9_S
1775033278.0037289,1876,0,9_S
1775033278.003909,1751,0,9_S
1775033278.003941,1918,0,9_S
1775033278.003967,2099,0,9_S
1775033278.006519,2210,0,9_S
1775033278.0120478,2034,0,9_S
1775033278.0125089,1712,0,9_S
1775033278.016024,1801,0,9_S
1775033278.018848,2021,0,9_S
1775033278.022209,2147,0,9_S
1775033278.024768,2168,0,9_S
1775033278.027381,1988,0,9_S
1775033278.0303411,1723,0,9_S
1775033278.035247,1911,0,9_S
1775033278.037426,2075,0,9_S
1775033278.039567,2259,0,9_S
1775033278.044033,2101,0,9_S
1775033278.0459461,1807,0,9_S
1775033278.048506,1779,0,9_S
1775033278.0513222,1964,0,9_S
1775033278.054357,2107,0,9_S
1775033278.0588539,2207,0,9_S
1775033278.0609138,1924,0,9_S
1775033278.0641322,1782,0,9_S
1775033278.06744,1932,0,9_S
1775033278.069272,2075,0,9_S
1775033278.072213,2198,0,9_S
1775033278.076034,2084,0,9_S
1775033278.081646,1812,0,9_S
1775033278.0820322,1733,0,9_S
1775033278.085498,1971,0,9_S
1775033278.0876281,2194,0,9_S
1775033278.090656,2222,0,9_S
1775033278.0934432,1867,0,9_S
1775033278.096249,1745,0,9_S
1775033278.099217,1895,0,9_S
1775033278.1048162,2123,0,9_S
1775033278.105549,2156,0,9_S
1775033278.1085749,2116,0,9_S
1775033278.1118562,1816,0,9_S
1775033278.115309,1766,0,9_S
1775033278.1178691,1953,0,9_S
1775033278.120428,2093,0,9_S
1775033278.123242,2232,0,9_S
1775033278.127502,2054,0,9_S
1775033278.130032,1759,0,9_S
1775033278.13287,1828,0,9_S
1775033278.136642,2001,0,9_S
1775033278.138464,2131,0,9_S
1775033278.143989,2172,0,9_S
1775033278.144254,1940,0,9_S
1775033278.1485949,1767,0,9_S
1775033278.153901,1902,0,9_S
1775033278.154913,2142,0,9_S
1775033278.161128,2172,0,9_S
1775033278.161314,2028,0,9_S
1775033278.162606,1747,0,9_S
1775033278.165236,1897,0,9_S
1775033278.168246,1955,0,9_S
1775033278.1762009,2099,0,9_S
1775033278.176331,2196,0,9_S
1775033278.177818,1878,0,9_S
1775033278.181209,1718,0,9_S
1775033278.183222,1924,0,9_S
1775033278.186201,2082,0,9_S
1775033278.1892512,2236,0,9_S
1775033278.192236,2094,0,9_S
1775033278.197182,1794,0,9_S
1775033278.19914,1733,0,9_S
1775033278.2021859,2065,0,9_S
1775033278.2052941,2159,0,9_S
1775033278.207236,2197,0,9_S
1775033278.210242,1893,0,9_S
1775033278.2132459,1725,0,9_S
1775033278.218602,1925,0,9_S
1775033278.2196429,2070,0,9_S
1775033278.222641,2196,0,9_S
1775033278.225565,2114,0,9_S
1775033278.2290812,1842,0,9_S
1775033278.23165,1758,0,9_S
1775033278.234316,2113,0,9_S
1775033278.237212,2024,0,9_S
1775033278.2414138,2235,0,9_S
1775033278.2433689,1980,0,9_S
1775033278.2467022,1675,0,9_S
1775033278.2498848,1861,0,9_S
1775033278.2524831,2107,0,9_S
1775033278.255272,2195,0,9_S
1775033278.25823,2159,0,9_S
1775033278.263287,1783,0,9_S
1775033278.2657459,1773,0,9_S
1775033278.267437,1982,0,9_S
1775033278.2702122,2205,0,9_S
1775033278.273563,2251,0,9_S
1775033278.276212,1902,0,9_S
1775033278.279232,1757,0,9_S
1775033278.28544,1838,0,9_S
1775033278.28641,2095,0,9_S
1775033278.2890801,2255,0,9_S
1775033278.292202,2090,0,9_S
1775033278.2942379,1780,0,9_S
1775033278.297214,1795,0,9_S
1775033278.3002062,1845,0,9_S
1775033278.303194,2130,0,9_S
1775033278.307591,2312,0,9_S
1775033278.3094559,2034,0,9_S
1775033278.312406,1688,0,9_S
1775033278.316053,1817,0,9_S
1775033278.31823,2038,0,9_S
1775033278.321242,2233,0,9_S
1775033278.324236,2256,0,9_S
1775033278.3298051,1810,0,9_S
1775033278.330802,1770,0,9_S
1775033278.3334851,1767,0,9_S
1775033278.336326,2163,0,9_S
1775033278.3397682,2281,0,9_S
1775033278.3423219,2061,0,9_S
1775033278.345076,1821,0,9_S
1775033278.348084,1785,0,9_S
1775033278.3522391,2013,0,9_S
1775033278.354166,2171,0,9_S
1775033278.357504,2182,0,9_S
1775033278.3603468,1875,0,9_S
1775033278.363123,1689,0,9_S
1775033278.366088,1907,0,9_S
1775033278.369079,2173,0,9_S
1775033278.373491,2071,0,9_S
1775033278.375631,2093,0,9_S
1775033278.378447,1780,0,9_S
1775033278.381629,1847,0,9_S
1775033278.3843489,2061,0,9_S
1775033278.387126,2216,0,9_S
1775033278.3901088,2232,0,9_S
1775033278.395978,1883,0,9_S
1775033278.3983529,1687,0,9_S
1775033278.4002602,1862,0,9_S
1775033278.402863,2209,0,9_S
1775033278.406386,2142,0,9_S
1775033278.40809,2112,0,9_S
1775033278.411084,1782,0,9_S
1775033278.4140859,1657,0,9_S
1775033278.4187431,1990,0,9_S
1775033278.4203498,2253,0,9_S
1775033278.42353,2188,0,9_S
1775033278.426555,1903,0,9_S
1775033278.429421,1810,0,9_S
1775033278.432153,1698,0,9_S
1775033278.435095,2129,0,9_S
1775033278.4393091,2294,0,9_S
1775033278.4416158,2158,0,9_S
1775033278.444606,1757,0,9_S
1775033278.447671,1789,0,9_S
1775033278.450322,1942,0,9_S
1775033278.453087,2325,0,9_S
1775033278.456119,2217,0,9_S
1775033278.460454,1835,0,9_S
1775033278.462513,1653,0,9_S
1775033278.4666471,1894,0,9_S
1775033278.468447,2306,0,9_S
1775033278.471107,1934,0,9_S
1775033278.515021,2493,0,9_S
1775033278.515625,1577,0,9_S
1775033278.515712,1780,0,9_S
1775033278.515745,2092,0,9_S
1775033278.5157719,1751,0,9_S
1775033278.515797,2658,0,9_S
1775033278.515973,1749,0,9_S
1775033278.516149,1983,0,9_S
1775033278.5161731,1924,0,9_S
1775033278.516198,1779,0,9_S
1775033278.516222,2383,0,9_S
1775033278.516245,2237,0,9_S
1775033278.516268,1912,0,9_S
1775033278.516294,1720,0,9_S
1775033278.516317,1271,0,9_S
1775033278.519118,2180,0,9_S
1775033278.522388,2480,0,9_S
1775033278.525107,2367,0,9_S
1775033278.528127,1512,0,9_S
1775033278.531112,1780,0,9_S
1775033278.534108,2199,0,9_S
1775033278.53865,2274,0,9_S
1775033278.540993,2104,0,9_S
1775033278.544523,2018,0,9_S
1775033278.547555,1860,0,9_S
1775033278.5493681,1627,0,9_S
1775033278.552066,2270,0,9_S
1775033278.55511,2195,0,9_S
1775033278.561306,2182,0,9_S
1775033278.561685,2009,0,9_S
1775033278.565341,1597,0,9_S
1775033278.567831,2035,0,9_S
1775033278.57112,2154,0,9_S
1775033278.573674,2261,0,9_S
1775033278.576118,1855,0,9_S
1775033278.579097,1564,0,9_S
1775033278.582345,1827,0,9_S
1775033278.585911,2024,0,9_S
1775033278.590538,2369,0,9_S
1775033278.592077,2270,0,9_S
1775033278.5946429,2042,0,9_S
1775033278.597195,1534,0,9_S
1775033278.600123,1882,0,9_S
1775033278.604008,2128,0,9_S
1775033278.6072052,2341,0,9_S
1775033278.610476,1822,0,9_S
1775033278.612292,1766,0,9_S
1775033278.615082,1765,0,9_S
1775033278.618094,2072,0,9_S
1775033278.621074,2210,0,9_S
1775033278.625223,2233,0,9_S
1775033278.6273541,1764,0,9_S
1775033278.6316311,1840,0,9_S
1775033278.634945,1904,0,9_S
1775033278.636234,2346,0,9_S
1775033278.639106,2025,0,9_S
1775033278.642071,2026,0,9_S
1775033278.6457138,1743,0,9_S
1775033278.6489758,1804,0,9_S
1775033278.652192,2012,0,9_S
1775033278.6540911,2220,0,9_S
1775033278.6571,2272,0,9_S
1775033278.660075,1682,0,9_S
1775033278.66314,1799,0,9_S
1775033278.6684191,1851,0,9_S
1775033278.670493,2218,0,9_S
1775033278.6721642,2339,0,9_S
1775033278.6758568,1974,0,9_S
1775033278.678648,1791,0,9_S
1775033278.681237,1686,0,9_S
1775033278.6844218,1987,0,9_S
1775033278.692121,2186,0,9_S
1775033278.695745,2327,0,9_S
1775033278.6958551,1770,0,9_S
1775033278.697189,1685,0,9_S
1775033278.700325,1842,0,9_S
1775033278.7020411,2188,0,9_S
1775033278.7049868,2166,0,9_S
1775033278.707963,2152,0,9_S
1775033278.7144692,1904,0,9_S
1775033278.714884,1738,0,9_S
1775033278.7176719,2015,0,9_S
1775033278.720601,2153,0,9_S
1775033278.724086,2132,0,9_S
1775033278.725951,1881,0,9_S
1775033278.729558,1683,0,9_S
1775033278.732131,1835,0,9_S
1775033278.7369258,2065,0,9_S
1775033278.7383108,2305,0,9_S
1775033278.741594,2133,0,9_S
1775033278.7444532,1898,0,9_S
1775033278.747194,1787,0,9_S
1775033278.749969,1997,0,9_S
1775033278.752946,2100,0,9_S
1775033278.758455,2144,0,9_S
1775033278.759508,2037,0,9_S
1775033278.76258,1803,0,9_S
1775033278.767435,1751,0,9_S
1775033278.767942,2032,0,9_S
1775033278.770998,2285,0,9_S
1775033278.773946,2104,0,9_S
1775033278.7785118,1846,0,9_S
1775033278.78065,1741,0,9_S
1775033278.783865,2135,0,9_S
1775033278.78674,2206,0,9_S
1775033278.789387,2103,0,9_S
1775033278.79201,1983,0,9_S
1775033278.794979,1838,0,9_S
1775033278.8001,1743,0,9_S
1775033278.80204,2082,0,9_S
1775033278.804227,2319,0,9_S
1775033278.8081028,2079,0,9_S
1775033278.809963,1492,0,9_S
1775033278.812979,1888,0,9_S
1775033278.8159769,2045,0,9_S
1775033278.8209999,2145,0,9_S
1775033278.8229911,2227,0,9_S
1775033278.825186,1878,0,9_S
1775033278.8291159,1802,0,9_S
1775033278.831017,1907,0,9_S
1775033278.833977,2075,0,9_S
1775033278.836967,2307,0,9_S
1775033278.842698,2045,0,9_S
1775033278.8430662,1744,0,9_S
1775033278.846271,1671,0,9_S
1775033278.848989,1953,0,9_S
1775033278.8522902,2187,0,9_S
1775033278.8549829,2238,0,9_S
1775033278.857972,2043,0,9_S
1775033278.8638778,1803,0,9_S
1775033278.864568,1683,0,9_S
1775033278.867059,1903,0,9_S
1775033278.8700721,2239,0,9_S
1775033278.8731468,2287,0,9_S
1775033278.87596,1958,0,9_S
1775033278.878989,1667,0,9_S
1775033278.884536,1836,0,9_S
1775033278.88553,2066,0,9_S
1775033278.888555,2139,0,9_S
1775033278.891298,2134,0,9_S
1775033278.894377,1855,0,9_S
1775033278.897086,1871,0,9_S
1775033278.8999622,1821,0,9_S
1775033278.905926,2248,0,9_S
1775033278.9062881,2305,0,9_S
1775033278.909913,1971,0,9_S
1775033278.912489,1721,0,9_S
1775033278.915892,1755,0,9_S
1775033278.9184582,2163,0,9_S
1775033278.9210198,2342,0,9_S
1775033278.926943,1926,0,9_S
1775033278.9278789,2097,0,9_S
1775033278.930963,1629,0,9_S
1775033278.933829,1932,0,9_S
1775033278.936943,2323,0,9_S
1775033278.9395049,2163,0,9_S
1775033278.9420831,2099,0,9_S
1775033278.9451032,1684,0,9_S
1775033278.948797,1846,0,9_S
1775033278.9519439,1880,0,9_S
1775033278.954957,2155,0,9_S
1775033278.9585211,2324,0,9_S
1775033278.9599621,1726,0,9_S
1775033278.962956,1782,0,9_S
1775033278.965858,1898,0,9_S
1775033278.969377,2010,0,9_S
1775033278.973595,2220,0,9_S
1775033278.9760761,2288,0,9_S
1775033278.97788,1674,0,9_S
1775033278.980843,1677,0,9_S
1775033278.984449,1907,0,9_S
1775033278.986996,2286,0,9_S
1775033278.993633,2333,0,9_S
1775033278.9951448,1859,0,9_S
1775033278.9969122,1648,0,9_S
1775033278.998849,1792,0,9_S
1775033279.001823,2115,0,9_S
1775033279.004856,2248,0,9_S
1775033279.0078652,2083,0,9_S
1775033279.0108259,1882,0,9_S
1775033279.016727,1890,0,9_S
1775033279.018423,1918,0,9_S
1775033279.02047,2122,0,9_S
1775033279.0231109,2372,0,9_S
1775033279.026741,1992,0,9_S
1775033279.0293078,1660,0,9_S
1775033279.031827,1918,0,9_S
1775033279.0348501,2176,0,9_S
1775033279.039707,2141,0,9_S
1775033279.042442,2149,0,9_S
1775033279.0441558,1721,0,9_S
1775033279.047824,1813,0,9_S
1775033279.050448,2011,0,9_S
1775033279.053072,2147,0,9_S
1775033279.055867,2343,0,9_S
1775033279.0671282,1819,0,9_S
1775033279.069223,1732,0,9_S
1775033279.07122,1830,0,9_S
1775033279.0715032,2165,0,9_S
1775033279.073194,2185,0,9_S
1775033279.073824,2201,0,9_S
1775033279.0768461,1797,0,9_S
1775033279.079882,1845,0,9_S
1775033279.084332,1989,0,9_S
1775033279.086835,2015,0,9_S
1775033279.089053,2190,0,9_S
1775033279.0932,2129,0,9_S
1775033279.094857,1806,0,9_S
1775033279.0978591,1654,0,9_S
1775033279.1008499,2099,0,9_S
1775033279.1061661,2206,0,9_S
1775033279.1089349,2181,0,9_S
1775033279.11075,1836,0,9_S
1775033279.115536,1727,0,9_S
1775033279.116349,1870,0,9_S
1775033279.118911,2154,0,9_S
1775033279.121852,2354,0,9_S
1775033279.1248488,2057,0,9_S
1775033279.133646,1734,0,9_S
1775033279.135809,1701,0,9_S
1775033279.136661,2035,0,9_S
1775033279.137506,2195,0,9_S
1775033279.141563,2228,0,9_S
1775033279.1435242,1878,0,9_S
1775033279.1462011,1851,0,9_S
1775033279.1535628,1896,0,9_S
1775033279.155332,1945,0,9_S
1775033279.156267,2293,0,9_S
1775033279.1589801,2206,0,9_S
1775033279.1611469,1822,0,9_S
1775033279.1639,1780,0,9_S
1775033279.16684,1927,0,9_S
1775033279.169827,2127,0,9_S
1775033279.1782012,2193,0,9_S
1775033279.178509,1959,0,9_S
1775033279.1804202,1569,0,9_S
1775033279.183725,1884,0,9_S
1775033279.186099,2148,0,9_S
1775033279.188017,2184,0,9_S
1775033279.190838,2168,0,9_S
1775033279.196952,1848,0,9_S
1775033279.197376,1785,0,9_S
1775033279.200955,2043,0,9_S
1775033279.203885,2127,0,9_S
1775033279.2061172,2289,0,9_S
1775033279.208833,1995,0,9_S
1775033279.211822,1612,0,9_S
1775033279.214847,1771,0,9_S
1775033279.220901,2129,0,9_S
1775033279.221375,2182,0,9_S
1775033279.224541,2096,0,9_S
1775033279.228365,1869,0,9_S
1775033279.230413,1776,0,9_S
1775033279.233207,1942,0,9_S
1775033279.2358122,2094,0,9_S
1775033279.238852,2364,0,9_S
1775033279.245446,1946,0,9_S
1775033279.245922,1793,0,9_S
1775033279.2478862,1746,0,9_S
1775033279.251461,1966,0,9_S
1775033279.254646,2176,0,9_S
1775033279.257403,2285,0,9_S
1775033279.259896,1821,0,9_S
1775033279.2628238,1649,0,9_S
1775033279.269699,2028,0,9_S
1775033279.269784,2139,0,9_S
1775033279.2719538,2201,0,9_S
1775033279.275327,2011,0,9_S
1775033279.278796,1771,0,9_S
1775033279.280864,1692,0,9_S
1775033279.28385,1987,0,9_S
1775033279.286816,2246,0,9_S
1775033279.293278,2238,0,9_S
1775033279.294333,1836,0,9_S
1775033279.296185,1628,0,9_S
1775033279.299799,2001,0,9_S
1775033279.30303,2117,0,9_S
1775033279.30487,2179,0,9_S
1775033279.307851,2187,0,9_S
1775033279.310839,1836,0,9_S
1775033279.313867,1650,0,9_S
1775033279.318319,2027,0,9_S
1775033279.320519,2125,0,9_S
1775033279.323939,2165,0,9_S
1775033279.3274848,1974,0,9_S
1775033279.329022,1701,0,9_S
1775033279.331844,1819,0,9_S
1775033279.3348029,2012,0,9_S
1775033279.337846,2312,0,9_S
1775033279.34306,2201,0,9_S
1775033279.345786,1862,0,9_S
1775033279.347679,1774,0,9_S
1775033279.3510542,1893,0,9_S
1775033279.353122,2138,0,9_S
1775033279.3560681,2245,0,9_S
1775033279.358826,2021,0,9_S
1775033279.3630779,1690,0,9_S
1775033279.364912,1754,0,9_S
1775033279.368295,1958,0,9_S
1775033279.371257,2169,0,9_S
1775033279.373774,2128,0,9_S
1775033279.376715,1906,0,9_S
1775033279.379853,1785,0,9_S
1775033279.382716,1884,0,9_S
1775033279.388629,2325,0,9_S
1775033279.389479,2158,0,9_S
1775033279.394218,1968,0,9_S
1775033279.3993611,1738,0,9_S
1775033279.400073,1761,0,9_S
1775033279.401939,1993,0,9_S
1775033279.403696,2215,0,9_S
1775033279.4106638,2224,0,9_S
1775033279.411482,1890,0,9_S
1775033279.413265,1670,0,9_S
1775033279.416706,1890,0,9_S
1775033279.420635,2176,0,9_S
1775033279.422803,2187,0,9_S
1775033279.4254851,2046,0,9_S
1775033279.428088,1873,0,9_S
1775033279.430777,1748,0,9_S
1775033279.4371169,1954,0,9_S
1775033279.437912,2200,0,9_S
1775033279.440675,2144,0,9_S
1775033279.446662,1906,0,9_S
1775033279.446892,1734,0,9_S
1775033279.44904,1939,0,9_S
1775033279.451752,2148,0,9_S
1775033279.4597461,2175,0,9_S
1775033279.46007,2022,0,9_S
1775033279.462371,1874,0,9_S
1775033279.4676428,1591,0,9_S
1775033279.467869,1970,0,9_S
1775033279.470068,2261,0,9_S
1775033279.4727428,2308,0,9_S
1775033279.475708,1941,0,9_S
1775033279.478709,1681,0,9_S
1775033279.4860969,1873,0,9_S
1775033279.48632,2066,0,9_S
1775033279.4885309,2177,0,9_S
1775033279.493654,2144,0,9_S
1775033279.493927,1846,0,9_S
1775033279.496788,1810,0,9_S
1775033279.4997141,1950,0,9_S
1775033279.507211,2079,0,9_S
1775033279.507492,2127,0,9_S
1775033279.509918,2039,0,9_S
1775033279.5119722,1843,0,9_S
1775033279.515979,1799,0,9_S
1775033279.518019,1900,0,9_S
1775033279.5207071,2245,0,9_S
1775033279.5236979,2199,0,9_S
1775033279.5266979,1842,0,9_S
1775033279.5326111,1716,0,9_S
1775033279.534691,1977,0,9_S
1775033279.537156,2183,0,9_S
1775033279.54232,2225,0,9_S
1775033279.5426319,1959,0,9_S
1775033279.544961,1765,0,9_S
1775033279.5477078,1804,0,9_S
1775033279.554275,2097,0,9_S
1775033279.556651,2261,0,9_S
1775033279.556882,2115,0,9_S
1775033279.56068,1772,0,9_S
1775033279.564928,1690,0,9_S
1775033279.5671208,1917,0,9_S
1775033279.568703,2261,0,9_S
1775033279.571738,2313,0,9_S
1775033279.574702,2025,0,9_S
1775033279.582659,1758,0,9_S
1775033279.582826,1663,0,9_S
1775033279.584981,1840,0,9_S
1775033279.588379,2269,0,9_S
1775033279.591008,2302,0,9_S
1775033279.593869,1888,0,9_S
1775033279.595953,1679,0,9_S
1775033279.598709,2055,0,9_S
1775033279.60544,2077,0,9_S
1775033279.606328,2196,0,9_S
1775033279.609331,2133,0,9_S
1775033279.6112158,1809,0,9_S
1775033279.615826,1730,0,9_S
1775033279.61803,2039,0,9_S
1775033279.619693,2125,0,9_S
1775033279.623471,2198,0,9_S
1775033279.6261382,1998,0,9_S
1775033279.633318,1725,0,9_S
1775033279.634353,1948,0,9_S
1775033279.6359491,2165,0,9_S
1775033279.6388412,2152,0,9_S
1775033279.641927,2066,0,9_S
1775033279.646355,1706,0,9_S
1775033279.646703,1626,0,9_S
1775033279.6496892,1990,0,9_S
1775033279.655293,2079,0,9_S
1775033279.6561449,2232,0,9_S
1775033279.660306,2112,0,9_S
1775033279.6639628,1879,0,9_S
1775033279.66633,1896,0,9_S
1775033279.668586,1972,0,9_S
1775033279.671324,2211,0,9_S
1775033279.674048,2135,0,9_S
1775033279.676728,1855,0,9_S
1775033279.684447,1657,0,9_S
1775033279.685853,1805,0,9_S
1775033279.686101,2091,0,9_S
1775033279.6904068,2263,0,9_S
1775033279.6919801,2056,0,9_S
1775033279.6963341,1888,0,9_S
1775033279.69772,1861,0,9_S
1775033279.700725,2009,0,9_S
1775033279.704581,2201,0,9_S
1775033279.707534,2228,0,9_S
1775033279.710418,1893,0,9_S
1775033279.712768,1735,0,9_S
1775033279.716916,1936,0,9_S
1775033279.7187252,2060,0,9_S
1775033279.721718,2106,0,9_S
1775033279.724691,1998,0,9_S
1775033279.730485,1779,0,9_S
1775033279.731246,1755,0,9_S
1775033279.734185,1969,0,9_S
1775033279.737289,2166,0,9_S
1775033279.7397308,2283,0,9_S
1775033279.742719,2008,0,9_S
1775033279.745692,1748,0,9_S
1775033279.748698,1846,0,9_S
1775033279.754699,2096,0,9_S
1775033279.755095,2286,0,9_S
1775033279.758826,2163,0,9_S
1775033279.760986,1825,0,9_S
1775033279.7643661,1669,0,9_S
1775033279.7672021,1875,0,9_S
1775033279.769753,2162,0,9_S
1775033279.773588,2272,0,9_S
1775033279.776086,1930,0,9_S
1775033279.7799082,1770,0,9_S
1775033279.782481,1826,0,9_S
1775033279.785264,2070,0,9_S
1775033279.787621,2257,0,9_S
1775033279.791668,2150,0,9_S
1775033279.794235,1858,0,9_S
1775033279.796789,1725,0,9_S
1775033279.7996008,1899,0,9_S
1775033279.807147,2150,0,9_S
1775033279.808268,2238,0,9_S
1775033279.8087559,2059,0,9_S
1775033279.818901,1754,0,9_S
1775033279.833311,1773,0,9_S
1775033279.833822,2017,0,9_S
1775033279.8344011,2239,0,9_S
1775033279.8486788,2176,0,9_S
1775033279.8536682,1884,0,9_S
1775033279.856228,1709,0,9_S
1775033279.856544,1840,0,9_S
1775033279.856599,2134,0,9_S
1775033279.856906,2172,0,9_S
1775033279.85736,2100,0,9_S
1775033279.857576,1808,0,9_S
1775033279.857738,1751,0,9_S
1775033279.858094,2003,0,9_S
1775033279.858123,2210,0,9_S
1775033279.8585038,2273,0,9_S
1775033279.860546,1956,0,9_S
1775033279.86332,1761,0,9_S
1775033279.871918,1880,0,9_S
1775033279.872044,2082,0,9_S
1775033279.872451,2205,0,9_S
1775033279.8792472,2104,0,9_S
1775033279.879334,1790,0,9_S
1775033279.881592,1708,0,9_S
1775033279.883585,1966,0,9_S
1775033279.88657,2069,0,9_S
1775033279.8920052,2247,0,9_S
1775033279.8943481,1960,0,9_S
1775033279.8997571,1704,0,9_S
1775033279.899787,1896,0,9_S
1775033279.902493,2146,0,9_S
1775033279.905518,2228,0,9_S
1775033279.908105,2097,0,9_S
1775033279.910857,1849,0,9_S
1775033279.918404,1746,0,9_S
1775033279.9229891,1947,0,9_S
1775033279.928214,2066,0,9_S
1775033279.9306722,2196,0,9_S
1775033279.930836,1989,0,9_S
1775033279.93111,1810,0,9_S
1775033279.931689,1894,0,9_S
1775033279.9347498,2051,0,9_S
1775033279.945524,2127,0,9_S
1775033279.953546,2210,0,9_S
1775033279.953642,1919,0,9_S
1775033279.953699,1785,0,9_S
1775033279.953752,1933,0,9_S
1775033279.954658,2087,0,9_S
1775033279.9567208,2152,0,9_S
1775033279.9591832,2007,0,9_S
1775033279.969275,1818,0,9_S
1775033279.998337,1815,0,9_S
1775033279.998395,2026,0,9_S
1775033280.0044968,2159,0,9_S
1775033280.012383,2148,0,9_S
1775033280.012444,1894,0,9_S
1775033280.0124748,1725,0,9_S
1775033280.012501,1932,0,9_S
1775033280.012526,2152,0,9_S
1775033280.012558,2235,0,9_S
1775033280.012583,2084,0,9_S
1775033280.012608,1755,0,9_S
1775033280.012631,1760,0,9_S
1775033280.012655,2062,0,9_S
1775033280.0306811,2126,0,9_S
1775033280.030745,2210,0,9_S
1775033280.0307782,1930,0,9_S
1775033280.030805,1725,0,9_S
1775033280.030832,1885,0,9_S
1775033280.030858,2064,0,9_S
1775033280.0308821,2271,0,9_S
1775033280.03457,2082,0,9_S
1775033280.03509,1800,0,9_S
1775033280.03512,1733,0,9_S
1775033280.035272,1968,0,9_S
1775033280.036812,2169,0,9_S
1775033280.0576031,2253,0,9_S
1775033280.0584252,1941,0,9_S
1775033280.0586529,1721,0,9_S
1775033280.0609128,1852,0,9_S
1775033280.0610828,2091,0,9_S
1775033280.061406,2204,0,9_S
1775033280.061634,2101,0,9_S
1775033280.061663,1840,0,9_S
1775033280.063794,1774,0,9_S
1775033280.066889,1937,0,9_S
1775033280.071722,2105,0,9_S
1775033280.079276,2243,0,9_S
1775033280.08075,2030,0,9_S
1775033280.082457,1752,0,9_S
1775033280.082905,1845,0,9_S
1775033280.084828,2025,0,9_S
1775033280.087923,2195,0,9_S
1775033280.090755,2194,0,9_S
1775033280.093514,1870,0,9_S
1775033280.097984,1781,0,9_S
1775033280.100225,1875,0,9_S
1775033280.103376,2114,0,9_S
1775033280.106726,2265,0,9_S
1775033280.108722,2082,0,9_S
1775033280.111446,1787,0,9_S
1775033280.1151428,1801,0,9_S
1775033280.117835,1962,0,9_S
1775033280.122103,2212,0,9_S
1775033280.124053,2228,0,9_S
1775033280.1274502,1864,0,9_S
1775033280.1311018,1795,0,9_S
1775033280.133087,1853,0,9_S
1775033280.135642,2107,0,9_S
1775033280.138426,2142,0,9_S
1775033280.141458,2085,0,9_S
1775033280.1464581,1788,0,9_S
1775033280.1482549,1842,0,9_S
1775033280.1514199,1964,0,9_S
1775033280.154911,2117,0,9_S
1775033280.1566348,2250,0,9_S
1775033280.159471,1897,0,9_S
1775033280.162432,1829,0,9_S
1775033280.169069,1798,0,9_S
1775033280.1694899,2100,0,9_S
1775033280.172707,2225,0,9_S
1775033280.174936,2134,0,9_S
1775033280.178077,1840,0,9_S
1775033280.180902,1733,0,9_S
1775033280.183467,2003,0,9_S
1775033280.186431,2218,0,9_S
1775033280.1922402,2107,0,9_S
1775033280.1933749,1934,0,9_S
1775033280.196241,1802,0,9_S
1775033280.199182,1832,0,9_S
1775033280.20284,2086,0,9_S
1775033280.2044659,2193,0,9_S
1775033280.207463,2088,0,9_S
1775033280.210453,1805,0,9_S
1775033280.214836,1777,0,9_S
1775033280.217298,2024,0,9_S
1775033280.221046,2137,0,9_S
1775033280.224154,2189,0,9_S
1775033280.225635,1962,0,9_S
1775033280.22856,1751,0,9_S
1775033280.231454,1900,0,9_S
1775033280.237621,2039,0,9_S
1775033280.23839,2225,0,9_S
1775033280.241287,2154,0,9_S
1775033280.244433,1850,0,9_S
1775033280.246506,1747,0,9_S
1775033280.249453,1932,0,9_S
1775033280.2524219,2036,0,9_S
1775033280.2554219,2269,0,9_S
1775033280.259695,2009,0,9_S
1775033280.2617788,1708,0,9_S
1775033280.265005,1791,0,9_S
1775033280.268022,2081,0,9_S
1775033280.27071,2211,0,9_S
1775033280.273461,2187,0,9_S
1775033280.276421,1914,0,9_S
1775033280.280888,1714,0,9_S
1775033280.283224,1981,0,9_S
1775033280.2858748,2132,0,9_S
1775033280.28961,2225,0,9_S
1775033280.2915971,2036,0,9_S
1775033280.295679,1697,0,9_S
1775033280.2985642,1866,0,9_S
1775033280.3037062,1949,0,9_S
1775033280.304854,2091,0,9_S
1775033280.3066728,2133,0,9_S
1775033280.310146,1894,0,9_S
1775033280.3151062,1730,0,9_S
1775033280.315448,1920,0,9_S
1775033280.318462,2121,0,9_S
1775033280.3215969,2214,0,9_S
1775033280.328012,2281,0,9_S
1775033280.330077,1867,0,9_S
1775033280.332654,1668,0,9_S
1775033280.334964,1995,0,9_S
1775033280.337022,2196,0,9_S
1775033280.3395998,2201,0,9_S
1775033280.342423,1907,0,9_S
1775033280.345464,1788,0,9_S
1775033280.3512661,1813,0,9_S
1775033280.352053,1875,0,9_S
1775033280.3551328,2301,0,9_S
1775033280.358042,2166,0,9_S
1775033280.3613381,1880,0,9_S
1775033280.3639061,1859,0,9_S
1775033280.3664808,1983,0,9_S
1775033280.369421,2082,0,9_S
1775033280.3735502,2259,0,9_S
1775033280.375804,1895,0,9_S
1775033280.378997,1699,0,9_S
1775033280.382143,1963,0,9_S
1775033280.384866,1936,0,9_S
1775033280.387468,2136,0,9_S
1775033280.3904681,2038,0,9_S
1775033280.396596,1843,0,9_S
1775033280.3969998,1733,0,9_S
1775033280.400339,2052,0,9_S
1775033280.4032829,2154,0,9_S
1775033280.40659,2253,0,9_S
1775033280.408427,2190,0,9_S
1775033280.411422,1550,0,9_S
1775033280.4143329,1812,0,9_S
1775033280.419362,2042,0,9_S
1775033280.4214442,2249,0,9_S
1775033280.424027,1986,0,9_S
1775033280.427857,1804,0,9_S
1775033280.429665,1774,0,9_S
1775033280.4323351,1861,0,9_S
1775033280.435294,2165,0,9_S
1775033280.4419851,2328,0,9_S
1775033280.442056,1983,0,9_S
1775033280.4452522,1639,0,9_S
1775033280.44837,1657,0,9_S
1775033280.4503932,2217,0,9_S
1775033280.453324,2099,0,9_S
1775033280.4563358,2268,0,9_S
1775033280.4598389,1850,0,9_S
1775033280.464491,1704,0,9_S
1775033280.467318,2071,0,9_S
1775033280.468829,2154,0,9_S
1775033280.472718,2256,0,9_S
1775033280.4744442,2006,0,9_S
1775033280.477325,1610,0,9_S
1775033280.480296,1987,0,9_S
1775033280.486089,1918,0,9_S
1775033280.486466,2219,0,9_S
1775033280.489511,1793,0,9_S
1775033280.493855,2249,0,9_S
1775033280.49567,1672,0,9_S
1775033280.498324,1849,0,9_S
1775033280.501347,2183,0,9_S
1775033280.506774,2350,0,9_S
1775033280.5080278,2045,0,9_S
1775033280.5109088,1591,0,9_S
1775033280.515476,1746,0,9_S
1775033280.517079,2055,0,9_S
1775033280.5196319,2154,0,9_S
1775033280.52233,2010,0,9_S
1775033280.528308,1938,0,9_S
1775033280.528645,1797,0,9_S
1775033280.5323489,1717,0,9_S
1775033280.5353699,2074,0,9_S
1775033280.537371,2189,0,9_S
1775033280.540322,2268,0,9_S
1775033280.543296,1796,0,9_S
1775033280.546328,1779,0,9_S
1775033280.5503418,2117,0,9_S
1775033280.552393,2036,0,9_S
1775033280.555565,2287,0,9_S
1775033280.5601,1938,0,9_S
1775033280.561397,1770,0,9_S
1775033280.564333,1918,0,9_S
1775033280.5673301,2023,0,9_S
1775033280.571264,2152,0,9_S
1775033280.573409,2048,0,9_S
1775033280.576531,1934,0,9_S
1775033280.579608,1695,0,9_S
1775033280.5823228,1966,0,9_S
1775033280.58529,2227,0,9_S
1775033280.588338,2077,0,9_S
1775033280.592963,2087,0,9_S
1775033280.594785,1713,0,9_S
1775033280.5975602,1821,0,9_S
1775033280.600851,2036,0,9_S
1775033280.603482,2059,0,9_S
1775033280.606297,2199,0,9_S
1775033280.609327,1917,0,9_S
1775033280.614089,1934,0,9_S
1775033280.6159968,1924,0,9_S
1775033280.619054,2004,0,9_S
1775033280.621859,2284,0,9_S
1775033280.6244721,2156,0,9_S
1775033280.627811,1832,0,9_S
1775033280.630389,1759,0,9_S
1775033280.63652,1958,0,9_S
1775033280.6366148,2163,0,9_S
1775033280.640364,2286,0,9_S
1775033280.6425111,1750,0,9_S
1775033280.645958,1874,0,9_S
1775033280.648515,1920,0,9_S
1775033280.651284,2090,0,9_S
1775033280.654304,2171,0,9_S
1775033280.658325,2133,0,9_S
1775033280.660355,1852,0,9_S
1775033280.663692,1748,0,9_S
1775033280.6664839,1891,0,9_S
1775033280.669301,2162,0,9_S
1775033280.672297,2079,0,9_S
1775033280.675307,1965,0,9_S
1775033280.67977,1809,0,9_S
1775033280.681752,1904,0,9_S
1775033280.685251,2026,0,9_S
1775033280.688354,2123,0,9_S
1775033280.6909308,2203,0,9_S
1775033280.6934998,1828,0,9_S
1775033280.6964202,1804,0,9_S
1775033280.711691,1909,0,9_S
1775033280.7121432,2085,0,9_S
1775033280.714192,2248,0,9_S
1775033280.714315,1967,0,9_S
1775033280.714402,1795,0,9_S
1775033280.714553,1841,0,9_S
1775033280.71733,2062,0,9_S
1775033280.720432,2228,0,9_S
1775033280.731031,2164,0,9_S
1775033280.731732,1822,0,9_S
1775033280.732697,1791,0,9_S
1775033280.733865,1963,0,9_S
1775033280.736338,2102,0,9_S
1775033280.738393,2051,0,9_S
1775033280.741329,2054,0,9_S
1775033280.744328,1817,0,9_S
1775033280.750489,1760,0,9_S
1775033280.75057,2056,0,9_S
1775033280.753898,2191,0,9_S
1775033280.758163,2146,0,9_S
1775033280.7599769,1979,0,9_S
1775033280.7625291,1803,0,9_S
1775033280.765206,1814,0,9_S
1775033280.77109,2148,0,9_S
1775033280.771716,2208,0,9_S
1775033280.775337,2069,0,9_S
1775033280.779625,1866,0,9_S
1775033280.781389,1806,0,9_S
1775033280.783937,1969,0,9_S
1775033280.786525,2132,0,9_S
1775033280.789215,2182,0,9_S
1775033280.793132,1975,0,9_S
1775033280.7963562,1806,0,9_S
1775033280.80086,1794,0,9_S
1775033280.802235,2084,0,9_S
1775033280.8048,2164,0,9_S
1775033280.8073568,2185,0,9_S
1775033280.8101819,1910,0,9_S
1775033280.813792,1655,0,9_S
1775033280.818611,1789,0,9_S
1775033280.8206038,2168,0,9_S
1775033280.822479,2166,0,9_S
1775033280.825275,2121,0,9_S
1775033280.828186,1825,0,9_S
1775033280.83118,1742,0,9_S
1775033280.835265,1833,0,9_S
1775033280.837396,2267,0,9_S
1775033280.840585,2372,0,9_S
1775033280.843642,1697,0,9_S
1775033280.846364,1723,0,9_S
1775033280.849174,1832,0,9_S
1775033280.852198,2201,0,9_S
1775033280.8565278,2163,0,9_S
1775033280.859968,2027,0,9_S
1775033280.861692,1704,0,9_S
1775033280.8647208,1859,0,9_S
1775033280.867278,2070,0,9_S
1775033280.870167,2163,0,9_S
1775033280.8732002,2150,0,9_S
1775033280.882525,1913,0,9_S
1775033280.8826509,1708,0,9_S
1775033280.884192,1904,0,9_S
1775033280.885983,2065,0,9_S
1775033280.888593,2193,0,9_S
1775033280.891205,2110,0,9_S
1775033280.8941739,1760,0,9_S
1775033280.900129,1828,0,9_S
1775033280.902082,1905,0,9_S
1775033280.903758,2148,0,9_S
1775033280.9083421,2318,0,9_S
1775033280.9097621,1847,0,9_S
1775033280.9123251,1802,0,9_S
1775033280.915179,1904,0,9_S
1775033280.9181912,2015,0,9_S
1775033280.921906,2323,0,9_S
1775033280.9246101,2032,0,9_S
1775033280.9280798,1783,0,9_S
1775033280.931186,1780,0,9_S
1775033280.933743,1981,0,9_S
1775033280.9363241,2181,0,9_S
1775033280.939258,2162,0,9_S
1775033280.942166,2013,0,9_S
1775033280.94656,1736,0,9_S
1775033280.9487941,1904,0,9_S
1775033280.95464,2036,0,9_S
1775033280.9547489,2229,0,9_S
1775033280.957304,2077,0,9_S
1775033280.960208,1753,0,9_S
1775033280.9632041,1813,0,9_S
1775033280.9697301,2014,0,9_S
1775033280.970921,2184,0,9_S
1775033280.973414,2173,0,9_S
1775033280.9771771,1994,0,9_S
1775033280.978969,1851,0,9_S
1775033280.981531,1794,0,9_S
1775033280.984201,1996,0,9_S
1775033280.9901462,2193,0,9_S
1775033280.990762,2161,0,9_S
1775033280.9943411,1810,0,9_S
1775033280.9970958,1675,0,9_S
1775033281.0001762,1922,0,9_S
1775033281.002204,2179,0,9_S
1775033281.005174,2229,0,9_S
1775033281.0081642,2045,0,9_S
1775033281.0152361,1756,0,9_S
1775033281.015455,1878,0,9_S
1775033281.018142,2047,0,9_S
1775033281.020776,2257,0,9_S
1775033281.024323,2084,0,9_S
1775033281.026736,1961,0,9_S
1775033281.029323,1750,0,9_S
1775033281.032183,1863,0,9_S
1775033281.0403671,2130,0,9_S
1775033281.042131,2261,0,9_S
1775033281.043345,1940,0,9_S
1775033281.04616,1890,0,9_S
1775033281.048227,1926,0,9_S
1775033281.050282,1965,0,9_S
1775033281.053183,2099,0,9_S
1775033281.058254,2173,0,9_S
1775033281.060575,2009,0,9_S
1775033281.062903,1780,0,9_S
1775033281.065851,1866,0,9_S
1775033281.0698318,2077,0,9_S
1775033281.071261,2132,0,9_S
1775033281.074188,2095,0,9_S
1775033281.077178,1782,0,9_S
1775033281.082905,1880,0,9_S
1775033281.084794,2080,0,9_S
1775033281.087948,2059,0,9_S
1775033281.091842,2173,0,9_S
1775033281.0922282,1936,0,9_S
1775033281.095181,1778,0,9_S
1775033281.0982,2001,0,9_S
1775033281.101173,1846,0,9_S
1775033281.1095948,2260,0,9_S
1775033281.1127748,2109,0,9_S
1775033281.114512,1813,0,9_S
1775033281.1170151,1639,0,9_S
1775033281.119222,1964,0,9_S
1775033281.11935,2050,0,9_S
1775033281.122278,2273,0,9_S
1775033281.1251462,2033,0,9_S
1775033281.1314719,1776,0,9_S
1775033281.131837,1957,0,9_S
1775033281.13555,2200,0,9_S
1775033281.1387641,2175,0,9_S
1775033281.140678,1995,0,9_S
1775033281.143306,1933,0,9_S
1775033281.146063,1632,0,9_S
1775033281.1497889,1969,0,9_S
1775033281.155672,2043,0,9_S
1775033281.1573682,2146,0,9_S
1775033281.1594188,1989,0,9_S
1775033281.161108,1757,0,9_S
1775033281.164704,1945,0,9_S
1775033281.167443,2066,0,9_S
1775033281.1700952,2161,0,9_S
1775033281.1730392,2196,0,9_S
1775033281.179551,1870,0,9_S
1775033281.180588,1823,0,9_S
1775033281.182105,1847,0,9_S
1775033281.1857972,2160,0,9_S
1775033281.189186,2291,0,9_S
1775033281.1910589,2056,0,9_S
1775033281.194071,1758,0,9_S
1775033281.197076,1800,0,9_S
1775033281.200129,1878,0,9_S
1775033281.204722,2373,0,9_S
1775033281.20661,2164,0,9_S
1775033281.2098901,1772,0,9_S
1775033281.213253,1733,0,9_S
1775033281.215297,1841,0,9_S
1775033281.218056,2093,0,9_S
1775033281.221047,2386,0,9_S
1775033281.224213,2027,0,9_S
1775033281.228076,1725,0,9_S
1775033281.2306461,1863,0,9_S
1775033281.234123,2089,0,9_S
1775033281.237476,2160,0,9_S
1775033281.2396631,2182,0,9_S
1775033281.242228,1860,0,9_S
1775033281.245074,1687,0,9_S
1775033281.2480729,1941,0,9_S
1775033281.253437,2106,0,9_S
1775033281.254261,2145,0,9_S
1775033281.2575722,2059,0,9_S
1775033281.263062,1717,0,9_S
1775033281.263233,1823,0,9_S
1775033281.266073,2048,0,9_S
1775033281.269105,2184,0,9_S
1775033281.272043,2212,0,9_S
1775033281.278937,1961,0,9_S
1775033281.2794209,1807,0,9_S
1775033281.281676,1815,0,9_S
1775033281.284912,1983,0,9_S
1775033281.2870421,2176,0,9_S
1775033281.2910342,2173,0,9_S
1775033281.293612,1899,0,9_S
1775033281.2996428,1868,0,9_S
1775033281.2997398,1946,0,9_S
1775033281.303495,2070,0,9_S
1775033281.305553,2259,0,9_S
1775033281.309003,1976,0,9_S
1775033281.3110359,1766,0,9_S
1775033281.314038,1761,0,9_S
1775033281.317034,1988,0,9_S
1775033281.320051,2140,0,9_S
1775033281.325811,2277,0,9_S
1775033281.328148,1829,0,9_S
1775033281.330121,1724,0,9_S
1775033281.333583,1952,0,9_S
1775033281.335705,2125,0,9_S
1775033281.3385038,2217,0,9_S
1775033281.341137,2075,0,9_S
1775033281.346813,1747,0,9_S
1775033281.349267,1798,0,9_S
1775033281.352274,2031,0,9_S
1775033281.3565829,2187,0,9_S
1775033281.357215,2200,0,9_S
1775033281.3592331,1926,0,9_S
1775033281.3620448,1726,0,9_S
1775033281.3650408,1889,0,9_S
1775033281.368039,2162,0,9_S
1775033281.373228,2178,0,9_S
1775033281.375701,2039,0,9_S
1775033281.378609,1713,0,9_S
1775033281.3834271,1834,0,9_S
1775033281.383639,1977,0,9_S
1775033281.3866339,2154,0,9_S
1775033281.389301,2192,0,9_S
1775033281.3939059,1953,0,9_S
1775033281.396582,1744,0,9_S
1775033281.398997,1844,0,9_S
1775033281.404018,2176,0,9_S
1775033281.404427,2204,0,9_S
1775033281.4077241,2109,0,9_S
1775033281.410322,1856,0,9_S
1775033281.4131598,1759,0,9_S
1775033281.4200819,2008,0,9_S
1775033281.4205902,2100,0,9_S
1775033281.422569,2220,0,9_S
1775033281.425529,1921,0,9_S
1775033281.4301782,1745,0,9_S
1775033281.432023,1818,0,9_S
1775033281.434783,1987,0,9_S
1775033281.44273,2204,0,9_S
1775033281.4464772,2153,0,9_S
1775033281.44661,1914,0,9_S
1775033281.44993,1750,0,9_S
1775033281.450516,1852,0,9_S
1775033281.4549088,2095,0,9_S
1775033281.455318,2304,0,9_S
1775033281.458294,1977,0,9_S
1775033281.461051,1691,0,9_S
1775033281.46392,1844,0,9_S
1775033281.466934,2115,0,9_S
1775033281.475142,2143,0,9_S
1775033281.477102,2165,0,9_S
1775033281.4776971,1903,0,9_S
1775033281.480287,1724,0,9_S
1775033281.484407,1915,0,9_S
1775033281.487062,2092,0,9_S
1775033281.48845,2209,0,9_S
1775033281.491157,2022,0,9_S
1775033281.496942,1661,0,9_S
1775033281.497771,1808,0,9_S
1775033281.502591,2041,0,9_S
1775033281.503529,2221,0,9_S
1775033281.507607,2259,0,9_S
1775033281.509835,1885,0,9_S
1775033281.5125508,1653,0,9_S
1775033281.516455,1979,0,9_S
1775033281.517934,2175,0,9_S
1775033281.5261528,2206,0,9_S
1775033281.529053,2080,0,9_S
1775033281.5300422,1812,0,9_S
1775033281.530536,1733,0,9_S
1775033281.5340328,2159,0,9_S
1775033281.536654,2207,0,9_S
1775033281.53942,2101,0,9_S
1775033281.5420039,1736,0,9_S
1775033281.5486798,1647,0,9_S
1775033281.550904,1874,0,9_S
1775033281.554226,2150,0,9_S
1775033281.555561,2101,0,9_S
1775033281.557268,2093,0,9_S
1775033281.559962,1880,0,9_S
1775033281.562933,1822,0,9_S
1775033281.5659578,2019,0,9_S
1775033281.568929,2142,0,9_S
1775033281.571989,2238,0,9_S
1775033281.576847,2074,0,9_S
1775033281.579403,1813,0,9_S
1775033281.58197,1629,0,9_S
1775033281.5853171,1943,0,9_S
1775033281.587677,2195,0,9_S
1775033281.589953,2258,0,9_S
1775033281.5929139,1965,0,9_S
1775033281.599957,1718,0,9_S
1775033281.601341,1857,0,9_S
1775033281.603269,2117,0,9_S
1775033281.6058822,2194,0,9_S
1775033281.609623,1944,0,9_S
1775033281.611954,1750,0,9_S
1775033281.6139252,1897,0,9_S
1775033281.616939,2072,0,9_S
1775033281.619919,2043,0,9_S
1775033281.626122,2177,0,9_S
1775033281.6269052,1957,0,9_S
1775033281.629183,1860,0,9_S
1775033281.632322,1909,0,9_S
1775033281.636919,2111,0,9_S
1775033281.638996,2213,0,9_S
1775033281.6415832,2060,0,9_S
1775033281.6476119,1794,0,9_S
1775033281.6480808,1830,0,9_S
1775033281.651936,2010,0,9_S
1775033281.654048,2234,0,9_S
1775033281.657863,2178,0,9_S
1775033281.660078,1833,0,9_S
1775033281.661941,1760,0,9_S
1775033281.664911,1939,0,9_S
1775033281.6679292,2072,0,9_S
1775033281.673905,2099,0,9_S
1775033281.6739829,2074,0,9_S
1775033281.6779652,1844,0,9_S
1775033281.6799748,1890,0,9_S
1775033281.6836102,2037,0,9_S
1775033281.68629,2111,0,9_S
1775033281.688954,2122,0,9_S
1775033281.691941,1974,0,9_S
1775033281.698045,1749,0,9_S
1775033281.698488,1901,0,9_S
1775033281.7010229,2056,0,9_S
1775033281.7042282,2186,0,9_S
1775033281.70822,2035,0,9_S
1775033281.7101781,1891,0,9_S
1775033281.712946,1727,0,9_S
1775033281.715944,1940,0,9_S
1775033281.725163,2208,0,9_S
1775033281.726722,2236,0,9_S
1775033281.726836,1993,0,9_S
1775033281.728768,1739,0,9_S
1775033281.7318652,1801,0,9_S
1775033281.733943,1997,0,9_S
1775033281.736895,2262,0,9_S
1775033281.7398999,2143,0,9_S
1775033281.742908,1918,0,9_S
1775033281.749669,1761,0,9_S
1775033281.751667,1922,0,9_S
1775033281.751843,2068,0,9_S
1775033281.755612,2159,0,9_S
1775033281.75884,2068,0,9_S
1775033281.760927,1784,0,9_S
1775033281.763795,1767,0,9_S
1775033281.768903,2014,0,9_S
1775033281.771286,2199,0,9_S
1775033281.773488,2137,0,9_S
1775033281.776448,1848,0,9_S
1775033281.779961,1754,0,9_S
1775033281.782527,1960,0,9_S
1775033281.784844,2113,0,9_S
1775033281.787804,2207,0,9_S
1775033281.793192,2079,0,9_S
1775033281.795508,1808,0,9_S
1775033281.7969642,1803,0,9_S
1775033281.800243,1953,0,9_S
1775033281.803947,2133,0,9_S
1775033281.805831,2191,0,9_S
1775033281.808819,1929,0,9_S
1775033281.811787,1704,0,9_S
1775033281.816007,1903,0,9_S
1775033281.818312,2046,0,9_S
1775033281.821877,2213,0,9_S
1775033281.825024,2148,0,9_S
1775033281.826872,1846,0,9_S
1775033281.830057,1744,0,9_S
1775033281.832785,1946,0,9_S
1775033281.8357801,2096,0,9_S
1775033281.840967,2198,0,9_S
1775033281.842391,1984,0,9_S
1775033281.847296,1779,0,9_S
1775033281.849427,1837,0,9_S
1775033281.851159,2146,0,9_S
1775033281.8538282,2211,0,9_S
1775033281.856816,2159,0,9_S
1775033281.859788,1856,0,9_S
1775033281.864372,1784,0,9_S
1775033281.866653,1974,0,9_S
1775033281.8698828,2021,0,9_S
1775033281.873358,2170,0,9_S
1775033281.875502,1927,0,9_S
1775033281.878057,1715,0,9_S
1775033281.8807838,1826,0,9_S
1775033281.883819,2121,0,9_S
1775033281.888326,2204,0,9_S
1775033281.890356,2153,0,9_S
1775033281.893426,1898,0,9_S
1775033281.8971379,1751,0,9_S
1775033281.898983,1966,0,9_S
1775033281.901804,2098,0,9_S
1775033281.904809,2193,0,9_S
1775033281.911259,1999,0,9_S
1775033281.911377,1733,0,9_S
1775033281.915106,1803,0,9_S
1775033281.917058,2047,0,9_S
1775033281.920469,2265,0,9_S
1775033281.92313,2211,0,9_S
1775033281.925872,1887,0,9_S
1775033281.928776,1743,0,9_S
1775033281.9368792,1913,0,9_S
1775033281.937031,2089,0,9_S
1775033281.938636,2192,0,9_S
1775033281.9421482,2044,0,9_S
1775033281.944084,1765,0,9_S
1775033281.9468548,1728,0,9_S
1775033281.949794,1979,0,9_S
1775033281.9528131,2186,0,9_S
1775033281.957598,2216,0,9_S
1775033281.9600158,1942,0,9_S
1775033281.962073,1742,0,9_S
1775033281.966285,1951,0,9_S
1775033281.967991,2138,0,9_S
1775033281.970769,2200,0,9_S
1775033281.973811,2100,0,9_S
1775033281.979926,1814,0,9_S
1775033281.979989,1773,0,9_S
1775033281.9834251,1904,0,9_S
1775033281.988001,2057,0,9_S
1775033281.989397,2262,0,9_S
1775033281.991969,1956,0,9_S
1775033281.9948008,1750,0,9_S
1775033281.9978082,1925,0,9_S
1775033282.001438,2064,0,9_S
1775033282.004849,2213,0,9_S
1775033282.007827,2176,0,9_S
1775033282.009851,1843,0,9_S
1775033282.0128262,1752,0,9_S
1775033282.015776,1900,0,9_S
1775033282.018788,2095,0,9_S
1775033282.022749,2193,0,9_S
1775033282.026828,1928,0,9_S
1775033282.028408,1761,0,9_S
1775033282.031785,1889,0,9_S
1775033282.033671,2078,0,9_S
1775033282.0373561,2198,0,9_S
1775033282.039901,2194,0,9_S
1775033282.0465028,1881,0,9_S
1775033282.0469272,1737,0,9_S
1775033282.049418,1967,0,9_S
1775033282.0527942,2074,0,9_S
1775033282.054721,2230,0,9_S
1775033282.057638,1942,0,9_S
1775033282.0606441,1753,0,9_S
1775033282.0636458,1844,0,9_S
1775033282.0691042,2024,0,9_S
1775033282.069877,2229,0,9_S
1775033282.073131,2209,0,9_S
1775033282.076064,1887,0,9_S
1775033282.0793128,1763,0,9_S
1775033282.0818691,1978,0,9_S
1775033282.084629,2070,0,9_S
1775033282.0876532,2183,0,9_S
1775033282.0932522,2034,0,9_S
1775033282.095099,1806,0,9_S
1775033282.0973592,1780,0,9_S
1775033282.1014469,1982,0,9_S
1775033282.1032472,2129,0,9_S
1775033282.1059132,2224,0,9_S
1775033282.108649,1932,0,9_S
1775033282.111659,1797,0,9_S
1775033282.115725,1875,0,9_S
1775033282.117926,2052,0,9_S
1775033282.121411,2133,0,9_S
1775033282.1243782,2039,0,9_S
1775033282.12705,1864,0,9_S
1775033282.129672,1774,0,9_S
1775033282.13267,1996,0,9_S
1775033282.137655,2107,0,9_S
1775033282.139935,2216,0,9_S
1775033282.142011,2022,0,9_S
1775033282.1462579,1851,0,9_S
1775033282.148129,1872,0,9_S
1775033282.150673,1981,0,9_S
1775033282.1536472,2227,0,9_S
1775033282.159266,2119,0,9_S
1775033282.16022,1903,0,9_S
1775033282.162733,1752,0,9_S
1775033282.167259,1888,0,9_S
1775033282.16893,2124,0,9_S
1775033282.171678,2192,0,9_S
1775033282.1746728,2062,0,9_S
1775033282.180686,1765,0,9_S
1775033282.1816351,2056,0,9_S
1775033282.184753,1896,0,9_S
1775033282.1870148,2129,0,9_S
1775033282.190287,2168,0,9_S
1775033282.192844,1956,0,9_S
1775033282.1956968,1842,0,9_S
1775033282.198921,1854,0,9_S
1775033282.20267,1989,0,9_S
1775033282.204837,2292,0,9_S
1775033282.2079868,2010,0,9_S
1775033282.210898,1873,0,9_S
1775033282.213669,1831,0,9_S
1775033282.216635,2035,0,9_S
1775033282.224635,2068,0,9_S
1775033282.2259378,2232,0,9_S
1775033282.226093,2029,0,9_S
1775033282.228907,1797,0,9_S
1775033282.232051,1782,0,9_S
1775033282.2346728,2061,0,9_S
1775033282.237654,2327,0,9_S
1775033282.240679,2011,0,9_S
1775033282.2458081,1830,0,9_S
1775033282.247669,1752,0,9_S
1775033282.251963,1997,0,9_S
1775033282.2536478,2173,0,9_S
1775033282.25632,2169,0,9_S
1775033282.258892,1991,0,9_S
1775033282.2616808,1773,0,9_S
1775033282.266604,1887,0,9_S
1775033282.268873,1982,0,9_S
1775033282.270837,2189,0,9_S
1775033282.2749052,2231,0,9_S
1775033282.276726,1831,0,9_S
1775033282.27968,1589,0,9_S
1775033282.282677,2026,0,9_S
1775033282.287814,2175,0,9_S
1775033282.2899442,2237,0,9_S
1775033282.29165,1926,0,9_S
1775033282.296454,1790,0,9_S
1775033282.2983522,1919,0,9_S
1775033282.300928,2093,0,9_S
1775033282.303721,2038,0,9_S
1775033282.3106701,2164,0,9_S
1775033282.3110201,1950,0,9_S
1775033282.313993,1757,0,9_S
1775033282.3183548,1937,0,9_S
1775033282.318709,2072,0,9_S
1775033282.321682,2207,0,9_S
1775033282.3246431,2051,0,9_S
1775033282.3276742,1778,0,9_S
1775033282.332043,1826,0,9_S
1775033282.333813,2082,0,9_S
1775033282.336849,2153,0,9_S
1775033282.342709,2120,0,9_S
1775033282.342829,1877,0,9_S
1775033282.345561,1719,0,9_S
1775033282.3485289,1989,0,9_S
1775033282.354162,2064,0,9_S
1775033282.3549068,2218,0,9_S
1775033282.35836,2073,0,9_S
1775033282.361248,1731,0,9_S
1775033282.364188,1886,0,9_S
1775033282.366745,2009,0,9_S
1775033282.3695428,2168,0,9_S
1775033282.37253,2140,0,9_S
1775033282.375956,1921,0,9_S
1775033282.379721,1801,0,9_S
1775033282.3824651,1928,0,9_S
1775033282.385466,2009,0,9_S
1775033282.388036,2214,0,9_S
1775033282.390594,2013,0,9_S
1775033282.3935769,1814,0,9_S
1775033282.397204,1818,0,9_S
1775033282.401052,2019,0,9_S
1775033282.4038882,2123,0,9_S
1775033282.4056609,2194,0,9_S
1775033282.408557,1908,0,9_S
1775033282.411553,1811,0,9_S
1775033282.4145548,1836,0,9_S
1775033282.4193978,2028,0,9_S
1775033282.421584,2285,0,9_S
1775033282.423727,2008,0,9_S
1775033282.427571,1868,0,9_S
1775033282.430144,1718,0,9_S
1775033282.432687,2006,0,9_S
1775033282.43555,2161,0,9_S
1775033282.4399219,2276,0,9_S
1775033282.442304,1929,0,9_S
1775033282.4465961,1730,0,9_S
1775033282.448281,1871,0,9_S
1775033282.450895,2146,0,9_S
1775033282.453546,2165,0,9_S
1775033282.456552,2078,0,9_S
1775033282.461025,1860,0,9_S
1775033282.4633331,1746,0,9_S
1775033282.46579,1999,0,9_S
1775033282.4691892,2148,0,9_S
1775033282.471873,2360,0,9_S
1775033282.474606,1810,0,9_S
1775033282.4775538,1781,0,9_S
1775033282.4831948,1760,0,9_S
1775033282.484241,2062,0,9_S
1775033282.486581,2110,0,9_S
1775033282.4912808,2088,0,9_S
1775033282.494702,1887,0,9_S
1775033282.4966872,1822,0,9_S
1775033282.498589,1897,0,9_S
1775033282.5015528,2199,0,9_S
1775033282.5076668,2158,0,9_S
1775033282.507775,2074,0,9_S
1775033282.5117922,1725,0,9_S
1775033282.5147252,1797,0,9_S
1775033282.516639,2118,0,9_S
1775033282.519516,2158,0,9_S
1775033282.522515,2106,0,9_S
1775033282.5255492,1902,0,9_S
1775033282.529977,1724,0,9_S
1775033282.532505,1922,0,9_S
1775033282.5347898,2142,0,9_S
1775033282.53756,2229,0,9_S
1775033282.540519,2068,0,9_S
1775033282.5435562,1756,0,9_S
1775033282.5465212,1727,0,9_S
1775033282.5515609,1965,0,9_S
1775033282.553504,2224,0,9_S
1775033282.556013,2089,0,9_S
1775033282.5597508,2119,0,9_S
1775033282.56152,1624,0,9_S
1775033282.56452,2032,0,9_S
1775033282.567513,2058,0,9_S
1775033282.573293,2249,0,9_S
1775033282.5739598,2123,0,9_S
1775033282.5772538,1756,0,9_S
1775033282.580791,1133,0,9_S
1775033282.582569,2442,0,9_S
1775033282.585423,2096,0,9_S
1775033282.5884202,2385,0,9_S
1775033282.594406,1585,0,9_S
1775033282.595318,1787,0,9_S
1775033282.59762,2020,0,9_S
1775033282.6023328,2059,0,9_S
1775033282.603997,2348,0,9_S
1775033282.606551,1871,0,9_S
1775033282.6094358,2140,0,9_S
1775033282.615146,1689,0,9_S
1775033282.6158369,1875,0,9_S
1775033282.6192288,2157,0,9_S
1775033282.621987,2206,0,9_S
1775033282.6250381,1880,0,9_S
1775033282.627727,1692,0,9_S
1775033282.630672,1641,0,9_S
1775033282.6334028,2173,0,9_S
1775033282.637918,2169,0,9_S
1775033282.639935,2040,0,9_S
1775033282.64316,1876,0,9_S
1775033282.64604,1769,0,9_S
1775033282.648663,1956,0,9_S
1775033282.651391,2157,0,9_S
1775033282.654401,2465,0,9_S
1775033282.659331,1912,0,9_S
1775033282.66132,1782,0,9_S
1775033282.66555,1721,0,9_S
1775033282.6673229,2022,0,9_S
1775033282.6699169,2212,0,9_S
1775033282.672467,2225,0,9_S
1775033282.675426,1910,0,9_S
1775033282.680439,1741,0,9_S
1775033282.6818979,1993,0,9_S
1775033282.68608,2159,0,9_S
1775033282.687747,2169,0,9_S
1775033282.690567,1968,0,9_S
1775033282.693397,1734,0,9_S
1775033282.696415,1811,0,9_S
1775033282.700667,2084,0,9_S
1775033282.70249,2244,0,9_S
1775033282.7068381,2108,0,9_S
1775033282.70864,1938,0,9_S
1775033282.711404,1816,0,9_S
1775033282.714428,1923,0,9_S
1775033282.7174232,2050,0,9_S
1775033282.723041,2206,0,9_S
1775033282.723722,2061,0,9_S
1775033282.726939,1812,0,9_S
1775033282.729693,1767,0,9_S
1775033282.733204,2049,0,9_S
1775033282.736081,2155,0,9_S
1775033282.738668,2223,0,9_S
1775033282.741445,1781,0,9_S
1775033282.7463381,1796,0,9_S
1775033282.7483678,1943,0,9_S
1775033282.7512581,2069,0,9_S
1775033282.753568,2274,0,9_S
1775033282.757378,2090,0,9_S
1775033282.7600498,1841,0,9_S
1775033282.762688,1717,0,9_S
1775033282.765431,1954,0,9_S
1775033282.772824,2197,0,9_S
1775033282.7743769,2189,0,9_S
1775033282.775242,1962,0,9_S
1775033282.780061,1695,0,9_S
1775033282.780499,1874,0,9_S
1775033282.7834089,2027,0,9_S
1775033282.786405,2180,0,9_S
1775033282.789409,2071,0,9_S
1775033282.7953432,1866,0,9_S
1775033282.797288,1855,0,9_S
1775033282.799534,1919,0,9_S
1775033282.804416,2161,0,9_S
1775033282.806536,2254,0,9_S
1775033282.8079941,2014,0,9_S
1775033282.810674,1756,0,9_S
1775033282.813448,1853,0,9_S
1775033282.820193,2123,0,9_S
1775033282.821504,2170,0,9_S
1775033282.82397,2162,0,9_S
1775033282.828801,1811,0,9_S
1775033282.8289778,1708,0,9_S
1775033282.831817,1978,0,9_S
1775033282.834473,2090,0,9_S
1775033282.837285,2289,0,9_S
1775033282.845846,2078,0,9_S
1775033282.847253,1805,0,9_S
1775033282.848971,1628,0,9_S
1775033282.850912,2030,0,9_S
1775033282.855042,2188,0,9_S
1775033282.8554492,2239,0,9_S
1775033282.8582919,1881,0,9_S
1775033282.861566,1650,0,9_S
1775033282.865995,1765,0,9_S
1775033282.870827,2221,0,9_S
1775033282.873684,2272,0,9_S
1775033282.8739588,2034,0,9_S
1775033282.8763819,1921,0,9_S
1775033282.879292,1812,0,9_S
1775033282.882281,2000,0,9_S
1775033282.88528,2191,0,9_S
1775033282.892193,2177,0,9_S
1775033282.8960981,1955,0,9_S
1775033282.897116,1680,0,9_S
1775033282.897582,1806,0,9_S
1775033282.901643,2050,0,9_S
1775033282.9039118,2203,0,9_S
1775033282.906631,2072,0,9_S
1775033282.91217,1773,0,9_S
1775033282.913156,1786,0,9_S
1775033282.9165812,1933,0,9_S
1775033282.920661,2251,0,9_S
1775033282.9229069,2283,0,9_S
1775033282.925131,1941,0,9_S
1775033282.927862,1627,0,9_S
1775033282.930478,1873,0,9_S
1775033282.933492,2151,0,9_S
1775033282.9394171,2154,0,9_S
1775033282.9403808,2147,0,9_S
1775033282.943758,1829,0,9_S
1775033282.9460568,1691,0,9_S
1775033282.949955,1936,0,9_S
1775033282.9521558,2108,0,9_S
1775033282.954785,2332,0,9_S
1775033282.9608698,2047,0,9_S
1775033282.961816,1719,0,9_S
1775033282.966054,1845,0,9_S
1775033282.967073,1998,0,9_S
1775033282.971393,2258,0,9_S
1775033282.973591,2129,0,9_S
1775033282.975304,1984,0,9_S
1775033282.978271,1652,0,9_S
1775033282.981271,1909,0,9_S
1775033282.9887202,2076,0,9_S
1775033282.990112,2260,0,9_S
1775033282.990329,2025,0,9_S
1775033282.9936981,1713,0,9_S
1775033282.9973419,1682,0,9_S
1775033282.9993541,2025,0,9_S
1775033283.002298,2127,0,9_S
1775033283.0076191,2334,0,9_S
1775033283.0097868,1877,0,9_S
1775033283.012002,1920,0,9_S
1775033283.015053,1972,0,9_S
1775033283.017351,2102,0,9_S
1775033283.020253,2177,0,9_S
1775033283.023285,2036,0,9_S
1775033283.0262861,1763,0,9_S
1775033283.032493,1903,0,9_S
1775033283.0325959,1868,0,9_S
1775033283.03682,2079,0,9_S
1775033283.039128,2156,0,9_S
1775033283.042478,1927,0,9_S
1775033283.044493,1704,0,9_S
1775033283.047306,1870,0,9_S
1775033283.050315,2212,0,9_S
1775033283.0533051,2199,0,9_S
1775033283.0579898,2099,0,9_S
1775033283.060579,1697,0,9_S
1775033283.0631812,1619,0,9_S
1775033283.065975,2055,0,9_S
1775033283.0682912,2273,0,9_S
1775033283.071307,2209,0,9_S
1775033283.0780401,1961,0,9_S
1775033283.079435,1722,0,9_S
1775033283.082463,1824,0,9_S
1775033283.084694,2080,0,9_S
1775033283.088184,2085,0,9_S
1775033283.0903769,2206,0,9_S
1775033283.092739,1721,0,9_S
1775033283.095304,1821,0,9_S
1775033283.0982962,1947,0,9_S
1775033283.1062982,2150,0,9_S
1775033283.10765,2104,0,9_S
1775033283.107849,1888,0,9_S
1775033283.111507,1897,0,9_S
1775033283.113333,1925,0,9_S
1775033283.11759,2072,0,9_S
1775033283.119352,2215,0,9_S
1775033283.125973,2160,0,9_S
1775033283.126818,1934,0,9_S
1775033283.129071,1755,0,9_S
1775033283.132232,1846,0,9_S
1775033283.134254,2099,0,9_S
1775033283.1387231,2250,0,9_S
1775033283.140158,1965,0,9_S
1775033283.143187,1697,0,9_S
1775033283.146137,1754,0,9_S
1775033283.158056,2086,0,9_S
1775033283.158901,2287,0,9_S
1775033283.164922,2202,0,9_S
1775033283.165364,1880,0,9_S
1775033283.165427,1702,0,9_S
1775033283.165687,1863,0,9_S
1775033283.1678221,2087,0,9_S
1775033283.1707578,2286,0,9_S
1775033283.173363,2064,0,9_S
1775033283.182783,1719,0,9_S
1775033283.183402,1707,0,9_S
1775033283.185809,2072,0,9_S
1775033283.1875358,2271,0,9_S
1775033283.190235,2198,0,9_S
1775033283.192866,1930,0,9_S
1775033283.194262,1780,0,9_S
1775033283.1971562,1934,0,9_S
1775033283.200167,2026,0,9_S
1775033283.207903,2127,0,9_S
1775033283.208981,2140,0,9_S
1775033283.210772,1799,0,9_S
1775033283.213221,1642,0,9_S
1775033283.2171578,2073,0,9_S
1775033283.219487,2142,0,9_S
1775033283.22183,2272,0,9_S
1775033283.22454,2049,0,9_S
1775033283.2316859,1786,0,9_S
1775033283.234279,1823,0,9_S
1775033283.234675,2104,0,9_S
1775033283.236759,2161,0,9_S
1775033283.2406452,2152,0,9_S
1775033283.2450051,1887,0,9_S
1775033283.245143,1656,0,9_S
1775033283.2481549,1872,0,9_S
1775033283.251148,2116,0,9_S
1775033283.25415,2278,0,9_S
1775033283.2598011,2025,0,9_S
1775033283.2607958,1801,0,9_S
1775033283.2645319,1769,0,9_S
1775033283.266829,2116,0,9_S
1775033283.270636,2203,0,9_S
1775033283.272953,2207,0,9_S
1775033283.27546,1911,0,9_S
1775033283.2820969,1619,0,9_S
1775033283.28267,1845,0,9_S
1775033283.2852302,2117,0,9_S
1775033283.28808,2236,0,9_S
1775033283.291208,2112,0,9_S
1775033283.293479,1706,0,9_S
1775033283.2965708,1725,0,9_S
1775033283.2992268,1958,0,9_S
1775033283.302148,2215,0,9_S
1775033283.3054662,2289,0,9_S
1775033283.3164318,1940,0,9_S
1775033283.318461,1813,0,9_S
1775033283.321072,1850,0,9_S
1775033283.3233411,2068,0,9_S
1775033283.3234181,2233,0,9_S
1775033283.3234801,1995,0,9_S
1775033283.326545,1806,0,9_S
1775033283.33324,1820,0,9_S
1775033283.34375,1995,0,9_S
1775033283.3438709,2068,0,9_S
1775033283.343955,2180,0,9_S
1775033283.344026,1993,0,9_S
1775033283.344128,1674,0,9_S
1775033283.3478668,1875,0,9_S
1775033283.351611,2195,0,9_S
1775033283.353151,2238,0,9_S
1775033283.356171,2084,0,9_S
1775033283.385535,1742,0,9_S
1775033283.385644,1600,0,9_S
1775033283.385684,1947,0,9_S
1775033283.3857129,2252,0,9_S
1775033283.3857422,2249,0,9_S
1775033283.385979,2042,0,9_S
1775033283.3860202,1740,0,9_S
1775033283.3860512,1845,0,9_S
1775033283.38666,2113,0,9_S
1775033283.3867111,2205,0,9_S
1775033283.390213,2124,0,9_S
1775033283.392834,1777,0,9_S
1775033283.395243,1695,0,9_S
1775033283.398419,2017,0,9_S
1775033283.415691,2118,0,9_S
1775033283.415873,2178,0,9_S
1775033283.4159338,1974,0,9_S
1775033283.41603,1756,0,9_S
1775033283.416082,1920,0,9_S
1775033283.416131,2061,0,9_S
1775033283.41999,2150,0,9_S
1775033283.4273689,2063,0,9_S
1775033283.4277692,1866,0,9_S
1775033283.4298072,1873,0,9_S
1775033283.432364,1982,0,9_S
1775033283.4361331,1986,0,9_S
1775033283.4383628,2192,0,9_S
1775033283.440041,2073,0,9_S
1775033283.443074,1878,0,9_S
1775033283.446012,1792,0,9_S
1775033283.4530618,1858,0,9_S
1775033283.453165,2178,0,9_S
1775033283.4559832,2140,0,9_S
1775033283.4584398,1922,0,9_S
1775033283.461632,1814,0,9_S
1775033283.464073,1904,0,9_S
1775033283.4670231,2033,0,9_S
1775033283.475005,2211,0,9_S
1775033283.475517,2236,0,9_S
1775033283.4771168,1753,0,9_S
1775033283.479114,1718,0,9_S
1775033283.482522,1978,0,9_S
1775033283.486607,2145,0,9_S
1775033283.488018,2238,0,9_S
1775033283.491047,1944,0,9_S
1775033283.494009,1703,0,9_S
1775033283.500649,1762,0,9_S
1775033283.501101,2080,0,9_S
1775033283.5030751,2354,0,9_S
1775033283.506112,2165,0,9_S
1775033283.510009,1791,0,9_S
1775033283.512054,1744,0,9_S
1775033283.515046,1993,0,9_S
1775033283.518034,2135,0,9_S
1775033283.5210922,2201,0,9_S
1775033283.5257652,1956,0,9_S
1775033283.5275352,1769,0,9_S
1775033283.530615,1681,0,9_S
1775033283.534644,2031,0,9_S
1775033283.536223,2314,0,9_S
1775033283.539051,2163,0,9_S
1775033283.542042,1727,0,9_S
1775033283.545027,1613,0,9_S
1775033283.549654,2062,0,9_S
1775033283.5521111,2204,0,9_S
1775033283.5546272,2299,0,9_S
1775033283.55911,1926,0,9_S
1775033283.561064,1676,0,9_S
1775033283.563624,1847,0,9_S
1775033283.5661829,1952,0,9_S
1775033283.569035,2182,0,9_S
1775033283.57384,2128,0,9_S
1775033283.5754418,1951,0,9_S
1775033283.57874,1752,0,9_S
1775033283.581589,1891,0,9_S
1775033283.584053,2116,0,9_S
1775033283.587025,2225,0,9_S
1775033283.590042,2101,0,9_S
1775033283.593044,1815,0,9_S
1775033283.598361,1823,0,9_S
1775033283.600557,1978,0,9_S
1775033283.602179,2148,0,9_S
1775033283.607022,2109,0,9_S
1775033283.608565,1863,0,9_S
1775033283.611126,1755,0,9_S
1775033283.614005,1993,0,9_S
1775033283.617037,2192,0,9_S
1775033283.621324,2190,0,9_S
1775033283.623574,2055,0,9_S
1775033283.6262321,1781,0,9_S
1775033283.630102,1758,0,9_S
1775033283.6320288,1894,0,9_S
1775033283.635647,2137,0,9_S
1775033283.638207,2338,0,9_S
1775033283.6444669,2071,0,9_S
1775033283.6445389,1766,0,9_S
1775033283.648118,1808,0,9_S
1775033283.6500092,1946,0,9_S
1775033283.6533508,2150,0,9_S
1775033283.6561038,2317,0,9_S
1775033283.659009,1891,0,9_S
1775033283.661997,1690,0,9_S
1775033283.668043,1986,0,9_S
1775033283.668409,2102,0,9_S
1775033283.671523,2344,0,9_S
1775033283.6745229,1910,0,9_S
1775033283.6782699,1757,0,9_S
1775033283.679997,1894,0,9_S
1775033283.683009,2033,0,9_S
1775033283.6860049,2171,0,9_S
1775033283.6921349,2043,0,9_S
1775033283.6932428,1838,0,9_S
1775033283.696117,1712,0,9_S
1775033283.6992168,2039,0,9_S
1775033283.701139,2117,0,9_S
1775033283.704001,2271,0,9_S
1775033283.707001,2008,0,9_S
1775033283.709996,1856,0,9_S
1775033283.716798,1733,0,9_S
1775033283.7178721,2133,0,9_S
1775033283.719382,2139,0,9_S
1775033283.722809,2154,0,9_S
1775033283.725045,1899,0,9_S
1775033283.7280471,1713,0,9_S
1775033283.731019,1909,0,9_S
1775033283.734699,2090,0,9_S
1775033283.740674,2218,0,9_S
1775033283.741129,2065,0,9_S
1775033283.743204,1790,0,9_S
1775033283.746901,1758,0,9_S
1775033283.749975,2012,0,9_S
1775033283.752043,2166,0,9_S
1775033283.755024,2007,0,9_S
1775033283.7580311,1991,0,9_S
1775033283.764415,1877,0,9_S
1775033283.764777,1920,0,9_S
1775033283.7679129,2067,0,9_S
1775033283.771225,2182,0,9_S
1775033283.773185,2082,0,9_S
1775033283.7761338,1906,0,9_S
1775033283.778888,1788,0,9_S
1775033283.781888,1942,0,9_S
1775033283.786526,2020,0,9_S
1775033283.788602,2212,0,9_S
1775033283.791457,1892,0,9_S
1775033283.7948868,1760,0,9_S
1775033283.796881,1880,0,9_S
1775033283.80051,2054,0,9_S
1775033283.803057,2218,0,9_S
1775033283.808644,2150,0,9_S
1775033283.809345,1845,0,9_S
1775033283.81246,1699,0,9_S
1775033283.81708,1961,0,9_S
1775033283.818908,2112,0,9_S
1775033283.821465,2158,0,9_S
1775033283.82402,2028,0,9_S
1775033283.8269079,1814,0,9_S
1775033283.831012,1795,0,9_S
1775033283.832955,2050,0,9_S
1775033283.836041,2208,0,9_S
1775033283.839263,2182,0,9_S
1775033283.842239,1898,0,9_S
1775033283.844903,1730,0,9_S
1775033283.847877,1891,0,9_S
1775033283.852271,2069,0,9_S
1775033283.8546839,2183,0,9_S
1775033283.8577762,2022,0,9_S
1775033283.860981,1844,0,9_S
1775033283.862904,1779,0,9_S
1775033283.865876,1981,0,9_S
1775033283.868905,2102,0,9_S
1775033283.874461,2172,0,9_S
1775033283.8751822,1939,0,9_S
1775033283.878551,1727,0,9_S
1775033283.881515,1948,0,9_S
1775033283.884856,2145,0,9_S
1775033283.887412,2289,0,9_S
1775033283.88995,2027,0,9_S
1775033283.8929012,1815,0,9_S
1775033283.897244,1821,0,9_S
1775033283.899054,1963,0,9_S
1775033283.9023,2095,0,9_S
1775033283.905159,2165,0,9_S
1775033283.908093,1942,0,9_S
1775033283.9108732,1800,0,9_S
1775033283.913882,1818,0,9_S
1775033283.9195561,1990,0,9_S
1775033283.920873,2206,0,9_S
1775033283.923724,2136,0,9_S
1775033283.927188,1838,0,9_S
1775033283.929,1798,0,9_S
1775033283.9318762,1994,0,9_S
1775033283.9349,2116,0,9_S
1775033283.940712,2109,0,9_S
1775033283.941098,1980,0,9_S
1775033283.944694,1752,0,9_S
1775033283.94717,1859,0,9_S
1775033283.950412,2084,0,9_S
1775033283.9529831,2275,0,9_S
1775033283.9559228,2124,0,9_S
1775033283.958931,1875,0,9_S
1775033283.963018,1745,0,9_S
1775033283.966232,1931,0,9_S
1775033283.969099,2088,0,9_S
1775033283.9709408,2213,0,9_S
1775033283.9739048,2082,0,9_S
1775033283.9768791,1751,0,9_S
1775033283.979867,1768,0,9_S
1775033283.9837718,2007,0,9_S
1775033283.987365,2206,0,9_S
1775033283.9890099,2094,0,9_S
1775033283.991922,1912,0,9_S
1775033283.9949062,1773,0,9_S
1775033283.9979079,1959,0,9_S
1775033284.00087,2096,0,9_S
1775033284.005104,2231,0,9_S
1775033284.006957,2010,0,9_S
1775033284.010133,1717,0,9_S
1775033284.01296,1847,0,9_S
1775033284.015918,1980,0,9_S
1775033284.018914,2169,0,9_S
1775033284.0218859,2247,0,9_S
1775033284.025978,1930,0,9_S
1775033284.02814,1722,0,9_S
1775033284.031318,1959,0,9_S
1775033284.0340438,2118,0,9_S
1775033284.036871,2251,0,9_S
1775033284.039872,2062,0,9_S
1775033284.042877,1801,0,9_S
1775033284.0465438,1758,0,9_S
1775033284.04888,1929,0,9_S
1775033284.053074,2074,0,9_S
1775033284.0549178,2175,0,9_S
1775033284.057902,2014,0,9_S
1775033284.06087,1768,0,9_S
1775033284.0638962,1928,0,9_S
1775033284.069162,2086,0,9_S
1775033284.071121,2221,0,9_S
1775033284.07297,2041,0,9_S
1775033284.077183,1830,0,9_S
1775033284.078898,1808,0,9_S
1775033284.081901,1969,0,9_S
1775033284.084887,2065,0,9_S
1775033284.090011,2230,0,9_S
1775033284.091991,2015,0,9_S
1775033284.094173,1775,0,9_S
1775033284.0980248,1884,0,9_S
1775033284.0998871,2083,0,9_S
1775033284.1029131,2186,0,9_S
1775033284.105906,2116,0,9_S
1775033284.111201,1819,0,9_S
1775033284.113358,1765,0,9_S
1775033284.115817,1905,0,9_S
1775033284.1193118,2081,0,9_S
1775033284.12115,2321,0,9_S
1775033284.12389,2028,0,9_S
1775033284.1268852,1834,0,9_S
1775033284.1324952,1825,0,9_S
1775033284.133186,2018,0,9_S
1775033284.1367638,2085,0,9_S
1775033284.139007,2208,0,9_S
1775033284.1427789,1852,0,9_S
1775033284.1454148,1785,0,9_S
1775033284.1494431,1888,0,9_S
1775033284.1510148,1992,0,9_S
1775033284.1572669,2287,0,9_S
1775033284.163746,2098,0,9_S
1775033284.163872,1844,0,9_S
1775033284.163994,1793,0,9_S
1775033284.1658828,2039,0,9_S
1775033284.1691039,2019,0,9_S
1775033284.171802,2251,0,9_S
1775033284.175681,1918,0,9_S
1775033284.18102,1790,0,9_S
1775033284.181828,1966,0,9_S
1775033284.18682,1975,0,9_S
1775033284.189224,2232,0,9_S
1775033284.191076,2027,0,9_S
1775033284.193376,1831,0,9_S
1775033284.1959438,1769,0,9_S
1775033284.2029572,2012,0,9_S
1775033284.203244,2031,0,9_S
1775033284.2054641,2260,0,9_S
1775033284.20786,1935,0,9_S
1775033284.21135,1682,0,9_S
1775033284.2139142,1881,0,9_S
1775033284.216789,2145,0,9_S
1775033284.2198741,2237,0,9_S
1775033284.2234318,1971,0,9_S
1775033284.2258391,1835,0,9_S
1775033284.22903,1784,0,9_S
1775033284.231959,1980,0,9_S
1775033284.235296,2132,0,9_S
1775033284.237865,2171,0,9_S
1775033284.240779,2048,0,9_S
1775033284.245928,1772,0,9_S
1775033284.248119,1808,0,9_S
1775033284.250288,2115,0,9_S
1775033284.2528808,2206,0,9_S
1775033284.2565818,2084,0,9_S
1775033284.2591429,1841,0,9_S
1775033284.261777,1731,0,9_S
1775033284.264886,1945,0,9_S
1775033284.270852,2091,0,9_S
1775033284.270965,2261,0,9_S
1775033284.274359,2025,0,9_S
1775033284.2771468,1846,0,9_S
1775033284.279868,1778,0,9_S
1775033284.282751,1967,0,9_S
1775033284.285751,2263,0,9_S
1775033284.292087,2044,0,9_S
1775033284.292788,1948,0,9_S
1775033284.294859,1800,0,9_S
1775033284.303665,1862,0,9_S
1775033284.303715,2011,0,9_S
1775033284.304128,2178,0,9_S
1775033284.306947,2099,0,9_S
1775033284.30978,1865,0,9_S
1775033284.31495,1857,0,9_S
1775033284.318773,2026,0,9_S
1775033284.319509,2157,0,9_S
1775033284.3235998,2160,0,9_S
1775033284.3253691,1849,0,9_S
1775033284.327959,1815,0,9_S
1775033284.33077,1976,0,9_S
1775033284.333753,2040,0,9_S
1775033284.337833,2187,0,9_S
1775033284.339911,2035,0,9_S
1775033284.3432488,1813,0,9_S
1775033284.346116,1825,0,9_S
1775033284.34881,2051,0,9_S
1775033284.351733,2091,0,9_S
1775033284.35474,2159,0,9_S
1775033284.36115,1929,0,9_S
1775033284.3612301,1756,0,9_S
1775033284.366008,1841,0,9_S
1775033284.3703969,2119,0,9_S
1775033284.370581,2220,0,9_S
1775033284.373216,2136,0,9_S
1775033284.375795,1901,0,9_S
1775033284.378773,1757,0,9_S
1775033284.384711,1958,0,9_S
1775033284.385409,2151,0,9_S
1775033284.388754,2063,0,9_S
1775033284.391469,2015,0,9_S
1775033284.394627,1819,0,9_S
1775033284.397185,1871,0,9_S
1775033284.399734,1990,0,9_S
1775033284.402733,2152,0,9_S
1775033284.4077709,2226,0,9_S
1775033284.4097788,1822,0,9_S
1775033284.4123242,1800,0,9_S
1775033284.4163468,1922,0,9_S
1775033284.4182022,2133,0,9_S
1775033284.420854,2148,0,9_S
1775033284.423757,1909,0,9_S
1775033284.426774,1722,0,9_S
1775033284.4318342,1939,0,9_S
1775033284.4334211,2161,0,9_S
1775033284.43665,2132,0,9_S
1775033284.439871,2137,0,9_S
1775033284.441775,1985,0,9_S
1775033284.444772,1837,0,9_S
1775033284.447742,1914,0,9_S
1775033284.454776,2025,0,9_S
1775033284.4548512,2201,0,9_S
1775033284.4575932,2024,0,9_S
1775033284.460671,1673,0,9_S
1775033284.463816,1802,0,9_S
1775033284.466374,2065,0,9_S
1775033284.469137,2134,0,9_S
1775033284.471756,2218,0,9_S
1775033284.476248,1998,0,9_S
1775033284.478743,1720,0,9_S
1775033284.481754,1972,0,9_S
1775033284.485447,2095,0,9_S
1775033284.487129,2306,0,9_S
1775033284.489742,1900,0,9_S
1775033284.4940412,1799,0,9_S
1775033284.499905,1794,0,9_S
1775033284.500563,1995,0,9_S
1775033284.5029702,2127,0,9_S
1775033284.505194,2126,0,9_S
1775033284.509374,1897,0,9_S
1775033284.510807,1816,0,9_S
1775033284.513738,1920,0,9_S
1775033284.5167842,2054,0,9_S
1775033284.5230012,2185,0,9_S
1775033284.523417,2077,0,9_S
1775033284.52703,1609,0,9_S
1775033284.529066,1955,0,9_S
1775033284.531911,2119,0,9_S
1775033284.535064,2006,0,9_S
1775033284.537794,2297,0,9_S
1775033284.5407538,1823,0,9_S
1775033284.547167,1871,0,9_S
1775033284.547253,1812,0,9_S
1775033284.550498,2047,0,9_S
1775033284.553251,2231,0,9_S
1775033284.556766,2037,0,9_S
1775033284.559357,1809,0,9_S
1775033284.561942,1828,0,9_S
1775033284.5647712,1993,0,9_S
1775033284.570027,2320,0,9_S
1775033284.571611,2227,0,9_S
1775033284.5747,1807,0,9_S
1775033284.5777862,1904,0,9_S
1775033284.579641,1788,0,9_S
1775033284.58262,2065,0,9_S
1775033284.585744,2111,0,9_S
1775033284.5921779,2127,0,9_S
1775033284.593008,1604,0,9_S
1775033284.594995,1933,0,9_S
1775033284.5979562,1761,0,9_S
1775033284.601761,2352,0,9_S
1775033284.603712,2120,0,9_S
1775033284.606684,1867,0,9_S
1775033284.609615,1922,0,9_S
1775033284.612672,1820,0,9_S
1775033284.620656,1950,0,9_S
1775033284.624037,2083,0,9_S
1775033284.6261818,2131,0,9_S
1775033284.628236,2021,0,9_S
1775033284.628775,1842,0,9_S
1775033284.630645,1843,0,9_S
1775033284.633632,2161,0,9_S
1775033284.641867,2078,0,9_S
1775033284.6421802,2025,0,9_S
1775033284.64415,1797,0,9_S
1775033284.647468,1779,0,9_S
1775033284.6496818,2003,0,9_S
1775033284.6521258,2207,0,9_S
1775033284.654837,2051,0,9_S
1775033284.6576488,1925,0,9_S
1775033284.66064,1799,0,9_S
1775033284.665388,1988,0,9_S
1775033284.670939,2128,0,9_S
1775033284.673144,2196,0,9_S
1775033284.675128,2132,0,9_S
1775033284.6757681,1787,0,9_S
1775033284.6790578,1709,0,9_S
1775033284.681652,2051,0,9_S
1775033284.688315,2085,0,9_S
1775033284.6904519,2241,0,9_S
1775033284.690934,1948,0,9_S
1775033284.695913,1662,0,9_S
1775033284.697985,1923,0,9_S
1775033284.6996312,2118,0,9_S
1775033284.703109,2246,0,9_S
1775033284.705813,2087,0,9_S
1775033284.712998,1812,0,9_S
1775033284.714634,1740,0,9_S
1775033284.715028,1890,0,9_S
1775033284.722688,2201,0,9_S
1775033284.723083,2268,0,9_S
1775033284.7251031,1906,0,9_S
1775033284.7266402,1743,0,9_S
1775033284.7296388,1791,0,9_S
1775033284.7367392,2032,0,9_S
1775033284.740257,2305,0,9_S
1775033284.740837,2162,0,9_S
1775033284.742799,1829,0,9_S
1775033284.74514,1716,0,9_S
1775033284.747873,1945,0,9_S
1775033284.7506611,1997,0,9_S
1775033284.7536309,2233,0,9_S
1775033284.756644,1966,0,9_S
1775033284.762665,1763,0,9_S
1775033284.764946,1827,0,9_S
1775033284.7691772,2051,0,9_S
1775033284.771329,2407,0,9_S
1775033284.773495,1908,0,9_S
1775033284.77581,1981,0,9_S
1775033284.777612,1806,0,9_S
1775033284.786808,1952,0,9_S
1775033284.78702,2128,0,9_S
1775033284.787313,2177,0,9_S
1775033284.790756,1936,0,9_S
1775033284.79519,1922,0,9_S
1775033284.795682,1780,0,9_S
1775033284.798635,2009,0,9_S
1775033284.8021371,2282,0,9_S
1775033284.804842,2013,0,9_S
1775033284.81127,1909,0,9_S
1775033284.8113651,1796,0,9_S
1775033284.8158798,1953,0,9_S
1775033284.819042,2027,0,9_S
1775033284.822696,2108,0,9_S
1775033284.823075,1991,0,9_S
1775033284.8256278,1959,0,9_S
1775033284.828619,1793,0,9_S
1775033284.833921,2015,0,9_S
1775033284.836041,2194,0,9_S
1775033284.8379571,2263,0,9_S
1775033284.84145,1804,0,9_S
1775033284.843649,1917,0,9_S
1775033284.8466592,1975,0,9_S
1775033284.849646,2004,0,9_S
1775033284.852606,2078,0,9_S
1775033284.859315,2131,0,9_S
1775033284.860197,1851,0,9_S
1775033284.862613,1672,0,9_S
1775033284.864924,1993,0,9_S
1775033284.867906,2045,0,9_S
1775033284.87186,2226,0,9_S
1775033284.873615,2108,0,9_S
1775033284.8803551,1693,0,9_S
1775033284.880796,1896,0,9_S
1775033284.882717,2135,0,9_S
1775033284.8860888,2154,0,9_S
1775033284.889753,1903,0,9_S
1775033284.891715,2013,0,9_S
1775033284.894623,1774,0,9_S
1775033284.8976068,2043,0,9_S
1775033284.900617,2047,0,9_S
1775033284.905282,2115,0,9_S
1775033284.9078798,1952,0,9_S
1775033284.9097972,1904,0,9_S
1775033284.9151292,1765,0,9_S
1775033284.9171531,2093,0,9_S
1775033284.918627,2128,0,9_S
1775033284.924532,2186,0,9_S
1775033284.925826,1664,0,9_S
1775033284.9279308,1734,0,9_S
1775033284.930918,1960,0,9_S
1775033284.935104,2191,0,9_S
1775033284.937129,2125,0,9_S
1775033284.9397068,2154,0,9_S
1775033284.942615,1818,0,9_S
1775033284.945646,1881,0,9_S
1775033284.950634,2030,0,9_S
1775033284.952138,2116,0,9_S
1775033284.9553869,2095,0,9_S
1775033284.9588962,1928,0,9_S
1775033284.961218,1791,0,9_S
1775033284.964185,1861,0,9_S
1775033284.9667451,2040,0,9_S
1775033284.972091,2160,0,9_S
1775033284.972957,2005,0,9_S
1775033284.976885,1886,0,9_S
1775033284.979022,1665,0,9_S
1775033284.9825122,2030,0,9_S
1775033284.986041,2264,0,9_S
1775033284.9899678,2195,0,9_S
1775033284.991334,1873,0,9_S
1775033284.9940429,1683,0,9_S
1775033285.001813,1839,0,9_S
1775033285.006183,2158,0,9_S
1775033285.007236,2234,0,9_S
1775033285.0088608,2124,0,9_S
1775033285.0091321,1859,0,9_S
1775033285.011619,1739,0,9_S
1775033285.0145159,1959,0,9_S
1775033285.017498,2123,0,9_S
1775033285.027272,2277,0,9_S
1775033285.02824,1902,0,9_S
1775033285.029941,1717,0,9_S
1775033285.0325592,1789,0,9_S
1775033285.035006,2152,0,9_S
1775033285.035649,2255,0,9_S
1775033285.038539,2042,0,9_S
1775033285.0414999,1827,0,9_S
1775033285.044501,1780,0,9_S
1775033285.047555,1896,0,9_S
1775033285.052892,2277,0,9_S
1775033285.055037,2234,0,9_S
1775033285.057712,1974,0,9_S
1775033285.0597372,1740,0,9_S
1775033285.0634592,1810,0,9_S
1775033285.065542,2042,0,9_S
1775033285.068508,2233,0,9_S
1775033285.074628,2190,0,9_S
1775033285.075965,1840,0,9_S
1775033285.0854,1614,0,9_S
1775033285.086005,1939,0,9_S
1775033285.086327,2199,0,9_S
1775033285.087926,2180,0,9_S
1775033285.0896971,2085,0,9_S
1775033285.0925078,1754,0,9_S
1775033285.0954938,1828,0,9_S
1775033285.0987608,1933,0,9_S
1775033285.103381,2223,0,9_S
1775033285.106407,2208,0,9_S
1775033285.108727,1830,0,9_S
1775033285.110848,1798,0,9_S
1775033285.115103,1938,0,9_S
1775033285.117416,1973,0,9_S
1775033285.119494,2257,0,9_S
1775033285.1269498,2075,0,9_S
1775033285.1274939,1831,0,9_S
1775033285.12966,1796,0,9_S
1775033285.131726,1980,0,9_S
1775033285.135542,2230,0,9_S
1775033285.1379058,2160,0,9_S
1775033285.140928,1929,0,9_S
1775033285.1436648,1720,0,9_S
1775033285.146496,1908,0,9_S
1775033285.149489,2139,0,9_S
1775033285.1549828,2207,0,9_S
1775033285.157589,2031,0,9_S
1775033285.160087,1734,0,9_S
1775033285.16372,1806,0,9_S
1775033285.166334,1976,0,9_S
1775033285.1680791,2102,0,9_S
1775033285.171154,2325,0,9_S
1775033285.177855,1924,0,9_S
1775033285.178817,1766,0,9_S
1775033285.180526,1915,0,9_S
1775033285.183567,2040,0,9_S
1775033285.186666,2171,0,9_S
1775033285.1888158,2126,0,9_S
1775033285.191922,1825,0,9_S
1775033285.1946392,1734,0,9_S
1775033285.19751,1947,0,9_S
1775033285.200502,2127,0,9_S
1775033285.205665,2216,0,9_S
1775033285.2081668,2057,0,9_S
1775033285.2188191,1732,0,9_S
1775033285.2189388,1841,0,9_S
1775033285.21899,2068,0,9_S
1775033285.2190442,2213,0,9_S
1775033285.222112,2025,0,9_S
1775033285.244898,2001,0,9_S
1775033285.2477582,1762,0,9_S
1775033285.248589,1899,0,9_S
1775033285.248854,2070,0,9_S
1775033285.248935,2184,0,9_S
1775033285.249033,2065,0,9_S
1775033285.24911,1780,0,9_S
1775033285.249216,1739,0,9_S
1775033285.2492852,1955,0,9_S
1775033285.251976,2094,0,9_S
1775033285.254715,2346,0,9_S
1775033285.257513,2002,0,9_S
1775033285.260488,1751,0,9_S
1775033285.2731059,1929,0,9_S
1775033285.276469,2116,0,9_S
1775033285.277001,2171,0,9_S
1775033285.2805061,2062,0,9_S
1775033285.2828412,1854,0,9_S
1775033285.2829728,1751,0,9_S
1775033285.283147,1952,0,9_S
1775033285.285579,2146,0,9_S
1775033285.288147,2093,0,9_S
1775033285.293965,2013,0,9_S
1775033285.294894,1706,0,9_S
1775033285.296999,1867,0,9_S
1775033285.3002188,2111,0,9_S
1775033285.3025742,2369,0,9_S
1775033285.3067808,2035,0,9_S
1775033285.308492,1799,0,9_S
1775033285.31149,1783,0,9_S
1775033285.314485,2017,0,9_S
1775033285.321106,2182,0,9_S
1775033285.3232598,2297,0,9_S
1775033285.3235478,1963,0,9_S
1775033285.326955,1677,0,9_S
1775033285.330503,1837,0,9_S
1775033285.3324878,2050,0,9_S
1775033285.3354821,2206,0,9_S
1775033285.338484,2089,0,9_S
1775033285.341504,1779,0,9_S
1775033285.346112,1656,0,9_S
1775033285.348397,2071,0,9_S
1775033285.351899,2092,0,9_S
1775033285.3535302,2203,0,9_S
1775033285.3575099,2033,0,9_S
1775033285.36013,1723,0,9_S
1775033285.362686,1948,0,9_S
1775033285.365391,2095,0,9_S
1775033285.370676,2223,0,9_S
1775033285.37276,2131,0,9_S
1775033285.374559,1911,0,9_S
1775033285.377872,1713,0,9_S
1775033285.381616,1925,0,9_S
1775033285.383371,2037,0,9_S
1775033285.386397,2225,0,9_S
1775033285.389363,1958,0,9_S
1775033285.394989,1788,0,9_S
1775033285.3957949,1791,0,9_S
1775033285.399169,2121,0,9_S
1775033285.402446,2159,0,9_S
1775033285.404469,2145,0,9_S
1775033285.407391,1909,0,9_S
1775033285.410381,1767,0,9_S
1775033285.413387,1973,0,9_S
1775033285.418915,2047,0,9_S
1775033285.419987,2340,0,9_S
1775033285.4232981,1954,0,9_S
1775033285.4265,1728,0,9_S
1775033285.428489,1808,0,9_S
1775033285.4313972,1974,0,9_S
1775033285.434386,2076,0,9_S
1775033285.437372,2214,0,9_S
1775033285.442644,1961,0,9_S
1775033285.4446132,1828,0,9_S
1775033285.446409,1830,0,9_S
1775033285.451095,2267,0,9_S
1775033285.4529989,2020,0,9_S
1775033285.455552,2155,0,9_S
1775033285.458397,1846,0,9_S
1775033285.461474,1796,0,9_S
1775033285.465009,2013,0,9_S
1775033285.468853,2136,0,9_S
1775033285.4718878,2213,0,9_S
1775033285.47377,1928,0,9_S
1775033285.476464,1782,0,9_S
1775033285.479379,1868,0,9_S
1775033285.4823859,2048,0,9_S
1775033285.4876559,2205,0,9_S
1775033285.489793,2113,0,9_S
1775033285.4920058,1744,0,9_S
1775033285.4965389,1693,0,9_S
1775033285.498328,2070,0,9_S
1775033285.500892,2100,0,9_S
1775033285.503443,2251,0,9_S
1775033285.506403,2081,0,9_S
1775033285.511123,1713,0,9_S
1775033285.513047,1891,0,9_S
1775033285.5159838,2036,0,9_S
1775033285.5196989,2180,0,9_S
1775033285.5216022,2159,0,9_S
1775033285.524377,1792,0,9_S
1775033285.527354,1776,0,9_S
1775033285.533351,2117,0,9_S
1775033285.534095,2104,0,9_S
1775033285.537489,2142,0,9_S
1775033285.539798,1991,0,9_S
1775033285.5427892,1756,0,9_S
1775033285.5453901,1796,0,9_S
1775033285.548386,2144,0,9_S
1775033285.551334,2119,0,9_S
1775033285.556732,2046,0,9_S
1775033285.558932,1887,0,9_S
1775033285.560684,1793,0,9_S
1775033285.565224,1903,0,9_S
1775033285.567038,2185,0,9_S
1775033285.569383,2294,0,9_S
1775033285.573013,1963,0,9_S
1775033285.575393,1795,0,9_S
1775033285.579843,1731,0,9_S
1775033285.5816581,2034,0,9_S
1775033285.584725,2149,0,9_S
1775033285.587971,2180,0,9_S
1775033285.5906339,1872,0,9_S
1775033285.593348,1801,0,9_S
1775033285.596351,1863,0,9_S
1775033285.6012402,2083,0,9_S
1775033285.603414,2147,0,9_S
1775033285.605737,2136,0,9_S
1775033285.609786,1833,0,9_S
1775033285.611713,1846,0,9_S
1775033285.6143968,1941,0,9_S
1775033285.617395,2091,0,9_S
1775033285.620537,2207,0,9_S
1775033285.624406,2015,0,9_S
1775033285.6269372,1688,0,9_S
1775033285.631499,1901,0,9_S
1775033285.633276,1998,0,9_S
1775033285.635382,2245,0,9_S
1775033285.638345,2186,0,9_S
1775033285.641383,1813,0,9_S
1775033285.646915,1696,0,9_S
1775033285.647601,2004,0,9_S
1775033285.651098,2168,0,9_S
1775033285.653894,2260,0,9_S
1775033285.657396,1965,0,9_S
1775033285.6599538,1729,0,9_S
1775033285.662505,1818,0,9_S
1775033285.665353,2007,0,9_S
1775033285.66875,2163,0,9_S
1775033285.672488,2061,0,9_S
1775033285.674603,1893,0,9_S
1775033285.6775198,1857,0,9_S
1775033285.680484,1954,0,9_S
1775033285.6832588,2056,0,9_S
1775033285.6868742,2179,0,9_S
1775033285.69111,2019,0,9_S
1775033285.6933708,1829,0,9_S
