timestamp,ch1,ch2,label
1779865052.1531699,2128,2059,0
1779865052.15329,2140,2100,0
1779865052.153373,2031,2165,0
1779865052.153429,2025,2003,0
1779865052.153491,2100,2184,0
1779865052.1572218,2068,2350,0
1779865052.159374,2021,2342,0
1779865052.163746,2042,2004,0
1779865052.1652591,2021,1988,0
1779865052.1659899,2017,2052,0
1779865052.166232,1995,2127,0
1779865052.1701682,2060,2025,0
1779865052.170225,2076,1891,0
1779865052.171561,1958,2101,0
1779865052.1741629,1940,2326,0
1779865052.175601,2064,2140,0
1779865052.182026,2196,2028,0
1779865052.1830819,2065,1961,0
1779865052.1849442,1961,2083,0
1779865052.185594,2017,2165,0
1779865052.1880891,2112,1960,0
1779865052.189939,2051,2045,0
1779865052.19161,1983,2255,0
1779865052.1947432,1961,2197,0
1779865052.195041,2029,2030,0
1779865052.19638,2069,1934,0
1779865052.1977952,2017,2026,0
1779865052.200361,2044,2117,0
1779865052.201823,2085,2053,0
1779865052.209399,2006,2027,0
1779865052.2099872,2006,2187,0
1779865052.211974,2007,2233,0
1779865052.21209,2109,2088,0
1779865052.213921,2083,2121,0
1779865052.2183099,2075,2152,0
1779865052.218539,2015,2214,0
1779865052.221401,2030,2053,0
1779865052.222189,2080,2034,0
1779865052.222249,2032,2207,0
1779865052.223582,1997,2284,0
1779865052.230001,2055,2074,0
1779865052.231283,2122,2023,0
1779865052.2332401,2012,1896,0
1779865052.233589,1976,2009,0
1779865052.2359731,2022,2050,0
1779865052.239054,2028,2047,0
1779865052.239671,2031,2076,0
1779865052.2401578,1948,2229,0
1779865052.24385,2038,2234,0
1779865052.243933,2077,2027,0
1779865052.246568,2102,2043,0
1779865052.247896,2092,2049,0
1779865052.256004,2061,2103,0
1779865052.258131,2133,2001,0
1779865052.258382,2085,1933,0
1779865052.262203,2029,2091,0
1779865052.26383,1991,2357,0
1779865052.2642848,2024,2189,0
1779865052.26695,2089,2111,0
1779865052.267393,2039,1981,0
1779865052.267482,1981,2016,0
1779865052.267553,2013,2055,0
1779865052.278191,2010,1978,0
1779865052.2784908,2004,2109,0
1779865052.280788,1980,2246,0
1779865052.282551,2050,2109,0
1779865052.284089,2063,2012,0
1779865052.284461,2018,1936,0
1779865052.284883,2043,2066,0
1779865052.2851,2107,2179,0
1779865052.288058,2092,2046,0
1779865052.2881439,2021,2110,0
1779865052.289505,1988,2232,0
1779865052.292253,2005,2206,0
1779865052.2935,2080,1937,0
1779865052.300447,2070,1881,0
1779865052.303306,2013,1917,0
1779865052.3056262,2056,2028,0
1779865052.309438,2113,1873,0
1779865052.3102279,2082,1924,0
1779865052.310412,2027,2138,0
1779865052.313354,2051,2148,0
1779865052.313571,2035,2112,0
1779865052.3137128,1993,2034,0
1779865052.313826,1996,2088,0
1779865052.321287,2032,2081,0
1779865052.322412,2051,2013,0
1779865052.324384,2041,1936,0
1779865052.3279738,1987,2101,0
1779865052.329996,1979,2282,0
1779865052.330312,2100,2240,0
1779865052.3305972,2107,2023,0
1779865052.333054,2148,1957,0
1779865052.333406,2093,1967,0
1779865052.333461,2076,2023,0
1779865052.336024,2082,1967,0
1779865052.3373709,1993,2001,0
1779865052.346175,1996,2179,0
1779865052.348499,2066,2255,0
1779865052.3488,2076,1959,0
1779865052.349044,2062,1934,0
1779865052.3543081,2079,2033,0
1779865052.35469,2042,2073,0
1779865052.356975,2125,1954,0
1779865052.357713,2061,2067,0
1779865052.358113,2015,2211,0
1779865052.358238,1941,2272,0
1779865052.359673,1985,2007,0
1779865052.365133,2048,1902,0
1779865052.366848,1972,1966,0
1779865052.3685918,2033,2167,0
1779865052.368959,2083,1996,0
1779865052.371376,2038,1981,0
1779865052.373014,1966,2137,0
1779865052.374867,1992,2246,0
1779865052.377712,2128,2190,0
1779865052.378144,2063,1960,0
1779865052.3794858,2119,1947,0
1779865052.382159,2063,2027,0
1779865052.383529,2132,2013,0
1779865052.389329,2145,2025,0
1779865052.3911302,2063,2101,0
1779865052.393238,1887,2199,0
1779865052.393625,1991,2191,0
1779865052.3954089,2031,2081,0
1779865052.396123,2102,1979,0
1779865052.397664,2080,1997,0
1779865052.402268,2021,2188,0
1779865052.402415,2011,1972,0
1779865052.403771,1953,1986,0
1779865052.4095879,2055,2130,0
1779865052.411194,2034,2312,0
1779865052.413159,2109,2063,0
1779865052.4134982,2122,2003,0
1779865052.4158359,2082,1981,0
1779865052.4187992,2053,2127,0
1779865052.419648,2053,2051,0
1779865052.419858,2104,1977,0
1779865052.4228868,2030,2100,0
1779865052.424341,1971,2246,0
1779865052.425697,2064,2181,0
1779865052.4288158,2110,2071,0
1779865052.437294,2045,1923,0
1779865052.4376519,2009,2084,0
1779865052.443397,2035,2089,0
1779865052.443765,2073,1930,0
1779865052.444334,2030,2025,0
1779865052.4471118,2002,2139,0
1779865052.447167,2045,2196,0
1779865052.447296,2046,1961,0
1779865052.447411,2049,1967,0
1779865052.447503,2055,2001,0
1779865052.454083,1997,2146,0
1779865052.457877,2133,2008,0
1779865052.4583051,2056,2013,0
1779865052.4601421,1964,2157,0
1779865052.462261,2009,2347,0
1779865052.463974,2088,2119,0
1779865052.4642181,2102,2065,0
1779865052.4648461,2054,1991,0
1779865052.467496,1968,2053,0
1779865052.467765,2085,1961,0
1779865052.470644,2107,2046,0
1779865052.47198,2018,2172,0
1779865052.473384,2025,2292,0
1779865052.4798179,2096,2138,0
1779865052.4826958,2089,1958,0
1779865052.4869618,2055,1957,0
1779865052.487205,2048,2060,0
1779865052.489077,2064,2139,0
1779865052.489346,2116,1988,0
1779865052.4899468,2057,2003,0
1779865052.492797,1954,2098,0
1779865052.49293,2012,2207,0
1779865052.494265,2072,2047,0
1779865052.5012789,2079,1974,0
1779865052.503465,2090,2027,0
1779865052.505601,2040,2112,0
1779865052.50777,2095,1987,0
1779865052.509558,2051,2063,0
1779865052.5100212,1992,2205,0
1779865052.513118,1984,2344,0
1779865052.513257,2098,2106,0
1779865052.5133991,2028,1994,0
1779865052.5135329,2078,1914,0
1779865052.516187,2044,2098,0
1779865052.517548,2107,2075,0
1779865052.525436,2090,2079,0
1779865052.528436,2015,2125,0
1779865052.534397,2010,2273,0
1779865052.534772,2024,2166,0
1779865052.5356832,2096,2003,0
1779865052.5386298,2149,1971,0
1779865052.538692,2097,1935,0
1779865052.538879,2019,2044,0
1779865052.538958,2084,1942,0
1779865052.5390441,2056,1999,0
1779865052.54045,1957,2116,0
1779865052.5457568,2025,2181,0
1779865052.548942,2099,2031,0
1779865052.549294,2067,2074,0
1779865052.551391,2030,2058,0
1779865052.553206,1999,2092,0
1779865052.5550332,2013,2045,0
1779865052.5554051,2016,1960,0
1779865052.5557399,2046,2114,0
1779865052.558412,1990,2226,0
1779865052.559875,2071,2106,0
1779865052.562637,2073,2003,0
1779865052.564111,2041,1960,0
1779865052.570085,2094,2055,0
1779865052.574213,2171,2042,0
1779865052.576732,2085,1923,0
1779865052.579456,1983,2095,0
1779865052.5816488,2023,2262,0
1779865052.582468,2071,2138,0
1779865052.582576,2107,2000,0
1779865052.582628,2078,1920,0
1779865052.5828109,2052,2009,0
1779865052.58413,2073,2130,0
1779865052.590555,2030,2043,0
1779865052.5960472,2030,2102,0
1779865052.599896,2019,2153,0
1779865052.60005,2028,2161,0
1779865052.603138,2106,2033,0
1779865052.603263,2139,2002,0
1779865052.603412,2050,1977,0
1779865052.603467,2028,2047,0
1779865052.6035159,2106,2034,0
1779865052.603561,2024,2017,0
1779865052.606163,2001,2169,0
1779865052.607529,2001,2260,0
1779865052.615516,2066,2034,0
1779865052.61986,2068,2014,0
1779865052.624453,2067,1944,0
1779865052.6274471,2040,2065,0
1779865052.62751,2081,2011,0
1779865052.6275551,2073,1946,0
1779865052.627699,2047,2074,0
1779865052.627743,2046,2197,0
1779865052.6278882,2027,2126,0
1779865052.627966,2059,1997,0
1779865052.6292832,2102,1960,0
1779865052.635743,2083,2038,0
1779865052.63642,2072,2106,0
1779865052.6383512,2031,2005,0
1779865052.638539,2058,2089,0
1779865052.642515,2066,2203,0
1779865052.6469371,2083,2253,0
1779865052.647797,2070,1984,0
1779865052.648063,2122,1980,0
1779865052.648142,2095,2077,0
1779865052.6496,2062,2065,0
1779865052.652364,2051,1950,0
1779865052.653874,1988,1969,0
1779865052.65875,2017,2109,0
1779865052.6628008,2013,2261,0
1779865052.6664262,2095,2078,0
1779865052.6666298,2079,2061,0
1779865052.668797,2065,2010,0
1779865052.669075,2040,2057,0
1779865052.6695292,2107,2039,0
1779865052.6698,2072,2050,0
1779865052.672791,2045,2177,0
1779865052.674179,1981,2257,0
1779865052.6832461,2060,2141,0
1779865052.683487,2128,2075,0
1779865052.6854231,2061,2056,0
1779865052.686186,2113,2040,0
1779865052.689806,2110,2022,0
1779865052.690141,2075,1921,0
1779865052.69072,2065,2011,0
1779865052.693711,1976,2177,0
1779865052.693818,1968,2121,0
1779865052.693952,2091,1992,0
1779865052.695392,2118,2045,0
1779865052.698108,2080,1959,0
1779865052.699487,2018,2023,0
1779865052.704764,2093,1999,0
1779865052.705853,2073,2039,0
1779865052.707996,2014,2174,0
1779865052.709791,2018,2279,0
1779865052.7122402,2101,2063,0
1779865052.715044,2058,1993,0
1779865052.71536,2066,2010,0
1779865052.7180622,2069,2119,0
1779865052.718347,2069,2016,0
1779865052.719715,2088,2058,0
1779865052.729048,2079,2172,0
1779865052.731201,2018,2202,0
1779865052.7333262,2062,2159,0
1779865052.7357109,2059,2026,0
1779865052.736083,2073,2020,0
1779865052.736314,2149,2114,0
1779865052.736578,2304,2062,0
1779865052.736932,2132,1897,0
1779865052.739672,1999,2026,0
1779865052.739904,2077,2123,0
1779865052.741747,2209,2175,0
1779865052.7445,2298,2044,0
1779865052.750462,2239,1936,0
1779865052.751206,1765,2079,0
1779865052.755421,1773,2173,0
1779865052.760602,2077,1978,0
1779865052.763479,2309,1959,0
1779865052.763965,2009,2140,0
1779865052.76409,1828,2303,0
1779865052.764197,1868,2115,0
1779865052.764268,1930,2011,0
1779865052.764363,1996,1981,0
1779865052.765919,2103,2004,0
1779865052.771264,2231,2004,0
1779865052.774814,2294,1993,0
1779865052.7774239,2369,1999,0
1779865052.7810292,2133,2298,0
1779865052.78146,2016,2168,0
1779865052.78214,1848,2095,0
1779865052.785095,1973,2054,0
1779865052.785275,2024,2099,0
1779865052.7853801,2467,2012,0
1779865052.785543,2243,2055,0
1779865052.788225,2395,1933,0
1779865052.789612,1750,2328,0
1779865052.79675,1539,2335,0
1779865052.7998688,1844,1987,0
1779865052.800266,2070,1863,0
1779865052.802207,2078,1962,0
1779865052.804405,1937,2169,0
1779865052.8068092,1885,2057,0
1779865052.807175,1836,2151,0
1779865052.80986,1916,2188,0
1779865052.8108191,2223,2195,0
1779865052.81089,3060,1895,0
1779865052.812365,2157,2201,0
1779865052.818468,1890,2097,0
1779865052.819843,1958,2113,0
1779865052.821908,1918,2068,0
1779865052.825801,1903,2010,0
1779865052.8281841,1702,2095,0
1779865052.8285398,1830,2229,0
1779865052.828747,2069,2163,0
1779865052.8291981,2186,1940,0
1779865052.832174,2250,1944,0
1779865052.832331,2277,2053,0
1779865052.83368,2309,2020,0
1779865052.836281,2483,1897,0
1779865052.8376908,2076,2117,0
1779865052.842881,1903,2193,0
1779865052.844558,2258,2305,0
1779865052.8467588,2137,2007,0
1779865052.847296,1944,2026,0
1779865052.853955,1871,2126,0
1779865052.8546932,1850,2125,0
1779865052.854888,1897,2039,0
1779865052.857183,1891,2026,0
1779865052.8580039,1915,2181,0
1779865052.858132,1966,2303,0
1779865052.8594828,2063,2077,0
1779865052.86533,2131,2092,0
1779865052.8659148,2208,2024,0
1779865052.868843,2149,1994,0
1779865052.87311,2109,2017,0
1779865052.8758368,2075,1976,0
1779865052.8762162,2057,2090,0
1779865052.878602,2058,2220,0
1779865052.878782,2131,2162,0
1779865052.8796,2214,1993,0
1779865052.8797529,2185,1961,0
1779865052.882446,2132,2055,0
1779865052.883805,2340,2070,0
1779865052.8853009,2182,1998,0
1779865052.891196,2075,2173,0
1779865052.892766,2012,2220,0
1779865052.8948748,1928,2221,0
1779865052.897527,2012,2072,0
1779865052.901963,2112,1892,0
1779865052.902326,2117,1976,0
1779865052.9047449,2073,1999,0
1779865052.905569,2165,1840,0
1779865052.905729,2136,1967,0
1779865052.905776,1866,2124,0
1779865052.9073029,1836,2217,0
1779865052.9128058,1991,2075,0
1779865052.914573,2029,2099,0
1779865052.9182541,2144,2048,0
1779865052.9189692,2398,2124,0
1779865052.9192,2780,1955,0
1779865052.923084,2641,1963,0
1779865052.923539,1722,2070,0
1779865052.926674,1809,2068,0
1779865052.926799,2953,2062,0
1779865052.928224,2189,2175,0
1779865052.929784,1450,2031,0
1779865052.931427,1662,2049,0
1779865052.937689,1347,2186,0
1779865052.942573,1650,2019,0
1779865052.9445581,1648,2081,0
1779865052.9448378,1917,2165,0
1779865052.9475589,1901,2218,0
1779865052.948025,2439,1823,0
1779865052.948595,2608,1909,0
1779865052.951342,2126,2018,0
1779865052.951481,1956,2139,0
1779865052.951583,1956,2051,0
1779865052.958453,2090,2151,0
1779865052.9604638,2456,2218,0
1779865052.962317,2270,2309,0
1779865052.9628842,2022,2028,0
1779865052.966808,1467,2052,0
1779865052.970073,2147,2232,0
1779865052.970359,2587,2338,0
1779865052.972409,2018,2068,0
1779865052.973485,1625,1887,0
1779865052.973582,1868,2376,0
1779865052.973637,1829,2557,0
1779865052.976285,1970,2059,0
1779865052.977638,2277,2043,0
1779865052.985315,2197,1890,0
1779865052.989294,2203,1995,0
1779865052.994792,2229,1955,0
1779865052.9954271,2580,1508,0
1779865052.995656,2507,1729,0
1779865052.995837,2778,1713,0
1779865052.998754,2037,1937,0
1779865052.998893,1668,1853,0
1779865052.9990048,2232,1792,0
1779865052.999118,2348,2072,0
1779865052.9992661,3292,2142,0
1779865053.010751,2667,1960,0
1779865053.013529,1542,2290,0
1779865053.0168362,1727,2632,0
1779865053.0172741,1974,2275,0
1779865053.019928,1736,2396,0
1779865053.0203059,1698,2131,0
1779865053.020362,1868,2084,0
1779865053.020457,1898,2222,0
1779865053.020635,1943,2198,0
1779865053.020681,1992,2163,0
1779865053.022049,2070,2248,0
1779865053.0234728,2316,2298,0
1779865053.0263622,2845,2203,0
1779865053.032338,2352,2153,0
1779865053.0331168,2218,2086,0
1779865053.035135,2291,2105,0
1779865053.0391061,2265,2106,0
1779865053.045096,2010,2084,0
1779865053.0454311,1985,2191,0
1779865053.045488,2125,2164,0
1779865053.045652,2140,2275,0
1779865053.04578,2328,2101,0
1779865053.045829,2363,2060,0
1779865053.047442,2465,2003,0
1779865053.062947,2031,2165,0
1779865053.0654662,1821,2093,0
1779865053.066427,2035,2092,0
1779865053.066752,2256,2138,0
1779865053.066896,1896,2395,0
1779865053.067062,2151,2209,0
1779865053.067161,2041,2162,0
1779865053.067225,2098,2035,0
1779865053.0672882,1891,2111,0
1779865053.0674539,1697,2106,0
1779865053.070229,2050,2035,0
1779865053.071726,2273,2300,0
1779865053.078378,2171,2422,0
1779865053.081611,1878,2236,0
1779865053.0821178,1862,2134,0
1779865053.0886478,1965,2125,0
1779865053.089041,1986,2233,0
1779865053.089631,2035,2307,0
1779865053.092309,2107,2318,0
1779865053.092535,2325,2146,0
1779865053.092692,2450,2253,0
1779865053.092741,3062,2118,0
1779865053.094069,1585,2402,0
1779865053.1015759,1585,2254,0
1779865053.110108,2125,2001,0
1779865053.110871,1973,2165,0
1779865053.113589,1938,2164,0
1779865053.114033,1737,2280,0
1779865053.114091,2098,2208,0
1779865053.114243,1987,2381,0
1779865053.114346,2220,2108,0
1779865053.114429,1772,2166,0
1779865053.1145952,1515,1922,0
1779865053.1161652,2674,1856,0
1779865053.117517,2436,1974,0
1779865053.125513,1435,1992,0
1779865053.1290472,1879,1797,0
1779865053.1309729,2154,1949,0
1779865053.131545,1872,2333,0
1779865053.1366138,1887,2227,0
1779865053.1397069,1918,2056,0
1779865053.1398652,2107,2099,0
1779865053.139967,2119,2095,0
1779865053.140089,2035,1959,0
1779865053.140182,2127,2060,0
1779865053.140231,1875,2106,0
1779865053.14155,2048,2226,0
1779865053.1478431,2740,1908,0
1779865053.148403,2663,1966,0
1779865053.150673,1902,2085,0
1779865053.153206,1806,2229,0
1779865053.153943,2197,1900,0
1779865053.1557162,2517,1945,0
1779865053.159063,2352,2164,0
1779865053.159382,1042,2381,0
1779865053.15966,1673,2370,0
1779865053.162433,2299,2354,0
1779865053.163775,2306,1861,0
1779865053.165102,1941,2009,0
1779865053.167776,2063,2188,0
1779865053.174028,2029,2213,0
1779865053.175669,1982,2385,0
1779865053.177693,1839,2076,0
1779865053.177917,1947,2134,0
1779865053.1782138,1982,2049,0
1779865053.180694,1975,1744,0
1779865053.182231,2218,2093,0
1779865053.188483,2200,2407,0
1779865053.188788,2311,2110,0
1779865053.188847,2142,1809,0
1779865053.190264,1922,2295,0
1779865053.1966789,2279,2408,0
1779865053.1980019,2319,2030,0
1779865053.199923,2361,2013,0
1779865053.202383,2209,2152,0
1779865053.202603,2096,2121,0
1779865053.2042072,2334,2371,0
1779865053.207556,1870,1831,0
1779865053.210757,1935,1886,0
1779865053.210998,1755,1959,0
1779865053.211072,1840,1913,0
1779865053.211125,1851,2460,0
1779865053.213963,2270,2254,0
1779865053.215203,2240,1951,0
1779865053.2232919,1817,2279,0
1779865053.2263858,1613,2734,0
1779865053.227984,2236,2856,0
1779865053.2292721,2761,2977,0
1779865053.230877,2567,2508,0
1779865053.2343419,2114,2201,0
1779865053.234646,2084,2181,0
1779865053.2349179,2249,2358,0
1779865053.235189,2152,2179,0
1779865053.2374039,2237,1759,0
1779865053.2381802,1808,1659,0
1779865053.239606,1339,1697,0
1779865053.245947,1709,2371,0
1779865053.2487,1995,2374,0
1779865053.249092,2100,1996,0
1779865053.249311,2096,1906,0
1779865053.25323,2155,1928,0
1779865053.257059,1889,2270,0
1779865053.259896,2107,2284,0
1779865053.259996,2082,2116,0
1779865053.260074,1808,2138,0
1779865053.260183,2045,2011,0
1779865053.261562,2062,2108,0
1779865053.264169,1937,2061,0
1779865053.265604,1969,1969,0
1779865053.2709508,1984,1953,0
1779865053.276602,2099,1984,0
1779865053.277589,2115,2247,0
1779865053.278711,2223,2202,0
1779865053.282113,2363,2254,0
1779865053.285501,2117,1856,0
1779865053.285627,1988,1914,0
1779865053.2857769,1910,2242,0
1779865053.2859,1972,2168,0
1779865053.285978,2168,1962,0
1779865053.2873118,2193,1971,0
1779865053.291913,2228,2079,0
1779865053.294086,2072,2268,0
1779865053.2964501,2127,2103,0
1779865053.298086,2052,2117,0
1779865053.3008761,1956,1960,0
1779865053.304211,2148,1944,0
1779865053.305012,2538,2032,0
1779865053.30812,2141,2306,0
1779865053.308306,1758,2276,0
1779865053.308411,1796,2194,0
1779865053.309866,1963,2008,0
1779865053.311223,2086,2054,0
1779865053.314208,2165,2276,0
1779865053.319554,2268,2245,0
1779865053.322669,2396,2112,0
1779865053.324227,3283,1592,0
1779865053.325217,2644,2273,0
1779865053.3303108,1997,2324,0
1779865053.3334222,2051,2042,0
1779865053.3337111,1775,2076,0
1779865053.333834,1757,1963,0
1779865053.3339899,1901,2272,0
1779865053.334118,1898,2327,0
1779865053.3354619,1791,2033,0
1779865053.342077,1701,2036,0
1779865053.345203,1771,2221,0
1779865053.352107,2231,2352,0
1779865053.352822,2498,1991,0
1779865053.35605,2338,1774,0
1779865053.356147,2294,2109,0
1779865053.3562171,2303,2090,0
1779865053.356281,2052,2249,0
1779865053.35634,2084,1954,0
1779865053.356448,1954,2099,0
1779865053.357863,2004,2289,0
1779865053.359322,2452,2259,0
1779865053.3624058,2497,2434,0
1779865053.3686311,2157,2471,0
1779865053.373014,2015,2340,0
1779865053.3756318,1940,2476,0
1779865053.375794,1976,2399,0
1779865053.379452,2074,2291,0
1779865053.3796842,2214,2542,0
1779865053.3798249,2334,2252,0
1779865053.382694,2293,2312,0
1779865053.3830001,2085,1942,0
1779865053.383054,2266,1922,0
1779865053.383102,2240,2092,0
1779865053.3856409,2017,2164,0
1779865053.390965,1516,2321,0
1779865053.3938282,1558,2277,0
1779865053.394156,1808,2296,0
1779865053.396116,2073,2199,0
1779865053.398305,2324,2099,0
1779865053.4015832,2691,1834,0
1779865053.402157,2268,2161,0
1779865053.402488,1478,2229,0
1779865053.405427,2048,1979,0
1779865053.405609,2001,2053,0
1779865053.408225,2116,2176,0
1779865053.4095511,2028,2215,0
1779865053.416696,1708,2142,0
1779865053.4201002,1679,2168,0
1779865053.424333,1825,2240,0
1779865053.428289,2054,2044,0
1779865053.43106,2198,2112,0
1779865053.431168,2208,2134,0
1779865053.4313211,2068,2207,0
1779865053.4314291,2069,2219,0
1779865053.431482,2068,2090,0
1779865053.43153,2071,2008,0
1779865053.431781,2019,2022,0
1779865053.4334831,2058,2118,0
1779865053.4453828,2145,2027,0
1779865053.4491808,2132,2095,0
1779865053.452045,2154,2192,0
1779865053.4529479,2235,2137,0
1779865053.453006,2080,2170,0
1779865053.453133,2180,2007,0
1779865053.453242,1946,2034,0
1779865053.45343,1932,2033,0
1779865053.4534888,2068,2047,0
1779865053.453536,2113,1950,0
1779865053.456139,2028,2173,0
1779865053.457574,1958,2236,0
1779865053.463796,2020,2230,0
1779865053.467905,2010,2146,0
1779865053.4681568,2024,2083,0
1779865053.472162,2036,2075,0
1779865053.4757068,2091,2042,0
1779865053.475919,2105,2030,0
1779865053.476394,2098,2069,0
1779865053.4793978,1970,2174,0
1779865053.479522,1920,2217,0
1779865053.479573,2071,2092,0
1779865053.4796429,2071,2027,0
1779865053.487202,2045,1970,0
1779865053.488819,2057,2116,0
1779865053.490804,2184,2129,0
1779865053.4931278,2209,2179,0
1779865053.494712,2246,2085,0
1779865053.498104,2036,2276,0
1779865053.4983091,1924,2174,0
1779865053.49891,1955,2101,0
1779865053.501994,2028,2097,0
1779865053.5024261,1973,2150,0
1779865053.502509,2031,2154,0
1779865053.50416,1959,2000,0
1779865053.505644,1958,2080,0
1779865053.508209,1990,2160,0
1779865053.514554,2119,2097,0
1779865053.5152209,2143,1969,0
1779865053.517431,2204,1973,0
1779865053.517676,2117,2034,0
1779865053.517727,2119,2057,0
1779865053.5250869,2037,2014,0
1779865053.527772,1997,2083,0
1779865053.5286431,1975,2173,0
1779865053.528764,2005,2083,0
1779865053.5288231,2077,2061,0
1779865053.5301409,2061,2019,0
1779865053.538868,2071,2096,0
1779865053.541203,1995,2099,0
1779865053.541863,2047,2115,0
1779865053.544052,2137,2144,0
1779865053.5476859,2114,2217,0
1779865053.547949,2012,2268,0
1779865053.5481799,2062,2146,0
1779865053.550849,2054,2004,0
1779865053.551122,2064,1977,0
1779865053.551172,2005,1994,0
1779865053.551255,2095,1925,0
1779865053.553962,2051,1952,0
1779865053.5553868,1982,2074,0
1779865053.562679,1979,2106,0
1779865053.5633311,2265,2014,0
1779865053.564489,2180,1989,0
1779865053.570646,2040,1959,0
1779865053.57444,2047,2190,0
1779865053.575249,2002,2065,0
1779865053.57807,1942,2081,0
1779865053.5781739,2053,2117,0
1779865053.578309,1998,2188,0
1779865053.578432,2181,2151,0
1779865053.5784771,2049,2146,0
1779865053.579859,1920,2209,0
1779865053.586269,1956,2171,0
1779865053.58755,1986,2130,0
1779865053.589495,2070,2001,0
1779865053.589819,2181,2009,0
1779865053.592179,1941,2168,0
1779865053.593844,1865,2204,0
1779865053.597214,2037,2082,0
1779865053.597832,2102,2000,0
1779865053.5980868,2119,2029,0
1779865053.600286,2259,2110,0
1779865053.601621,2168,2029,0
1779865053.6030002,2055,2045,0
1779865053.6055832,2117,2184,0
1779865053.606982,2076,2243,0
1779865053.612772,1953,2135,0
1779865053.615943,2191,2023,0
1779865053.6178079,2165,2096,0
1779865053.620398,2085,2140,0
1779865053.6245701,2080,2090,0
1779865053.627676,2019,2100,0
1779865053.627834,1933,2086,0
1779865053.627886,1910,2227,0
1779865053.627936,1949,2167,0
1779865053.628066,2001,2035,0
1779865053.62951,2077,1990,0
1779865053.634732,2075,2025,0
1779865053.638457,2094,2076,0
1779865053.640537,2206,2016,0
1779865053.642975,2149,2106,0
1779865053.646485,2073,2159,0
1779865053.64683,2082,2195,0
1779865053.647032,2136,2038,0
1779865053.650311,2082,2078,0
1779865053.650367,2126,2071,0
1779865053.650485,2012,2165,0
1779865053.651871,2083,2054,0
1779865053.653265,2033,2018,0
1779865053.655877,2068,2193,0
1779865053.6651971,2075,2271,0
1779865053.665587,2119,2142,0
1779865053.6730518,2191,1975,0
1779865053.673548,2162,2006,0
1779865053.675692,1973,2078,0
1779865053.676596,2217,2138,0
1779865053.676654,2078,2149,0
1779865053.6768541,1934,2181,0
1779865053.6770508,1871,2143,0
1779865053.677242,1898,2204,0
1779865053.6774049,1993,2056,0
1779865053.67913,2019,2048,0
1779865053.684889,2055,2004,0
1779865053.687279,2032,2118,0
1779865053.687621,2117,1982,0
1779865053.6919649,2101,1966,0
1779865053.695949,2103,2057,0
1779865053.6986,2056,2177,0
1779865053.69905,2117,2063,0
1779865053.699463,2092,2037,0
1779865053.699542,2078,1999,0
1779865053.699622,2033,2100,0
1779865053.70099,2053,1988,0
1779865053.703639,2043,1909,0
1779865053.7132921,2065,2047,0
1779865053.716249,2052,2195,0
1779865053.7177548,2105,2122,0
1779865053.7214668,2121,2046,0
1779865053.7222788,2078,2030,0
1779865053.722751,2073,2101,0
1779865053.724768,2071,2121,0
1779865053.725549,2153,2002,0
1779865053.7256472,2054,2037,0
1779865053.7257018,1990,2157,0
1779865053.726017,2006,2101,0
1779865053.727447,2131,2037,0
1779865053.733195,2100,2191,0
1779865053.735009,1988,2197,0
1779865053.737173,1998,2113,0
1779865053.744629,2050,1988,0
1779865053.7452202,2062,2041,0
1779865053.745443,2036,2272,0
1779865053.748838,2001,2217,0
1779865053.749084,2124,2023,0
1779865053.749164,2118,2056,0
1779865053.749215,2096,2113,0
1779865053.7492638,2039,2122,0
1779865053.751884,2006,2057,0
1779865053.753221,2094,2071,0
1779865053.761801,2043,2111,0
1779865053.7624059,2010,2152,0
1779865053.7646139,2084,2175,0
1779865053.767484,2097,2060,0
1779865053.772388,2100,2009,0
1779865053.772958,2027,2051,0
1779865053.773512,2081,2016,0
1779865053.7764869,2095,2004,0
1779865053.776614,2089,2090,0
1779865053.776709,2024,2205,0
1779865053.776763,1994,2195,0
1779865053.778186,2013,2042,0
1779865053.785003,2035,2061,0
1779865053.789174,2047,2062,0
1779865053.791931,2102,2058,0
1779865053.795878,2053,2025,0
1779865053.796146,2023,2110,0
1779865053.796416,2003,2131,0
1779865053.799026,2033,2143,0
1779865053.7994828,2156,1968,0
1779865053.7996101,2049,1953,0
1779865053.799775,2004,1928,0
1779865053.799872,2083,2050,0
1779865053.8012202,2132,2078,0
1779865053.8039198,2159,2033,0
1779865053.8055758,1971,2123,0
1779865053.809509,1973,2253,0
1779865053.813718,2132,2190,0
1779865053.814038,2188,2013,0
1779865053.815962,2099,1902,0
1779865053.818063,2089,1856,0
1779865053.818229,2049,1903,0
1779865053.8220181,1910,1601,0
1779865053.822222,1897,2001,0
1779865053.825057,2079,2475,0
1779865053.825283,2085,2228,0
1779865053.83229,2131,1943,0
1779865053.835331,2093,1914,0
1779865053.835815,2159,1852,0
1779865053.838408,2173,2081,0
1779865053.840032,2161,2074,0
1779865053.840298,2048,1923,0
1779865053.843509,2058,1931,0
1779865053.844102,2029,1980,0
1779865053.846405,2112,2071,0
1779865053.847845,2111,2059,0
1779865053.848147,2113,2000,0
1779865053.8496058,2071,2059,0
1779865053.850962,1817,1940,0
1779865053.853576,1774,1984,0
1779865053.8602161,2182,2551,0
1779865053.863883,2345,2548,0
1779865053.8642712,2059,2020,0
1779865053.866684,1966,1913,0
1779865053.8684,2106,2066,0
1779865053.871702,2184,2247,0
1779865053.883678,2172,2171,0
1779865053.885081,2114,1989,0
1779865053.890622,2111,1924,0
1779865053.89252,1978,1901,0
1779865053.8927271,1990,1957,0
1779865053.896194,2192,2015,0
1779865053.896727,1983,1950,0
1779865053.8970098,1998,2034,0
1779865053.9001741,2004,2092,0
1779865053.900661,2148,2033,0
1779865053.900723,2038,1925,0
1779865053.90077,2099,2125,0
1779865053.900815,2097,2185,0
1779865053.9011068,2008,2006,0
1779865053.901202,1968,1825,0
1779865053.901247,2030,1835,0
1779865053.901291,2015,2068,0
1779865053.901438,2150,2075,0
1779865053.9041479,2134,1840,0
1779865053.905497,1997,1864,0
1779865053.913226,1985,1874,0
1779865053.91445,2239,1917,0
1779865053.916225,2095,1912,0
1779865053.9207768,2051,1880,0
1779865053.921095,1963,1943,0
1779865053.9248059,2138,1969,0
1779865053.92526,2077,1920,0
1779865053.9274418,1998,2033,0
1779865053.928276,1973,2014,0
1779865053.928416,1925,2049,0
1779865053.9285052,1980,1880,0
1779865053.929976,2099,1940,0
1779865053.9372602,2140,2088,0
1779865053.9438322,2158,2097,0
1779865053.9479208,2088,2041,0
1779865053.950181,2087,1995,0
1779865053.9510689,1979,2019,0
1779865053.95116,1972,1890,0
1779865053.9512289,2052,2155,0
1779865053.951297,2069,2061,0
1779865053.95136,2038,1820,0
1779865053.951426,1983,1922,0
1779865053.951496,1994,1882,0
1779865053.954252,2132,1713,0
1779865053.955758,2168,2089,0
1779865053.957186,2042,2069,0
1779865053.966948,1985,1734,0
1779865053.9708219,2036,1713,0
1779865053.974684,2234,1708,0
1779865053.974833,1987,1698,0
1779865053.977115,1922,1884,0
1779865053.9778402,1939,1869,0
1779865053.977949,2098,2029,0
1779865053.978032,1884,2140,0
1779865053.978078,1980,2303,0
1779865053.978121,2119,2246,0
1779865053.9794738,2070,2034,0
1779865053.989126,2225,2040,0
1779865053.9966989,2164,2085,0
1779865053.997377,2102,1849,0
1779865054.000475,1861,1874,0
1779865054.000581,1989,1872,0
1779865054.0006568,2192,1971,0
1779865054.000801,2208,1801,0
1779865054.000881,2085,1732,0
1779865054.000951,1941,1676,0
1779865054.001017,2025,2097,0
1779865054.001077,2193,2115,0
1779865054.003745,2137,1968,0
1779865054.0050821,2087,2049,0
1779865054.016294,2046,2241,0
1779865054.0209112,2043,2298,0
1779865054.027425,2000,2207,0
1779865054.027849,2029,2210,0
1779865054.027957,2036,2157,0
1779865054.02806,2038,2107,0
1779865054.028117,2167,1915,0
1779865054.028163,2161,2001,0
1779865054.028206,2071,2176,0
1779865054.028249,2057,2219,0
1779865054.0282922,2107,2116,0
1779865054.029693,2102,2118,0
1779865054.043394,2082,2111,0
1779865054.049453,2032,2170,0
1779865054.050089,2103,2107,0
1779865054.053675,2080,1964,0
1779865054.053746,2028,2074,0
1779865054.053801,1991,2255,0
1779865054.053853,2085,2109,0
1779865054.053903,2058,2061,0
1779865054.053953,2096,2005,0
1779865054.054003,2080,2111,0
1779865054.054069,2099,1995,0
1779865054.054118,2115,1943,0
1779865054.055486,2021,2064,0
1779865054.056871,1970,2150,0
1779865054.0597289,2011,2176,0
1779865054.0609438,2097,2134,0
1779865054.075144,2054,2060,0
1779865054.0837371,2040,2084,0
1779865054.08391,2088,2071,0
1779865054.08406,2123,2000,0
1779865054.084262,2107,2014,0
1779865054.084589,2038,2089,0
1779865054.085085,1993,2045,0
1779865054.085164,2109,1919,0
1779865054.085217,2131,1900,0
1779865054.085359,2094,1884,0
1779865054.0854578,2033,2026,0
1779865054.085529,2120,1999,0
1779865054.106422,2125,1975,0
1779865054.112569,2061,2135,0
1779865054.113195,1997,2156,0
1779865054.113879,2112,2104,0
1779865054.113981,2069,2038,0
1779865054.114042,2067,1958,0
1779865054.11417,1987,2034,0
1779865054.114463,2030,1975,0
1779865054.114905,2042,2027,0
1779865054.115387,2007,2033,0
1779865054.1155689,2034,2119,0
1779865054.11568,2099,2146,0
1779865054.115851,2131,1931,0
1779865054.1159291,2143,1985,0
1779865054.116193,2121,2005,0
1779865054.117716,2053,1971,0
1779865054.141727,2112,1814,0
1779865054.142106,2049,1914,0
1779865054.1422238,2025,2000,0
1779865054.1423738,2025,2043,0
1779865054.1424441,2057,1848,0
1779865054.142559,2076,1835,0
1779865054.142764,2074,1937,0
1779865054.14292,2018,1996,0
1779865054.1430662,2114,1881,0
1779865054.1432042,2092,1900,0
1779865054.143439,2048,2151,0
1779865054.143614,2059,2252,0
1779865054.143666,2113,2042,0
1779865054.14514,2015,1952,0
1779865054.166522,2048,1968,0
1779865054.1674082,2069,2073,0
1779865054.1676888,2060,2068,0
1779865054.168195,2100,1991,0
1779865054.168363,2098,2148,0
1779865054.171763,2059,2270,0
1779865054.1718779,2064,2106,0
1779865054.17194,2106,1992,0
1779865054.1720629,2130,1992,0
1779865054.1721501,2077,2026,0
1779865054.1722,2105,2060,0
1779865054.1722481,2095,1990,0
1779865054.172297,2044,2157,0
1779865054.173652,2039,2248,0
1779865054.17539,2009,2214,0
1779865054.177998,2095,2009,0
1779865054.19281,2161,2071,0
1779865054.2037802,2208,2071,0
1779865054.2040582,2158,2109,0
1779865054.204204,2061,2055,0
1779865054.204284,2078,2010,0
1779865054.204355,2004,2145,0
1779865054.2044191,1964,2278,0
1779865054.204486,1984,2081,0
1779865054.2045472,2053,1967,0
1779865054.204649,1995,1998,0
1779865054.2047071,2044,2120,0
1779865054.204758,2027,2052,0
1779865054.204811,2075,1908,0
1779865054.2051609,2043,2086,0
1779865054.226876,2003,2264,0
1779865054.22736,2091,2187,0
1779865054.227566,2148,2073,0
1779865054.2277381,2115,2027,0
1779865054.227874,2024,2094,0
1779865054.227981,2049,2124,0
1779865054.2280571,2086,2028,0
1779865054.228122,2046,2124,0
1779865054.2281852,1999,2254,0
1779865054.228291,2001,2226,0
1779865054.2284439,2092,2016,0
1779865054.229812,2129,2007,0
1779865054.231349,2100,2076,0
1779865054.239716,2021,2077,0
1779865054.25934,2105,2009,0
1779865054.259457,2115,1981,0
1779865054.259518,2063,2118,0
1779865054.259677,1993,2242,0
1779865054.259829,2088,2081,0
1779865054.259975,2035,1965,0
1779865054.260052,2063,2002,0
1779865054.2601469,2045,2155,0
1779865054.2602031,2068,2078,0
1779865054.2602549,2048,1964,0
1779865054.260308,2010,2072,0
1779865054.2603588,2023,2199,0
1779865054.260409,2079,2103,0
1779865054.2681441,2111,2036,0
1779865054.2728572,2096,2038,0
1779865054.2757618,2090,2098,0
1779865054.2816,2059,2076,0
1779865054.2851741,2067,2001,0
1779865054.285316,2014,2074,0
1779865054.285443,2103,2188,0
1779865054.2855191,2103,2256,0
1779865054.286338,2158,2053,0
1779865054.286525,2053,1954,0
1779865054.286599,2045,1982,0
1779865054.286977,2023,2040,0
1779865054.287133,2045,2005,0
1779865054.287301,2084,2076,0
1779865054.289792,2065,2157,0
1779865054.2912462,2003,2330,0
1779865054.2992861,2039,2080,0
1779865054.3022668,2110,2052,0
1779865054.310403,2095,2119,0
1779865054.3107688,2097,2171,0
1779865054.314432,2113,2088,0
1779865054.315491,2249,2006,0
1779865054.3155599,2227,2069,0
1779865054.3156312,1990,2197,0
1779865054.3156831,1934,2137,0
1779865054.315733,2397,1970,0
1779865054.315781,2434,2064,0
1779865054.31583,2219,2124,0
1779865054.317224,2424,1916,0
1779865054.33077,2364,2029,0
1779865054.331785,1657,2284,0
1779865054.33362,1666,2083,0
1779865054.3340852,1666,2179,0
1779865054.3409832,1846,2051,0
1779865054.341095,2511,1905,0
1779865054.341175,1838,2189,0
1779865054.3412402,1734,2124,0
1779865054.341305,1802,2088,0
1779865054.3413692,1844,2086,0
1779865054.341434,2014,2164,0
1779865054.341502,2445,2210,0
1779865054.342942,2239,2156,0
1779865054.346661,2353,2068,0
1779865054.3566139,2222,1980,0
1779865054.367948,1806,2185,0
1779865054.373451,2806,1719,0
1779865054.373555,2214,2042,0
1779865054.373631,2171,2108,0
1779865054.3737001,1982,2184,0
1779865054.37377,1612,2232,0
1779865054.373837,1546,2173,0
1779865054.373997,1756,2076,0
1779865054.3740768,1980,2028,0
1779865054.374157,1992,2077,0
1779865054.374223,1856,2137,0
1779865054.3742862,2017,2082,0
1779865054.374347,2126,2174,0
1779865054.391089,2386,2190,0
1779865054.398488,2564,1932,0
1779865054.3985898,2382,2019,0
1779865054.3986602,1884,2075,0
1779865054.3987231,1838,2010,0
1779865054.400116,2541,1917,0
1779865054.400275,2262,2086,0
1779865054.400362,1976,2172,0
1779865054.400434,1756,2220,0
1779865054.4006872,2085,2004,0
1779865054.4008782,2097,2043,0
1779865054.401091,1946,2038,0
1779865054.4018528,1851,2121,0
1779865054.4019551,2048,2067,0
1779865054.404225,2151,2090,0
1779865054.4057221,2393,2015,0
1779865054.4075892,2170,2226,0
1779865054.4289439,2225,2155,0
1779865054.4290519,2047,2120,0
1779865054.4291892,2321,1915,0
1779865054.4292989,2509,1977,0
1779865054.429358,2606,2093,0
1779865054.4294112,2265,1987,0
1779865054.429462,1219,2169,0
1779865054.429512,1651,2102,0
1779865054.429562,2051,2224,0
1779865054.429611,2191,1991,0
1779865054.429787,2122,1901,0
1779865054.431185,1945,1993,0
1779865054.440175,1880,2024,0
1779865054.447583,2131,1926,0
1779865054.456636,2130,2051,0
1779865054.4568791,2086,2099,0
1779865054.4576159,1969,2232,0
1779865054.457852,2260,2052,0
1779865054.457939,2048,2127,0
1779865054.457994,2203,2012,0
1779865054.458178,1823,2110,0
1779865054.458264,2101,2077,0
1779865054.458338,2046,2036,0
1779865054.458409,2193,2034,0
1779865054.4586601,2316,2036,0
1779865054.46,2216,2081,0
1779865054.462593,2080,1993,0
1779865054.4639978,1895,2027,0
1779865054.4657128,1783,2058,0
1779865054.480173,2158,1929,0
1779865054.4915898,2268,1798,0
1779865054.49202,1614,2027,0
1779865054.4921129,2028,1959,0
1779865054.4923022,2380,1950,0
1779865054.4923751,2110,1960,0
1779865054.4924428,1729,1838,0
1779865054.4925709,2227,1785,0
1779865054.492987,2622,2102,0
1779865054.493074,2451,2388,0
1779865054.493133,3453,2149,0
1779865054.493182,830,2634,0
1779865054.4932292,766,2464,0
1779865054.493379,1710,2370,0
1779865054.500212,2080,2239,0
1779865054.5016682,2647,2066,0
1779865054.5090969,2089,2335,0
1779865054.515585,1595,2069,0
1779865054.519223,1463,2080,0
1779865054.519295,1887,1927,0
1779865054.519352,2095,1989,0
1779865054.519485,2661,2224,0
1779865054.519636,3799,1916,0
1779865054.519707,2298,2489,0
1779865054.519766,888,2246,0
1779865054.520098,992,2191,0
1779865054.5202188,2017,2109,0
1779865054.522219,2066,2111,0
1779865054.52438,2440,2235,0
1779865054.5260649,2077,2235,0
1779865054.5364149,1811,1994,0
1779865054.551669,1874,2118,0
1779865054.553358,1772,1971,0
1779865054.5535018,2228,1959,0
1779865054.55472,2605,1956,0
1779865054.554973,2042,2081,0
1779865054.555068,2099,2079,0
1779865054.55514,2296,2199,0
1779865054.581147,2499,2124,0
1779865054.581229,1808,2066,0
1779865054.581284,1732,2024,0
1779865054.581336,2204,1898,0
1779865054.581387,2766,2070,0
1779865054.581436,2213,2056,0
1779865054.581485,2060,2143,0
1779865054.5815349,1847,2410,0
1779865054.581727,1942,2096,0
1779865054.581779,2534,2070,0
1779865054.581828,2186,2167,0
1779865054.5819268,1647,2372,0
1779865054.582007,1134,2322,0
1779865054.5820649,1666,2038,0
1779865054.5821362,2406,2025,0
1779865054.582193,2406,2232,0
1779865054.5822499,1827,2194,0
1779865054.58236,1694,1913,0
1779865054.582818,2001,1781,0
1779865054.5830898,2300,1723,0
1779865054.5832489,2433,1815,0
1779865054.584815,2456,1889,0
1779865054.587481,2242,1965,0
1779865054.598179,2452,2011,0
1779865054.614271,2086,2334,0
1779865054.6143749,2015,2097,0
1779865054.614447,1950,2200,0
1779865054.614513,2242,2028,0
1779865054.614629,2492,2338,0
1779865054.61478,2021,2571,0
1779865054.614856,1859,2294,0
1779865054.614919,2168,2274,0
1779865054.61498,2069,2533,0
1779865054.615042,2300,2438,0
1779865054.615103,2238,2290,0
1779865054.6151638,1699,2342,0
1779865054.615231,1689,2291,0
1779865054.6182148,2081,2111,0
1779865054.6253061,2888,1938,0
1779865054.631914,2331,2130,0
1779865054.633077,1330,2395,0
1779865054.639391,1585,2119,0
1779865054.639967,1944,2178,0
1779865054.644347,1877,2020,0
1779865054.644643,2113,2006,0
1779865054.644767,2497,2010,0
1779865054.644893,2149,2163,0
1779865054.644952,1408,2019,0
1779865054.6450639,1929,2045,0
1779865054.6451368,2111,2120,0
1779865054.6451998,2043,2143,0
1779865054.645261,2097,2105,0
1779865054.6479151,2421,1972,0
1779865054.649643,2270,2211,0
1779865054.651177,1914,2155,0
1779865054.664842,1657,2240,0
1779865054.665951,2109,2178,0
1779865054.6728199,2020,2251,0
1779865054.676417,2066,2187,0
1779865054.676503,2099,2092,0
1779865054.6765702,2025,2006,0
1779865054.676641,2007,2017,0
1779865054.676708,2121,2035,0
1779865054.676777,2096,1958,0
1779865054.6768892,1973,1949,0
1779865054.677011,2183,1989,0
1779865054.677112,2361,2015,0
1779865054.677185,2499,1966,0
1779865054.679873,2612,1894,0
1779865054.689541,2163,1876,0
1779865054.698391,1593,2015,0
1779865054.699126,1886,2123,0
1779865054.702633,2404,1921,0
1779865054.703634,2055,2191,0
1779865054.7041202,1707,2218,0
1779865054.704215,2145,2009,0
1779865054.704285,2019,2074,0
1779865054.704351,1986,2146,0
1779865054.704416,2889,1926,0
1779865054.70448,3014,2031,0
1779865054.704601,1961,2180,0
1779865054.704743,1303,2122,0
1779865054.707489,1788,2198,0
1779865054.7088819,2037,2147,0
1779865054.718154,1851,2102,0
1779865054.7290418,2109,2092,0
1779865054.733361,2662,1815,0
1779865054.7334888,2066,2104,0
1779865054.733647,1641,2263,0
1779865054.733742,2442,2135,0
1779865054.733809,2294,2419,0
1779865054.73387,1708,2491,0
1779865054.733931,1879,2302,0
1779865054.733991,2015,2356,0
1779865054.734051,1643,2364,0
1779865054.734113,1617,2365,0
1779865054.735816,1872,2244,0
1779865054.7466419,2276,2103,0
1779865054.755957,2435,2202,0
1779865054.759114,2590,2124,0
1779865054.7592509,2852,2131,0
1779865054.759398,1953,2116,0
1779865054.7594812,2278,1968,0
1779865054.7596428,2222,2068,0
1779865054.759779,1679,2193,0
1779865054.759845,1791,2221,0
1779865054.759916,1884,2021,0
1779865054.75998,1927,2082,0
1779865054.760095,1994,2175,0
1779865054.7615628,2268,2195,0
1779865054.762989,2186,2037,0
1779865054.765791,2443,2003,0
1779865054.774313,3001,1870,0
1779865054.7744598,1832,2206,0
1779865054.785374,2360,2172,0
1779865054.785862,1755,2398,0
1779865054.789233,1495,2282,0
1779865054.7902322,1955,1988,0
1779865054.79042,1974,2075,0
1779865054.790528,1775,2219,0
1779865054.790729,1840,2110,0
1779865054.790793,1922,1936,0
1779865054.7908962,1994,1895,0
1779865054.7909482,2295,2171,0
1779865054.7910569,2551,2259,0
1779865054.798253,2466,1930,0
1779865054.802998,2242,2005,0
1779865054.8058848,2020,2016,0
1779865054.8083358,2467,2167,0
1779865054.812953,2254,2196,0
1779865054.813719,2242,1947,0
1779865054.817312,1810,2176,0
1779865054.817452,1972,2279,0
1779865054.8175411,1952,2230,0
1779865054.817638,1566,1890,0
1779865054.8177679,1665,2155,0
1779865054.817877,1902,2564,0
1779865054.817981,2122,2094,0
1779865054.819419,2049,1903,0
1779865054.820883,1824,1647,0
1779865054.8236952,2107,1754,0
1779865054.830703,2409,2019,0
1779865054.832244,2340,1761,0
1779865054.835238,2715,2263,0
1779865054.835812,2593,1934,0
1779865054.83638,2382,2048,0
1779865054.8450508,2166,2325,0
1779865054.845883,2247,2231,0
1779865054.846487,2108,2266,0
1779865054.849869,2018,2029,0
1779865054.849992,2012,1985,0
1779865054.850216,1598,2002,0
1779865054.850352,1610,2007,0
1779865054.850465,1706,1866,0
1779865054.851858,1738,1814,0
1779865054.8606012,1595,1841,0
1779865054.8630002,1787,2176,0
1779865054.864973,2045,2240,0
1779865054.868425,2094,2273,0
1779865054.872898,1937,2423,0
1779865054.876898,2287,2053,0
1779865054.877079,2274,2172,0
1779865054.8772008,1897,2012,0
1779865054.877344,1878,1832,0
1779865054.877406,1955,1914,0
1779865054.877544,2210,2397,0
1779865054.877603,2192,2308,0
1779865054.877685,1979,1737,0
1779865054.879144,1965,1646,0
1779865054.88173,1679,1838,0
1779865054.883095,1580,1887,0
1779865054.894476,2243,2495,0
1779865054.896814,2415,2416,0
1779865054.897822,2221,1993,0
1779865054.900079,2211,2177,0
1779865054.904056,1812,1848,0
1779865054.907435,1714,2059,0
1779865054.908235,2035,2009,0
1779865054.908396,2122,1935,0
1779865054.9084759,2294,1981,0
1779865054.908532,2089,1955,0
1779865054.908602,1724,2026,0
1779865054.908673,1945,2277,0
1779865054.9088361,2028,2188,0
1779865054.921026,2244,2101,0
1779865054.925834,2142,2114,0
1779865054.930197,2060,2308,0
1779865054.930675,2038,2323,0
1779865054.9315772,1929,2052,0
1779865054.935283,1980,1931,0
1779865054.935411,2130,2088,0
1779865054.935575,2232,2298,0
1779865054.935652,2334,1942,0
1779865054.935871,2401,1886,0
1779865054.935932,2292,1767,0
1779865054.936043,2128,1853,0
1779865054.936099,2167,2231,0
1779865054.937438,2349,2003,0
1779865054.938831,2275,2119,0
1779865054.941448,2243,2133,0
1779865054.948693,2046,2221,0
1779865054.950185,1858,2394,0
1779865054.9533482,1976,2153,0
1779865054.9622881,2051,2157,0
1779865054.963479,2222,2064,0
1779865054.967024,2208,2126,0
1779865054.967114,1904,2419,0
1779865054.967179,2088,2395,0
1779865054.967243,2536,2124,0
1779865054.967386,2082,2082,0
1779865054.9675689,1752,2241,0
1779865054.967695,2006,2262,0
1779865054.967781,2134,2103,0
1779865054.969162,2042,1949,0
1779865054.981449,1836,1988,0
1779865054.988895,1743,2098,0
1779865054.98943,1848,2136,0
1779865054.989651,2128,2033,0
1779865054.992877,2424,2003,0
1779865054.993121,2523,2239,0
1779865054.9932,2298,2057,0
1779865054.993265,1957,2079,0
1779865054.9933922,1872,2056,0
1779865054.993463,2010,2094,0
1779865054.993531,2123,2027,0
1779865054.993593,2313,2050,0
1779865054.9953358,2022,1966,0
1779865054.996772,1582,2225,0
1779865054.999447,1870,2150,0
1779865055.005505,2127,2032,0
1779865055.0109131,2206,1972,0
1779865055.0197482,2052,2131,0
1779865055.0204039,2071,2305,0
1779865055.021142,2117,2012,0
1779865055.023902,2195,1908,0
1779865055.0250182,2298,1929,0
1779865055.025142,2207,2005,0
1779865055.0252512,2040,1997,0
1779865055.025389,2133,2047,0
1779865055.025533,1887,2079,0
1779865055.025616,1833,2065,0
1779865055.0257149,1884,2227,0
1779865055.027165,1818,2162,0
1779865055.0353642,1926,2147,0
1779865055.037941,2055,2057,0
1779865055.04041,2289,1981,0
1779865055.0412889,2405,2014,0
1779865055.043348,2207,2046,0
1779865055.047775,2058,2078,0
1779865055.048243,1946,1988,0
1779865055.048886,2040,1927,0
1779865055.04933,2058,1899,0
1779865055.0496588,2077,1860,0
1779865055.052795,2033,1952,0
1779865055.053744,2095,2009,0
1779865055.053836,2140,1942,0
1779865055.055222,2112,1966,0
1779865055.056653,2180,2102,0
1779865055.059565,2114,2188,0
1779865055.067861,2017,2129,0
1779865055.071574,1968,1998,0
1779865055.074881,1974,1963,0
1779865055.076858,2002,2008,0
1779865055.0813272,2078,1857,0
1779865055.082122,2165,1932,0
1779865055.0858738,2037,2108,0
1779865055.085963,2044,2177,0
1779865055.086085,2093,2026,0
1779865055.0861518,2131,1946,0
1779865055.086205,2194,2000,0
1779865055.0863419,2201,2084,0
1779865055.086446,2009,2098,0
1779865055.087826,1953,1918,0
1779865055.098117,1939,2073,0
1779865055.0986362,1961,2254,0
1779865055.10149,2081,2231,0
1779865055.107509,2104,2072,0
1779865055.10819,2006,2112,0
1779865055.108927,2040,2166,0
1779865055.112277,2145,2212,0
1779865055.11249,2069,2047,0
1779865055.112865,2001,2095,0
1779865055.1129951,2052,2162,0
1779865055.1130528,2061,2087,0
1779865055.113198,2109,1941,0
1779865055.113274,1972,1995,0
1779865055.1148071,1976,2069,0
1779865055.117495,2039,2022,0
1779865055.119317,2060,1858,0
1779865055.126732,1910,2115,0
1779865055.1298308,1947,2409,0
1779865055.134772,1954,2282,0
1779865055.1352682,1993,2120,0
1779865055.139883,1954,2017,0
1779865055.1407192,2188,2109,0
1779865055.1442912,2119,2141,0
1779865055.1448479,2057,2158,0
1779865055.144914,2062,2076,0
1779865055.144968,2051,2031,0
1779865055.145018,2044,2036,0
1779865055.145164,2149,1947,0
1779865055.14529,2172,2009,0
1779865055.146772,2024,1974,0
1779865055.154677,1941,1980,0
1779865055.157702,2013,2091,0
1779865055.160168,2037,2053,0
1779865055.161162,2020,2088,0
1779865055.1628952,2046,2152,0
1779865055.1631029,2070,2196,0
1779865055.16733,2079,2068,0
1779865055.1678872,2015,2072,0
1779865055.168499,2005,2054,0
1779865055.1719968,2063,2192,0
1779865055.172344,2204,1990,0
1779865055.172409,2001,2053,0
1779865055.173742,1923,2143,0
1779865055.175066,1879,2248,0
1779865055.177723,2015,2128,0
1779865055.179101,2006,2045,0
1779865055.18655,2099,2094,0
1779865055.187882,2077,2128,0
1779865055.190381,2109,2082,0
1779865055.1934369,2060,2066,0
1779865055.1995661,2050,2060,0
1779865055.200585,2081,2110,0
1779865055.2009192,2071,2060,0
1779865055.20128,2054,2010,0
1779865055.204881,2001,1990,0
1779865055.205086,1989,2056,0
1779865055.205187,2050,2049,0
1779865055.205312,1989,1964,0
1779865055.205406,1879,1943,0
1779865055.206846,1901,2111,0
1779865055.228373,2004,2125,0
1779865055.2284842,2087,2055,0
1779865055.228588,2105,2052,0
1779865055.228698,2067,2159,0
1779865055.228758,2075,2201,0
1779865055.228815,2147,2106,0
1779865055.228873,2100,2098,0
1779865055.2289312,1989,2136,0
1779865055.2290041,2003,2306,0
1779865055.229057,2097,2198,0
1779865055.229111,2038,2119,0
1779865055.237168,2025,2025,0
1779865055.237275,2030,2085,0
1779865055.23735,2071,2181,0
1779865055.237414,2061,2090,0
1779865055.239014,1990,2104,0
1779865055.246811,2031,2234,0
1779865055.249003,2204,2113,0
1779865055.251362,2108,2007,0
1779865055.2518458,2024,2007,0
1779865055.2571158,2020,2079,0
1779865055.261718,1975,2139,0
1779865055.2624571,2023,2046,0
1779865055.2631,2085,1977,0
1779865055.26367,2024,2124,0
1779865055.2671502,2041,2187,0
1779865055.26729,2076,2062,0
1779865055.267371,2033,2033,0
1779865055.267484,2125,1932,0
1779865055.2675562,2098,2163,0
1779865055.268981,2068,2161,0
1779865055.2797198,1949,2095,0
1779865055.284269,2037,2166,0
1779865055.288644,2070,2172,0
1779865055.289181,2189,1985,0
1779865055.290123,2014,2111,0
1779865055.293524,1955,2154,0
1779865055.293598,1975,2207,0
1779865055.2938519,2085,2174,0
1779865055.294035,1935,2071,0
1779865055.294088,1943,2065,0
1779865055.294139,1977,2229,0
1779865055.294212,2020,2145,0
1779865055.295686,2138,2101,0
1779865055.2971342,2175,2110,0
1779865055.29863,2091,2039,0
1779865055.308026,2165,1953,0
1779865055.314216,2194,2132,0
1779865055.319047,2048,2169,0
1779865055.319618,1908,2226,0
1779865055.319909,1959,2208,0
1779865055.323155,1936,2246,0
1779865055.323353,1956,2259,0
1779865055.323773,2016,2284,0
1779865055.323852,1905,2222,0
1779865055.3239172,2056,2195,0
1779865055.3239832,2071,2294,0
1779865055.324047,2023,2354,0
1779865055.325488,2046,2326,0
1779865055.3324952,2012,2111,0
1779865055.334663,2176,2207,0
1779865055.3421361,2233,2297,0
1779865055.346532,1996,2169,0
1779865055.347189,2034,2161,0
1779865055.347518,2161,2076,0
1779865055.348067,2093,2140,0
1779865055.350793,1975,2254,0
1779865055.351916,1987,2208,0
1779865055.351994,2069,2056,0
1779865055.3520582,2078,2108,0
1779865055.3522198,1950,2141,0
1779865055.352368,1961,2089,0
1779865055.353982,2032,2138,0
1779865055.3553898,2059,2171,0
1779865055.356755,2162,2135,0
1779865055.3659039,2270,2260,0
1779865055.366891,2237,2251,0
1779865055.370156,1990,2158,0
1779865055.3729548,2131,2022,0
1779865055.379061,2034,2151,0
1779865055.379532,2019,2072,0
1779865055.3799958,1954,2031,0
1779865055.383441,1840,2184,0
1779865055.383521,1859,2255,0
1779865055.383586,1952,2129,0
1779865055.383647,2050,1962,0
1779865055.3838441,2017,2013,0
1779865055.383925,2046,2072,0
1779865055.38546,2155,2080,0
1779865055.40402,2041,1992,0
1779865055.404829,2066,2054,0
1779865055.408351,2120,2253,0
1779865055.408452,1998,2118,0
1779865055.408654,2005,2043,0
1779865055.408797,2092,2107,0
1779865055.4089391,2131,2083,0
1779865055.409096,1950,2030,0
1779865055.4091651,1967,2082,0
1779865055.4092631,2044,2105,0
1779865055.4093282,2057,2136,0
1779865055.409395,2096,2257,0
1779865055.410928,1967,2076,0
1779865055.413923,1731,1848,0
1779865055.4199932,2018,2062,0
1779865055.422446,2096,2104,0
1779865055.426294,2073,2147,0
1779865055.4267251,1920,1876,0
1779865055.431371,1728,1872,0
1779865055.4359128,1856,2600,0
1779865055.439349,2050,2394,0
1779865055.440298,1862,1802,0
1779865055.440377,2004,1971,0
1779865055.440512,1979,2223,0
1779865055.440589,2070,2181,0
1779865055.4407501,2157,2012,0
1779865055.440894,2004,2031,0
1779865055.440969,2168,2167,0
1779865055.450366,2319,2298,0
1779865055.4549692,2174,2031,0
1779865055.461513,2045,1982,0
1779865055.462529,2132,2070,0
1779865055.4662411,2183,2097,0
1779865055.46667,1932,1994,0
1779865055.466785,1855,1962,0
1779865055.466879,1940,1982,0
1779865055.466984,1766,1903,0
1779865055.467052,1814,1859,0
1779865055.4671402,2355,2193,0
1779865055.467232,2214,2293,0
1779865055.467335,1977,2184,0
1779865055.4687831,2196,2056,0
1779865055.4722319,2090,2095,0
1779865055.473709,1898,2157,0
1779865055.480809,2044,2336,0
1779865055.4843369,2247,2258,0
1779865055.4891362,2146,2139,0
1779865055.4936252,2081,1994,0
1779865055.494443,1987,2090,0
1779865055.4948428,2069,1976,0
1779865055.497532,1967,1985,0
1779865055.498608,1965,2140,0
1779865055.4986901,1909,2334,0
1779865055.49876,2086,2081,0
1779865055.498976,2050,1846,0
1779865055.4990458,1895,1960,0
1779865055.499114,2197,2069,0
1779865055.508287,2201,2290,0
1779865055.51279,2131,2161,0
1779865055.515873,2066,2011,0
1779865055.516403,2152,2101,0
1779865055.5211751,2177,2102,0
1779865055.521569,2097,1984,0
1779865055.524893,2040,2068,0
1779865055.525473,2045,2090,0
1779865055.525655,2067,2007,0
1779865055.525763,2069,1995,0
1779865055.525839,1853,2131,0
1779865055.525905,2004,2137,0
1779865055.525971,2156,2304,0
1779865055.527356,2082,2145,0
1779865055.5287879,1971,2019,0
1779865055.5315242,1957,2079,0
1779865055.5379899,1990,2030,0
1779865055.5464268,2110,2104,0
1779865055.552825,2180,1952,0
1779865055.5561228,2106,2053,0
1779865055.556213,2056,2163,0
1779865055.556284,2027,2147,0
1779865055.556347,2071,2039,0
1779865055.556421,2157,2048,0
1779865055.556483,1970,2027,0
1779865055.556546,2008,2043,0
1779865055.556612,2059,1923,0
1779865055.55667,2082,2005,0
1779865055.556732,1964,2199,0
1779865055.5596511,1917,2257,0
1779865055.572028,2057,2062,0
1779865055.5730839,1984,1912,0
1779865055.579194,2033,2049,0
1779865055.5802581,2026,2149,0
1779865055.583578,2071,2022,0
1779865055.583669,2029,2090,0
1779865055.583738,1923,2128,0
1779865055.583864,1978,2263,0
1779865055.584032,2140,2024,0
1779865055.5841181,1991,1895,0
1779865055.584176,2044,2102,0
1779865055.5842261,2056,2348,0
1779865055.586007,2084,2099,0
1779865055.5876322,2118,1979,0
1779865055.589107,1988,2088,0
1779865055.590958,1963,2236,0
1779865055.5991108,2017,2208,0
1779865055.609832,2117,2025,0
1779865055.613819,2118,2015,0
1779865055.613933,2053,2070,0
1779865055.614005,1990,2032,0
1779865055.61407,2010,1952,0
1779865055.614191,2097,2008,0
1779865055.6142972,2090,2212,0
1779865055.614479,2046,2164,0
1779865055.614605,2212,2007,0
1779865055.614676,2175,2075,0
1779865055.614793,1974,2130,0
1779865055.6258628,1890,2069,0
1779865055.6281862,2014,2025,0
1779865055.6381729,2091,2055,0
1779865055.638276,1937,2081,0
1779865055.638401,1937,2100,0
1779865055.638473,2102,2132,0
1779865055.638531,2074,2142,0
1779865055.638581,2018,2037,0
1779865055.638675,2048,2037,0
1779865055.638805,2085,2110,0
1779865055.638888,2093,2105,0
1779865055.6389608,2069,2137,0
1779865055.641729,1994,2149,0
1779865055.6431959,2059,2175,0
1779865055.645181,2156,1979,0
1779865055.655149,2143,1864,0
1779865055.6643782,2005,1779,0
1779865055.665188,1911,1875,0
1779865055.6688519,2171,2036,0
1779865055.6690571,2146,2097,0
1779865055.66935,2073,2099,0
1779865055.669445,1976,2099,0
1779865055.6694982,2031,2017,0
1779865055.669547,2128,2046,0
1779865055.66991,2153,2123,0
1779865055.67001,2049,2138,0
1779865055.670079,2061,1999,0
1779865055.6716712,2025,1950,0
1779865055.6812449,1979,2086,0
1779865055.683409,1940,2114,0
1779865055.690451,2098,2008,0
1779865055.694585,2146,1982,0
1779865055.695092,2118,1970,0
1779865055.695167,1959,1993,0
1779865055.6952279,2112,1866,0
1779865055.6952882,2173,1877,0
1779865055.6953459,2091,1953,0
1779865055.6955378,2053,2175,0
1779865055.695599,1977,2148,0
1779865055.695658,2031,2062,0
1779865055.697031,2050,2101,0
1779865055.69859,2083,2102,0
1779865055.701288,2139,2104,0
1779865055.708742,2094,1994,0
1779865055.7150269,2032,2068,0
1779865055.721226,1977,2091,0
1779865055.7219741,1944,2099,0
1779865055.722414,2136,1845,0
1779865055.722847,2058,1877,0
1779865055.726125,2011,1863,0
1779865055.7265642,2188,1851,0
1779865055.726687,2197,1961,0
1779865055.7268531,2097,2014,0
1779865055.727038,2190,1909,0
1779865055.727336,2234,2102,0
1779865055.727396,2275,2192,0
1779865055.7288718,1973,2097,0
1779865055.740607,1849,1993,0
1779865055.74349,1897,2093,0
1779865055.747694,1888,2078,0
1779865055.748799,1935,2087,0
1779865055.752129,1874,2091,0
1779865055.7522979,1911,2098,0
1779865055.752425,1989,2133,0
1779865055.752548,2094,2070,0
1779865055.752718,2158,1977,0
1779865055.753012,2192,1976,0
1779865055.753099,2141,1982,0
1779865055.753268,2161,1892,0
1779865055.7547011,2078,1941,0
1779865055.757359,1985,1990,0
1779865055.759238,2044,1885,0
1779865055.764768,2163,1938,0
1779865055.766764,2091,2035,0
1779865055.769614,2030,2079,0
1779865055.772566,2098,1946,0
1779865055.7756748,2180,1964,0
1779865055.776047,2160,2059,0
1779865055.780127,2051,2091,0
1779865055.781024,1947,2133,0
1779865055.784671,2053,1893,0
1779865055.7848692,2065,1852,0
1779865055.785002,2112,1900,0
1779865055.7851741,2177,1989,0
1779865055.785269,2197,1931,0
1779865055.7866611,2091,1997,0
1779865055.7991538,1982,2137,0
1779865055.7998478,1905,2202,0
1779865055.8083751,1952,2102,0
1779865055.808913,2053,2050,0
1779865055.809501,2036,2025,0
1779865055.8132129,2015,2048,0
1779865055.813534,2020,2075,0
1779865055.813715,2057,2006,0
1779865055.813792,2039,2051,0
1779865055.813859,2068,2196,0
1779865055.813959,2057,2188,0
1779865055.814065,2118,1988,0
1779865055.814142,2194,1932,0
1779865055.8155231,2124,1947,0
1779865055.816896,2042,1997,0
1779865055.819813,2014,1969,0
1779865055.830591,2009,1851,0
1779865055.834028,2019,1989,0
1779865055.840357,1957,2112,0
1779865055.844106,2011,1951,0
1779865055.844198,2082,1803,0
1779865055.844268,2072,2054,0
1779865055.844378,2039,2130,0
1779865055.844508,2056,2052,0
1779865055.8446631,2054,2025,0
1779865055.844739,2044,2128,0
1779865055.8449368,2059,2131,0
1779865055.845004,2168,2079,0
1779865055.8450718,2109,2129,0
1779865055.8469791,2035,2028,0
1779865055.858637,1892,1968,0
1779865055.8595562,1909,1969,0
1779865055.865063,2251,1889,0
1779865055.868879,2188,1922,0
1779865055.86915,2052,2145,0
1779865055.869217,1923,2115,0
1779865055.869473,2036,2043,0
1779865055.869525,2148,2054,0
1779865055.869627,2086,2071,0
1779865055.8697479,2074,1796,0
1779865055.869838,2050,1741,0
1779865055.8711512,2057,2138,0
1779865055.872541,2017,2449,0
1779865055.875212,1933,2304,0
1779865055.88167,2080,2018,0
1779865055.886487,2007,1882,0
1779865055.88856,1957,2056,0
1779865055.890927,2104,2466,0
1779865055.8945951,2160,2563,0
1779865055.895173,2075,2199,0
1779865055.8959591,1697,2105,0
1779865055.899318,1854,2041,0
1779865055.89942,2113,2273,0
1779865055.899477,2260,2085,0
1779865055.899594,2227,2105,0
1779865055.8997738,2127,2255,0
1779865055.901236,2064,2108,0
1779865055.9116921,2145,1914,0
1779865055.912214,2122,1989,0
1779865055.916935,2041,2158,0
1779865055.917086,2070,2243,0
1779865055.9206731,2171,2023,0
1779865055.9236438,2074,2111,0
1779865055.924714,2031,2104,0
1779865055.924778,1958,2094,0
1779865055.9249122,2023,1964,0
1779865055.9251,2110,2028,0
1779865055.9252129,2100,2157,0
1779865055.925468,2001,2217,0
1779865055.9268658,2038,2022,0
1779865055.929613,2055,1889,0
1779865055.931069,2039,1803,0
1779865055.938739,2012,1865,0
1779865055.941751,2087,1829,0
1779865055.943465,2148,1737,0
1779865055.944169,1969,1900,0
1779865055.946635,1989,2129,0
1779865055.950492,2032,1924,0
1779865055.951217,2082,1753,0
1779865055.951448,2095,2194,0
1779865055.954776,2095,2434,0
1779865055.9548411,1862,2234,0
1779865055.9553568,2051,2036,0
1779865055.955414,2196,2211,0
1779865055.9570718,2110,2240,0
1779865055.9636438,2053,2323,0
1779865055.966795,2124,2164,0
1779865055.9672189,2160,2081,0
1779865055.9673831,2147,2024,0
1779865055.972088,2071,1912,0
1779865055.975946,2087,1863,0
1779865055.976237,2138,1849,0
1779865055.97983,2100,1993,0
1779865055.979945,2049,2240,0
1779865055.980011,2011,2285,0
1779865055.980143,2058,2043,0
1779865055.981482,2026,1894,0
1779865055.982992,2081,2059,0
1779865055.985722,2139,2117,0
1779865055.99582,2055,2063,0
1779865056.004042,1961,2125,0
1779865056.004384,2051,2214,0
1779865056.0079832,2028,2047,0
1779865056.008051,2045,2024,0
1779865056.008183,2022,1930,0
1779865056.008312,2054,2013,0
1779865056.0084019,1994,1949,0
1779865056.0084732,1884,1808,0
1779865056.008538,1929,1884,0
1779865056.0086012,1974,1992,0
1779865056.008675,1988,2073,0
1779865056.019883,2057,1964,0
1779865056.0203269,2055,1876,0
1779865056.022584,2040,1855,0
1779865056.024956,2103,1979,0
1779865056.025225,2188,1923,0
1779865056.028712,2159,1907,0
1779865056.029409,2012,2023,0
1779865056.029757,1972,2080,0
1779865056.03042,2034,1899,0
1779865056.033615,2039,1817,0
1779865056.033747,2127,1895,0
1779865056.033878,2100,1906,0
1779865056.0354712,2117,1887,0
1779865056.036927,2119,1698,0
1779865056.039894,2016,1998,0
1779865056.047466,2076,2260,0
1779865056.050661,2018,2122,0
1779865056.0533812,1769,1897,0
1779865056.0559921,2136,2029,0
1779865056.059686,2276,2195,0
1779865056.060041,2074,2130,0
1779865056.060576,2002,1832,0
1779865056.063999,2109,2002,0
1779865056.064065,2103,2087,0
1779865056.064119,2051,1853,0
1779865056.064171,2124,1855,0
1779865056.064221,2089,1839,0
1779865056.064395,2051,1831,0
1779865056.073668,1969,1870,0
1779865056.0749261,2113,1957,0
1779865056.079652,2075,1929,0
1779865056.0851252,1955,1988,0
1779865056.0890539,2051,2049,0
1779865056.089401,2056,2014,0
1779865056.0895438,2110,1990,0
1779865056.089602,1975,1879,0
1779865056.089786,2077,2007,0
1779865056.0898728,2073,2096,0
1779865056.090027,1991,2110,0
1779865056.090094,1958,2302,0
1779865056.091437,2034,2297,0
1779865056.092762,2091,2274,0
1779865056.0953789,2136,2241,0
1779865056.104104,2073,2210,0
1779865056.1115189,2046,2285,0
1779865056.111891,2017,2177,0
1779865056.115694,2065,1926,0
1779865056.1187599,2074,2062,0
1779865056.12,1970,2164,0
1779865056.1200662,2004,2176,0
1779865056.120118,2041,2037,0
1779865056.120168,2085,2132,0
1779865056.120217,2087,2181,0
1779865056.120265,2087,2237,0
1779865056.120903,2057,2102,0
1779865056.120961,2084,2109,0
1779865056.1275399,2028,2287,0
1779865056.132203,1987,2664,0
1779865056.134285,2056,2436,0
1779865056.13695,2091,2389,0
1779865056.1374211,2082,2252,0
1779865056.140755,1975,2333,0
1779865056.141404,2037,2367,0
1779865056.141589,2054,2106,0
1779865056.144189,2078,2063,0
1779865056.145268,2079,2301,0
1779865056.145358,2120,2213,0
1779865056.1454122,2055,1981,0
1779865056.1467872,2039,1956,0
1779865056.1494222,2119,2133,0
1779865056.1507552,2069,2233,0
1779865056.1585002,2114,2084,0
1779865056.160318,2012,1969,0
1779865056.1624389,2006,2118,0
1779865056.165531,1966,2117,0
1779865056.167702,2033,1965,0
1779865056.171155,2092,1935,0
1779865056.171998,2050,1813,0
1779865056.1753302,2073,1892,0
1779865056.175403,2136,2007,0
1779865056.175457,2174,1983,0
1779865056.175509,2202,1938,0
1779865056.175562,2114,2257,0
1779865056.176988,2056,2182,0
1779865056.184392,2111,2040,0
1779865056.187149,2058,2125,0
1779865056.1888452,2418,2073,0
1779865056.1895459,2329,1994,0
1779865056.192086,1903,2084,0
1779865056.195987,1509,2134,0
1779865056.196579,1950,2078,0
1779865056.196911,2281,2147,0
1779865056.200316,2026,2076,0
1779865056.200565,2323,1635,0
1779865056.200833,2243,2175,0
1779865056.201113,2049,2196,0
1779865056.20251,1865,1843,0
1779865056.205127,2472,2024,0
1779865056.206609,2221,2427,0
1779865056.216945,1616,2257,0
1779865056.217403,1512,2055,0
1779865056.225487,1761,2183,0
1779865056.22626,2065,2025,0
1779865056.2288032,2158,2118,0
1779865056.229957,1849,2137,0
1779865056.230166,1921,2102,0
1779865056.230321,2041,2249,0
1779865056.230464,3228,2272,0
1779865056.2305899,3181,2340,0
1779865056.230707,2263,2610,0
1779865056.2307808,1537,2175,0
1779865056.2395232,1538,2219,0
1779865056.242076,1976,2240,0
1779865056.242584,1818,2160,0
1779865056.244736,1534,2110,0
1779865056.247295,1488,2079,0
1779865056.250856,1752,2266,0
1779865056.2511292,2051,2210,0
1779865056.251793,2408,2288,0
1779865056.2547069,3005,2126,0
1779865056.2555242,2984,1785,0
1779865056.2556648,1711,2320,0
1779865056.255844,1627,1953,0
1779865056.257201,2276,1745,0
1779865056.2585611,1981,2418,0
1779865056.261197,1665,2114,0
1779865056.267088,1490,2050,0
1779865056.269123,1900,2060,0
1779865056.272628,1815,2019,0
1779865056.2748249,2340,1861,0
1779865056.281002,2805,1754,0
1779865056.2820008,1888,2237,0
1779865056.28441,2130,2083,0
1779865056.285206,2488,1896,0
1779865056.285613,2578,1633,0
1779865056.2863941,2100,1844,0
1779865056.2867289,1363,2093,0
1779865056.286783,1581,1861,0
1779865056.2868328,1814,1679,0
1779865056.2940109,1898,1899,0
1779865056.2955651,1967,2164,0
1779865056.298113,1902,2018,0
1779865056.2985191,1942,1749,0
1779865056.300735,2282,1799,0
1779865056.303146,2051,2034,0
1779865056.303444,2058,2038,0
1779865056.3036559,2331,1853,0
1779865056.307612,2136,2154,0
1779865056.308049,2035,2266,0
1779865056.31124,1971,2235,0
1779865056.311302,2023,2043,0
1779865056.312727,1957,2112,0
1779865056.3154528,1979,1925,0
1779865056.3168309,2221,1978,0
1779865056.327266,2300,1933,0
1779865056.329947,2166,1997,0
1779865056.3359208,2116,2189,0
1779865056.339556,2173,2375,0
1779865056.339725,2173,2205,0
1779865056.33989,2163,1964,0
1779865056.339978,3070,1693,0
1779865056.340066,3077,1725,0
1779865056.3401432,1239,2309,0
1779865056.3402848,1059,1959,0
1779865056.340341,1658,1938,0
1779865056.340394,1924,2135,0
1779865056.349646,1797,2262,0
1779865056.3517911,1655,2119,0
1779865056.3541381,1612,2058,0
1779865056.356801,1689,2190,0
1779865056.357026,2105,2097,0
1779865056.360717,2667,2008,0
1779865056.360993,3160,1821,0
1779865056.361454,2162,2263,0
1779865056.364326,1973,2143,0
1779865056.365349,2065,2025,0
1779865056.365408,1643,2056,0
1779865056.365536,1838,1928,0
1779865056.36692,1666,2097,0
1779865056.369685,1763,2051,0
1779865056.3712,1964,1871,0
1779865056.3811781,2252,2047,0
1779865056.381612,1969,2146,0
1779865056.384049,2020,1981,0
1779865056.386504,2115,1939,0
1779865056.386812,2244,1903,0
1779865056.390442,2103,1987,0
1779865056.391121,2242,1970,0
1779865056.3937001,2893,1771,0
1779865056.394631,2089,2048,0
1779865056.394764,1800,2108,0
1779865056.39489,2128,2133,0
1779865056.39499,2074,1981,0
1779865056.39638,1953,2018,0
1779865056.402428,2849,1612,0
1779865056.403907,3069,2095,0
1779865056.405097,920,2275,0
1779865056.407221,746,1954,0
1779865056.407331,1694,2041,0
1779865056.409554,2025,2215,0
1779865056.411951,2256,1892,0
1779865056.415763,1961,1864,0
1779865056.416387,1867,1991,0
1779865056.42016,1634,2137,0
1779865056.4204211,2002,1834,0
1779865056.420539,2121,1798,0
1779865056.423174,2281,1902,0
1779865056.424546,2247,2074,0
1779865056.432479,2177,1982,0
1779865056.436853,1985,1916,0
1779865056.437023,1951,1878,0
1779865056.439945,2072,1919,0
1779865056.440187,2095,1926,0
1779865056.4419541,1973,1937,0
1779865056.44662,2054,1899,0
1779865056.4466848,2100,2064,0
1779865056.4467368,2115,2251,0
1779865056.446787,2048,2255,0
1779865056.4499068,1948,1907,0
1779865056.450319,1993,1721,0
1779865056.4504309,2017,1923,0
1779865056.45348,2139,1948,0
1779865056.465462,2230,2411,0
1779865056.468242,2170,2524,0
1779865056.468711,2101,2535,0
1779865056.472448,2061,2399,0
1779865056.472811,1897,2503,0
1779865056.473526,1970,2346,0
1779865056.4772139,2006,2708,0
1779865056.477489,2172,2601,0
1779865056.47755,2238,2405,0
1779865056.4776042,2074,2557,0
1779865056.4778361,2005,2623,0
1779865056.477951,2065,2591,0
1779865056.479306,2107,2296,0
1779865056.480702,1946,2363,0
1779865056.483479,1857,2447,0
1779865056.490276,1980,2626,0
1779865056.490491,1815,2525,0
1779865056.4942,2145,2389,0
1779865056.4961321,2082,2500,0
1779865056.497323,2079,2372,0
1779865056.5032818,2158,2267,0
1779865056.5037088,1881,2186,0
1779865056.5040169,2421,1912,0
1779865056.504183,2011,2479,0
1779865056.507591,1528,2219,0
1779865056.5077,1961,1938,0
1779865056.507901,1938,2242,0
1779865056.509196,2687,1999,0
1779865056.5166562,1763,2321,0
1779865056.5217128,1555,2219,0
1779865056.5247948,2012,2108,0
1779865056.5295842,2402,2082,0
1779865056.532593,2063,2162,0
1779865056.5329652,2005,2027,0
1779865056.5330582,1842,2118,0
1779865056.533142,2548,2041,0
1779865056.5332859,2365,2020,0
1779865056.533349,2625,2094,0
1779865056.5334048,2382,1876,0
1779865056.533615,1546,2125,0
1779865056.535306,1568,2122,0
1779865056.537766,1906,2044,0
1779865056.539135,1730,2173,0
1779865056.54687,1499,2276,0
1779865056.5502589,1571,2358,0
1779865056.55071,1776,2185,0
1779865056.558743,1975,2060,0
1779865056.559733,2296,1975,0
1779865056.5603468,2673,2006,0
1779865056.5632582,2165,2191,0
1779865056.563848,1751,2301,0
1779865056.5639522,2123,2239,0
1779865056.564023,2193,2095,0
1779865056.564119,2138,1936,0
1779865056.564181,1829,2085,0
1779865056.564283,2062,1921,0
1779865056.574155,2258,1904,0
1779865056.5761752,2445,1891,0
1779865056.576639,2523,1916,0
1779865056.576916,1749,2157,0
1779865056.5789819,1813,2152,0
1779865056.5816221,2036,2158,0
1779865056.585492,1987,2098,0
1779865056.5857239,2054,1879,0
1779865056.586446,1916,1950,0
1779865056.586677,1890,1990,0
1779865056.589617,2025,1969,0
1779865056.589988,2053,1959,0
1779865056.591325,2285,2036,0
1779865056.592784,2200,2132,0
1779865056.5942788,2090,2040,0
1779865056.603322,2871,2011,0
1779865056.604594,3038,2087,0
1779865056.609705,1780,2386,0
1779865056.6115708,1281,2394,0
1779865056.615392,1361,2209,0
1779865056.616079,1827,2276,0
1779865056.6196249,2263,2492,0
1779865056.620071,1497,2224,0
1779865056.620146,1111,2083,0
1779865056.6201978,1614,2009,0
1779865056.620342,1949,2214,0
1779865056.6206012,2187,2123,0
1779865056.620681,2303,1952,0
1779865056.628426,2190,2037,0
1779865056.628584,2603,1873,0
1779865056.632292,2633,2095,0
1779865056.632396,1503,2362,0
1779865056.6324549,1516,2382,0
1779865056.632512,1920,2032,0
1779865056.6406112,2150,2179,0
1779865056.641247,2310,2161,0
1779865056.6414871,1946,2406,0
1779865056.6439779,1759,2524,0
1779865056.645094,2217,2354,0
1779865056.645154,2507,2170,0
1779865056.646483,2063,2135,0
1779865056.649159,1806,2201,0
1779865056.650526,2177,2080,0
1779865056.657275,2176,1933,0
1779865056.6574259,2617,1836,0
1779865056.6584141,3155,2175,0
1779865056.659795,2372,2258,0
1779865056.66659,1870,1988,0
1779865056.671485,1149,2131,0
1779865056.675274,1296,1963,0
1779865056.6753752,1974,1989,0
1779865056.6757069,1916,2133,0
1779865056.67587,1491,1955,0
1779865056.675997,1764,1979,0
1779865056.676218,1929,2054,0
1779865056.676296,2487,2132,0
1779865056.6840918,4095,1574,0
1779865056.6843112,1761,2286,0
1779865056.690557,1251,2064,0
1779865056.696384,2297,1896,0
1779865056.6972108,2200,2113,0
1779865056.699651,2251,2024,0
1779865056.700532,1763,2166,0
1779865056.700671,1467,2222,0
1779865056.700735,2656,2027,0
1779865056.70079,2214,2005,0
1779865056.700843,1825,2090,0
1779865056.700897,2032,2182,0
1779865056.7022562,2071,1938,0
1779865056.704871,2061,2176,0
1779865056.706253,1726,2084,0
1779865056.718873,1567,2250,0
1779865056.7215931,1750,2255,0
1779865056.725843,2132,2189,0
1779865056.72635,2499,2060,0
1779865056.7269828,2509,2248,0
1779865056.7302132,2401,2098,0
1779865056.7303839,2351,2244,0
1779865056.7305112,2514,2133,0
1779865056.730598,2244,2456,0
1779865056.7306921,1578,2278,0
1779865056.730826,1737,2210,0
1779865056.730932,2248,2107,0
1779865056.732401,2297,2262,0
1779865056.7398322,2344,2077,0
1779865056.7426581,2211,2207,0
1779865056.7450979,1733,2154,0
1779865056.74766,1801,2357,0
1779865056.80303,1915,2119,0
1779865056.803134,2006,2108,0
1779865056.803191,1895,2042,0
1779865056.803252,1847,1816,0
1779865056.803303,1943,2250,0
1779865056.803351,2011,2116,0
1779865056.8034,1970,2400,0
1779865056.803448,2088,2391,0
1779865056.803496,1922,2030,0
1779865056.803544,2087,2210,0
1779865056.803592,2153,2259,0
1779865056.8036401,2091,2085,0
1779865056.803688,2083,1893,0
1779865056.803735,2147,1974,0
1779865056.8037848,2102,2420,0
1779865056.8038342,1965,2411,0
1779865056.803881,1954,2217,0
1779865056.803929,1545,2030,0
1779865056.8039758,1768,1990,0
1779865056.804024,1698,2241,0
1779865056.804071,2372,2484,0
1779865056.80412,2581,2825,0
1779865056.8041668,2081,2029,0
1779865056.804215,1804,1835,0
1779865056.804262,2038,2171,0
1779865056.8290792,2424,2111,0
1779865056.8292422,1590,1939,0
1779865056.82946,1622,1765,0
1779865056.829542,2388,2315,0
1779865056.8523588,2044,2681,0
1779865056.854028,2188,2260,0
1779865056.8551629,2058,1844,0
1779865056.855381,2098,2058,0
1779865056.8558369,2171,2388,0
1779865056.855893,2389,2652,0
1779865056.8563788,2212,2215,0
1779865056.856439,2016,2009,0
1779865056.856489,1963,2121,0
1779865056.8565388,1790,2254,0
1779865056.856597,1951,2185,0
1779865056.856645,2072,2536,0
1779865056.856693,2224,2558,0
1779865056.8567412,1972,2344,0
1779865056.85679,1738,2384,0
1779865056.856837,2075,2484,0
1779865056.856885,1927,2088,0
1779865056.856939,1709,2122,0
1779865056.8569868,1860,2203,0
1779865056.857035,1801,2052,0
1779865056.8570828,1874,2377,0
1779865056.857131,2106,2547,0
1779865056.857179,2317,2244,0
1779865056.8572302,2266,1875,0
1779865056.857279,2138,1895,0
1779865056.8573272,2038,1967,0
1779865056.857467,2208,1932,0
1779865056.857554,2207,2202,0
1779865056.85764,2016,2367,0
1779865056.859156,2069,2178,0
1779865056.8654149,2067,2208,0
1779865056.8686988,2153,2156,0
1779865056.8717911,2168,2201,0
1779865056.8775911,2208,2215,0
1779865056.878346,2258,2111,0
1779865056.878902,2076,2091,0
1779865056.882147,1859,2088,0
1779865056.882516,1973,2172,0
1779865056.882711,2169,2150,0
1779865056.882803,2443,2067,0
1779865056.8829188,1998,2120,0
1779865056.882976,1803,2218,0
1779865056.884347,1977,2079,0
1779865056.89225,2296,2145,0
1779865056.892407,3357,1784,0
1779865056.8952162,2207,2194,0
1779865056.8976629,1446,2069,0
1779865056.9041731,1746,2172,0
1779865056.908182,1851,2123,0
1779865056.908376,1906,1990,0
1779865056.908536,2041,1981,0
1779865056.9085948,1780,2204,0
1779865056.908649,1748,2258,0
1779865056.908703,1692,2097,0
1779865056.9087548,1980,2095,0
1779865056.911498,2565,1989,0
1779865056.912852,2031,2394,0
1779865056.914199,2170,2193,0
1779865056.922723,2193,1959,0
1779865056.92519,2206,1913,0
1779865056.9273632,2225,2051,0
1779865056.929791,2138,2217,0
1779865056.934328,1961,2193,0
1779865056.934679,2082,2040,0
1779865056.940526,2284,2039,0
1779865056.940667,2414,1859,0
1779865056.9414568,2180,2084,0
1779865056.942077,2231,2002,0
1779865056.9470441,2968,1928,0
1779865056.9496372,2538,2147,0
1779865056.949846,1648,2204,0
1779865056.95512,1579,2165,0
1779865056.957092,2078,2116,0
1779865056.961653,2171,2164,0
1779865056.962101,2086,2069,0
1779865056.96259,1911,2211,0
1779865056.963,1868,2181,0
1779865056.966403,2025,2014,0
1779865056.9665291,1930,2091,0
1779865056.966604,1972,2016,0
1779865056.9666681,2225,1986,0
1779865056.96683,2308,2038,0
1779865056.966959,2274,2042,0
1779865056.967118,2193,2117,0
1779865056.9684129,2440,2034,0
1779865056.971143,2388,1881,0
1779865056.9725041,1914,2060,0
1779865056.9831629,1990,2170,0
1779865056.996044,1896,2021,0
1779865056.996174,1816,1949,0
1779865056.996246,2124,1862,0
1779865056.9963121,2142,1838,0
1779865056.996373,1813,2047,0
1779865056.996435,1748,2013,0
1779865056.9965272,1841,2013,0
1779865056.996601,2008,2047,0
1779865056.996667,2121,2159,0
1779865056.9967308,2189,2052,0
1779865056.996795,2197,2071,0
1779865056.99822,2173,2062,0
1779865057.0084212,2101,2132,0
1779865057.0086322,2049,2000,0
1779865057.008852,2039,1976,0
1779865057.011327,1974,2174,0
1779865057.014028,2101,2205,0
1779865057.018785,2169,2215,0
1779865057.019027,2162,2125,0
1779865057.019697,2128,2061,0
1779865057.023442,2072,2007,0
1779865057.023639,2009,2062,0
1779865057.02372,2057,2075,0
1779865057.0239801,2149,2221,0
1779865057.0241761,2033,2242,0
1779865057.026898,2083,2137,0
1779865057.028246,2143,2049,0
1779865057.040386,2119,2034,0
1779865057.0428438,2071,2097,0
1779865057.049597,2023,2171,0
1779865057.050118,2125,2150,0
1779865057.050366,2021,2163,0
1779865057.050572,1932,2286,0
1779865057.051015,1964,2320,0
1779865057.053623,2123,2199,0
1779865057.0547001,2098,2111,0
1779865057.054834,2038,2059,0
1779865057.0549161,2091,2231,0
1779865057.0550241,2092,2266,0
1779865057.055151,2009,2174,0
1779865057.0566132,2012,2068,0
1779865057.062575,1977,2230,0
1779865057.062767,2081,2148,0
1779865057.06404,2110,2173,0
1779865057.0670369,2079,2188,0
1779865057.069599,1978,2152,0
1779865057.076499,2021,1984,0
1779865057.080502,2090,2017,0
1779865057.080651,2092,2150,0
1779865057.08096,1953,2222,0
1779865057.0811362,1987,1990,0
1779865057.081192,2114,1967,0
1779865057.081291,2117,2016,0
1779865057.082923,2039,2185,0
1779865057.084322,2027,2118,0
1779865057.097808,2040,2057,0
1779865057.102583,2047,2043,0
1779865057.107659,2041,2125,0
1779865057.111259,2068,2100,0
1779865057.1113448,2104,2106,0
1779865057.1114528,2099,2025,0
1779865057.111592,1957,2047,0
1779865057.111851,1978,2170,0
1779865057.1119308,2013,2034,0
1779865057.112076,2010,2101,0
1779865057.1121438,1979,2111,0
1779865057.112201,2031,2030,0
1779865057.1122508,2108,1997,0
1779865057.1123,2104,1956,0
1779865057.123057,2081,1902,0
1779865057.123413,2031,1993,0
1779865057.127946,2086,2030,0
1779865057.132797,2058,1971,0
1779865057.133279,2038,2001,0
1779865057.1337118,1955,2015,0
1779865057.136118,1991,2059,0
1779865057.137284,2067,2108,0
1779865057.1374311,2086,2000,0
1779865057.1377048,2093,1996,0
1779865057.137892,2049,2088,0
1779865057.137944,2040,1973,0
1779865057.139453,2076,2058,0
1779865057.1408582,2023,2175,0
1779865057.1422458,2087,2288,0
1779865057.150733,2147,2116,0
1779865057.151354,2078,2055,0
1779865057.1521568,1971,2036,0
1779865057.154193,1966,2146,0
1779865057.157235,2086,1924,0
1779865057.15905,2151,2077,0
1779865057.1635242,2077,2136,0
1779865057.164125,1942,2090,0
1779865057.166925,1939,1977,0
1779865057.167853,2069,1991,0
1779865057.168239,2069,2093,0
1779865057.1683578,2085,2079,0
1779865057.168544,2129,1984,0
1779865057.1803362,2152,1884,0
1779865057.185363,2030,2143,0
1779865057.192377,1940,2297,0
1779865057.193078,1990,2175,0
1779865057.193351,2052,1979,0
1779865057.193425,2128,1965,0
1779865057.19352,2188,2098,0
1779865057.193571,2094,2142,0
1779865057.193621,1997,2213,0
1779865057.193702,1971,2133,0
1779865057.193755,2049,2277,0
1779865057.1938078,1973,2382,0
1779865057.195162,1971,2093,0
1779865057.196627,2102,2217,0
1779865057.19907,1986,2243,0
1779865057.2076612,2096,2268,0
1779865057.210504,2199,2299,0
1779865057.2133162,2034,2316,0
1779865057.215641,1915,2213,0
1779865057.226351,1964,2302,0
1779865057.27507,2174,2125,0
1779865057.275174,2088,2069,0
1779865057.275244,2083,2173,0
1779865057.275309,2001,2187,0
1779865057.27537,1986,2119,0
1779865057.27543,2078,2127,0
1779865057.275488,2107,2042,0
1779865057.275548,2125,2152,0
1779865057.275609,2080,2144,0
1779865057.275669,2167,1996,0
1779865057.275732,2125,2206,0
1779865057.2757928,2061,2112,0
1779865057.275858,1946,2058,0
1779865057.275925,2031,2068,0
1779865057.275987,2090,2097,0
1779865057.276048,2138,2199,0
1779865057.276115,2012,2311,0
1779865057.276182,1834,2108,0
1779865057.27631,2005,2053,0
1779865057.276386,2107,2089,0
1779865057.276445,1945,2095,0
1779865057.276497,2099,2087,0
1779865057.276546,2036,1954,0
1779865057.276597,2054,2015,0
1779865057.276649,2043,2138,0
1779865057.2767,2097,2147,0
1779865057.2767518,2089,2128,0
1779865057.276962,2072,2044,0
1779865057.277251,2077,2052,0
1779865057.2773042,2230,2006,0
1779865057.277355,2217,1972,0
1779865057.277407,1990,1885,0
1779865057.277457,1934,2070,0
1779865057.277508,2000,2029,0
1779865057.279893,2109,2121,0
1779865057.282156,2074,2004,0
1779865057.2822661,2122,1992,0
1779865057.284041,2066,2021,0
1779865057.2872179,2015,1875,0
1779865057.29108,1860,1647,0
1779865057.29136,1745,1851,0
1779865057.2928672,2364,2599,0
1779865057.3043299,2334,2447,0
1779865057.304565,2089,2022,0
1779865057.3067882,2003,2020,0
1779865057.309074,1975,2189,0
1779865057.3095272,2243,2172,0
1779865057.311817,2187,2124,0
1779865057.3181171,1933,2183,0
1779865057.318388,1922,2154,0
1779865057.319264,2050,1964,0
1779865057.322916,2011,1955,0
1779865057.323075,2031,2167,0
1779865057.323263,2030,2072,0
1779865057.32337,2026,2045,0
1779865057.323467,1996,2127,0
1779865057.323665,2152,2279,0
1779865057.324963,2048,2326,0
1779865057.33098,2089,2105,0
1779865057.332459,2095,1781,0
1779865057.3331242,1948,1737,0
1779865057.335487,2078,2385,0
1779865057.337557,2283,2644,0
1779865057.34429,2177,2286,0
1779865057.344654,2135,2249,0
1779865057.345013,2344,2374,0
1779865057.345891,1916,2230,0
1779865057.34823,1702,1913,0
1779865057.349219,2060,2373,0
1779865057.349317,2412,2722,0
1779865057.350663,2013,1975,0
1779865057.352067,2188,1729,0
1779865057.354957,2092,1889,0
1779865057.36112,1989,2240,0
1779865057.361877,1810,2186,0
1779865057.3645928,2224,2219,0
1779865057.369149,2307,2227,0
1779865057.375547,2279,2074,0
1779865057.3759072,2031,1842,0
1779865057.376565,2118,2085,0
1779865057.3768198,2129,2124,0
1779865057.3771389,2063,2009,0
1779865057.377399,1828,2206,0
1779865057.3799171,1956,2212,0
1779865057.380926,2226,2175,0
1779865057.3810601,2074,2108,0
1779865057.382559,2032,2092,0
1779865057.3891358,2014,2266,0
1779865057.3926752,2088,2234,0
1779865057.392834,2064,2166,0
1779865057.393089,2034,2103,0
1779865057.395797,2138,2324,0
1779865057.397883,2169,2259,0
1779865057.4057548,2110,2148,0
1779865057.4059021,1957,1851,0
1779865057.4060218,2001,1833,0
1779865057.406143,2012,1695,0
1779865057.406291,1932,2060,0
1779865057.406414,2247,2508,0
1779865057.4090428,2305,2115,0
1779865057.410371,2216,1843,0
1779865057.417948,1988,2045,0
1779865057.420461,1840,1853,0
1779865057.420595,1975,1997,0
1779865057.422731,2162,2523,0
1779865057.423001,2061,2196,0
1779865057.425282,2004,1941,0
1779865057.425568,2181,2246,0
1779865057.427722,1986,2139,0
1779865057.432075,2231,2018,0
1779865057.432653,2161,2228,0
1779865057.436259,2079,2083,0
1779865057.436464,2148,2002,0
1779865057.436527,2012,1759,0
1779865057.439311,1916,1735,0
1779865057.445109,2002,2175,0
1779865057.449453,2012,2454,0
1779865057.451763,1994,2045,0
1779865057.454282,2111,1944,0
1779865057.4586098,2241,2042,0
1779865057.459498,2163,2153,0
1779865057.4597251,2079,2076,0
1779865057.460062,1958,1986,0
1779865057.463125,1997,2185,0
1779865057.463491,2015,2355,0
1779865057.463584,2056,2078,0
1779865057.4636538,2050,2082,0
1779865057.4648478,2085,2084,0
1779865057.466208,2098,2127,0
1779865057.4689229,2145,2132,0
1779865057.470832,2148,2108,0
1779865057.478157,2052,2099,0
1779865057.4803069,2029,2155,0
1779865057.480713,2065,2103,0
1779865057.482743,2085,2086,0
1779865057.484939,2081,2123,0
1779865057.4852061,2084,2116,0
1779865057.48943,2038,2113,0
1779865057.4896169,2146,2013,0
1779865057.493105,2110,2038,0
1779865057.4939132,1953,2106,0
1779865057.494282,2019,2134,0
1779865057.4943712,2101,1965,0
1779865057.5022578,2112,1960,0
1779865057.502439,2111,2212,0
1779865057.50457,2041,2071,0
1779865057.512226,2094,2013,0
1779865057.516248,2076,1930,0
1779865057.51669,2059,2063,0
1779865057.520278,1998,2147,0
1779865057.520392,2139,1973,0
1779865057.520447,2080,1884,0
1779865057.5205839,2053,1862,0
1779865057.520638,2000,1983,0
1779865057.520687,2056,1865,0
1779865057.520736,2135,1928,0
1779865057.522725,2111,2051,0
1779865057.524161,1987,2125,0
1779865057.526892,1974,2158,0
1779865057.532353,2074,2068,0
1779865057.538799,2099,2038,0
1779865057.5397491,2141,2057,0
1779865057.545695,2062,2044,0
1779865057.546582,2019,1984,0
1779865057.550239,2074,2091,0
1779865057.550346,1969,2140,0
1779865057.550446,1992,2186,0
1779865057.55058,2158,2089,0
1779865057.550693,2071,2026,0
1779865057.550821,2120,2032,0
1779865057.5509472,2102,2069,0
1779865057.55313,2134,2041,0
1779865057.559923,2112,2084,0
1779865057.565156,2088,2047,0
1779865057.571677,2074,2185,0
1779865057.572077,2080,2016,0
1779865057.572962,2063,1932,0
1779865057.576021,2124,1960,0
1779865057.576118,1967,2027,0
1779865057.5763662,2056,1983,0
1779865057.5764768,2133,1809,0
1779865057.576679,2020,1858,0
1779865057.576959,2029,1899,0
1779865057.5770829,2075,1987,0
1779865057.578559,2136,1845,0
1779865057.580029,2141,1828,0
1779865057.588347,2058,1890,0
1779865057.590173,2060,1943,0
1779865057.593015,2106,1949,0
1779865057.5934951,2073,2008,0
1779865057.598132,1977,2037,0
1779865057.602109,1972,2126,0
1779865057.6027808,2089,1937,0
1779865057.606148,2047,1902,0
1779865057.606436,2050,1706,0
1779865057.606496,2036,1741,0
1779865057.606663,2139,1777,0
1779865057.6067588,2159,1677,0
1779865057.606816,2044,1841,0
1779865057.60814,2028,2026,0
1779865057.61851,2087,2004,0
1779865057.621092,2099,1883,0
1779865057.628124,2098,1833,0
1779865057.628514,2080,1991,0
1779865057.6315,2061,2073,0
1779865057.631606,2079,2003,0
1779865057.631665,2042,2012,0
1779865057.631764,2002,2056,0
1779865057.6319628,2069,2083,0
1779865057.6321878,2107,1994,0
1779865057.632331,2076,1945,0
1779865057.63243,2006,1961,0
1779865057.635129,2087,2151,0
1779865057.636605,2207,2002,0
1779865057.637992,2084,2030,0
1779865057.644593,1989,2013,0
1779865057.6460538,2017,2096,0
1779865057.648845,2202,2052,0
1779865057.649119,2159,2015,0
1779865057.6493492,2112,1983,0
1779865057.652179,2044,1977,0
1779865057.654221,2058,2041,0
1779865057.6581671,2073,2043,0
1779865057.658627,2023,2059,0
1779865057.659032,1958,2160,0
1779865057.6626859,2091,2087,0
1779865057.662924,2105,1992,0
1779865057.6643252,2147,2015,0
1779865057.671328,2001,2055,0
1779865057.6720371,2094,2047,0
1779865057.6773372,2096,2049,0
1779865057.679086,2052,2023,0
1779865057.679154,2066,2110,0
1779865057.6792378,2083,2121,0
1779865057.679544,2093,1971,0
1779865057.683711,2081,2058,0
1779865057.684195,2133,2006,0
1779865057.684331,2175,2041,0
1779865057.687841,2147,1905,0
1779865057.68799,2103,2029,0
1779865057.690656,2031,2258,0
1779865057.6920671,2016,2214,0
1779865057.694985,2112,2021,0
1779865057.699938,2094,2045,0
1779865057.704596,2021,1994,0
1779865057.712509,2080,2031,0
1779865057.713137,2069,2088,0
1779865057.7139058,2084,2031,0
1779865057.714369,2073,2080,0
1779865057.716866,2054,2109,0
1779865057.717152,2094,2114,0
1779865057.718108,2104,2120,0
1779865057.718165,2117,2115,0
1779865057.7183208,2054,2098,0
1779865057.718434,2034,1958,0
1779865057.720065,2041,1983,0
1779865057.728168,1988,2126,0
1779865057.730345,2044,2199,0
1779865057.733375,2120,2137,0
1779865057.73885,2073,2019,0
1779865057.73905,2179,2055,0
1779865057.740007,2059,1994,0
1779865057.74326,2009,1999,0
1779865057.743737,2141,1980,0
1779865057.744192,2142,2029,0
1779865057.744475,2080,2139,0
1779865057.7445629,2019,2220,0
1779865057.744658,2054,1875,0
1779865057.746049,2047,1748,0
1779865057.748939,2111,1749,0
1779865057.756335,2082,2016,0
1779865057.757101,2116,1894,0
1779865057.760732,2076,1799,0
1779865057.7612102,2063,1902,0
1779865057.765347,2035,2021,0
1779865057.7656078,2098,2000,0
1779865057.7693472,2092,2007,0
1779865057.772973,2115,1987,0
1779865057.7733161,2104,2022,0
1779865057.773442,2093,2075,0
1779865057.773559,2080,2014,0
1779865057.773623,2054,1975,0
1779865057.774953,2027,2074,0
1779865057.781903,2072,2096,0
1779865057.783069,2108,2092,0
1779865057.785829,2084,2077,0
1779865057.7906299,2076,2159,0
1779865057.7942111,2090,2250,0
1779865057.794881,2168,2094,0
1779865057.7985458,2065,2001,0
1779865057.798796,1995,2111,0
1779865057.7988522,2002,2279,0
1779865057.798934,2109,2212,0
1779865057.799039,2119,1964,0
1779865057.799142,2083,1941,0
1779865057.800534,2028,2120,0
1779865057.802055,2131,2051,0
1779865057.804681,2097,2056,0
1779865057.811813,2018,2124,0
1779865057.8127282,2060,2209,0
1779865057.813973,2095,2207,0
1779865057.814164,2034,2022,0
1779865057.818706,2099,2052,0
1779865057.8248131,2136,2130,0
1779865057.8254342,2111,2104,0
1779865057.825749,2055,2062,0
1779865057.8292658,2059,2124,0
1779865057.829616,2043,2087,0
1779865057.829699,2058,2131,0
1779865057.83007,2136,1955,0
1779865057.830291,2132,1947,0
1779865057.83935,2094,2048,0
1779865057.8400152,2081,2057,0
1779865057.8420749,2141,1990,0
1779865057.844085,2072,2018,0
1779865057.844787,1976,2080,0
1779865057.847162,2035,2223,0
1779865057.850987,2013,2063,0
1779865057.851495,2133,1994,0
1779865057.855173,2123,1989,0
1779865057.855272,2011,2071,0
1779865057.8553789,2085,2058,0
1779865057.855482,2130,2025,0
1779865057.856962,2059,2145,0
1779865057.858376,2068,2223,0
1779865057.861204,2155,2162,0
1779865057.867485,2133,2055,0
1779865057.868225,2142,2019,0
1779865057.873824,2062,2120,0
1779865057.874617,2020,2079,0
1779865057.876715,2115,1966,0
1779865057.876999,2063,2021,0
1779865057.877138,1996,2156,0
1779865057.880971,2030,2209,0
1779865057.881624,2062,2007,0
1779865057.884705,2059,1963,0
1779865057.8848882,2099,2091,0
1779865057.8849542,2052,2272,0
1779865057.886663,2079,2131,0
1779865057.896929,2071,2043,0
1779865057.899505,2037,2197,0
1779865057.899641,2040,2267,0
1779865057.900929,2097,2146,0
1779865057.906522,2075,2077,0
1779865057.910491,2098,2031,0
1779865057.9106472,2081,2114,0
1779865057.910767,2115,2104,0
1779865057.910822,2098,2086,0
1779865057.9109151,2045,2129,0
1779865057.910965,1999,2184,0
1779865057.9110138,2114,2123,0
1779865057.9123662,2201,2086,0
1779865057.915067,2043,1974,0
1779865057.916492,2010,2021,0
1779865057.9241579,2102,2064,0
1779865057.925764,2073,2011,0
1779865057.928032,2044,2093,0
1779865057.930847,1984,2174,0
1779865057.93269,1964,2162,0
1779865057.933017,2153,2121,0
1779865057.936639,2116,2120,0
1779865057.936928,2110,2021,0
1779865057.937224,2068,2013,0
1779865057.94114,2090,2058,0
1779865057.941279,2103,2230,0
1779865057.9414241,2059,2188,0
1779865057.942817,2005,2217,0
1779865057.944,2067,2101,0
1779865057.9534478,2098,2103,0
1779865057.954078,2058,2129,0
1779865057.9569721,2087,2144,0
1779865057.9590888,2081,2041,0
1779865057.962945,2060,1968,0
1779865057.963496,2052,2109,0
1779865057.963906,2060,2202,0
1779865057.967289,2075,2126,0
1779865057.967411,2128,2043,0
1779865057.967477,2127,2019,0
1779865057.96753,2071,2206,0
1779865057.9689238,2055,2055,0
1779865057.9703062,2093,1953,0
1779865057.973048,2079,2031,0
1779865057.974541,1997,2205,0
1779865057.98497,1959,2231,0
1779865057.99333,2015,2084,0
1779865057.9938781,2045,2120,0
1779865057.994378,2217,2145,0
1779865057.994768,2402,2048,0
1779865057.998359,2144,2073,0
1779865057.998456,1952,2138,0
1779865057.998522,2076,2269,0
1779865057.998583,2074,2256,0
1779865057.9986439,2349,2073,0
1779865057.998705,3211,1860,0
1779865057.998765,2398,2152,0
1779865058.000236,1299,2295,0
1779865058.011213,1375,2068,0
1779865058.01982,1891,2067,0
1779865058.020721,1900,2176,0
1779865058.0242372,2003,2137,0
1779865058.024309,2140,2165,0
1779865058.024457,1778,2133,0
1779865058.024516,1591,2144,0
1779865058.024565,1775,2118,0
1779865058.0246139,2142,2145,0
1779865058.024672,2372,1991,0
1779865058.024721,2925,1930,0
1779865058.024769,2865,2138,0
1779865058.02631,2061,2353,0
1779865058.028867,1424,2104,0
1779865058.030498,1863,1994,0
1779865058.043766,1924,2117,0
1779865058.050379,1999,2143,0
1779865058.050949,2387,1852,0
1779865058.054399,2117,2135,0
1779865058.054604,1976,2200,0
1779865058.0546901,2088,2242,0
1779865058.05486,2046,2023,0
1779865058.0549388,2138,1937,0
1779865058.055007,2241,2069,0
1779865058.055072,2221,2101,0
1779865058.055156,2177,2090,0
1779865058.055221,1923,2050,0
1779865058.056577,1715,2060,0
1779865058.06747,1892,2234,0
1779865058.076069,2115,2093,0
1779865058.079943,2188,1962,0
1779865058.0800488,2664,1875,0
1779865058.080247,1949,2212,0
1779865058.0804439,1921,2107,0
1779865058.0805278,2159,1918,0
1779865058.0805938,2041,2157,0
1779865058.080655,1764,2214,0
1779865058.080724,1841,2243,0
1779865058.080789,2099,2107,0
1779865058.08092,2284,1976,0
1779865058.082412,2076,2155,0
1779865058.083864,1991,2152,0
1779865058.086171,2248,2055,0
1779865058.099523,2323,2052,0
1779865058.105839,2023,2233,0
1779865058.110005,2132,2167,0
1779865058.110126,2105,2082,0
1779865058.110362,2062,2086,0
1779865058.110539,2506,2006,0
1779865058.110817,2485,2086,0
1779865058.110888,2236,2052,0
1779865058.110952,2096,2100,0
1779865058.111052,1802,2122,0
1779865058.111122,1855,2272,0
1779865058.1111848,2228,2029,0
1779865058.112329,1714,2168,0
1779865058.118957,1732,2086,0
1779865058.12325,2100,1987,0
1779865058.1238809,2087,2039,0
1779865058.132052,2240,2028,0
1779865058.132864,2683,2078,0
1779865058.1331468,2079,2390,0
1779865058.13347,1639,2322,0
1779865058.134153,2423,1959,0
1779865058.1382132,2717,1955,0
1779865058.138381,2070,2144,0
1779865058.1385229,1322,2300,0
1779865058.1386209,2246,1994,0
1779865058.138688,2620,2082,0
1779865058.140376,2040,2235,0
1779865058.141851,1820,2311,0
1779865058.144325,1774,2159,0
1779865058.153544,1828,2119,0
1779865058.161566,1934,2185,0
1779865058.1655521,2041,2213,0
1779865058.1662521,2215,2203,0
1779865058.1666298,2163,2129,0
1779865058.167031,1985,2110,0
1779865058.170391,1948,2240,0
1779865058.170609,2399,2168,0
1779865058.170698,2179,2253,0
1779865058.170767,1919,2124,0
1779865058.1708329,1890,2098,0
1779865058.170898,2105,1988,0
1779865058.171093,2011,2113,0
1779865058.172717,2745,1944,0
1779865058.184642,1935,2290,0
1779865058.187857,1134,2202,0
1779865058.192329,1808,2011,0
1779865058.19554,2090,2020,0
1779865058.1956742,2136,2033,0
1779865058.1958132,2062,2194,0
1779865058.1958778,1680,2226,0
1779865058.195949,1609,2109,0
1779865058.196007,1948,2187,0
1779865058.1960618,2224,2187,0
1779865058.196117,2235,2066,0
1779865058.196167,2477,2110,0
1779865058.199044,2717,1941,0
1779865058.200396,2158,2100,0
1779865058.2018838,1799,2076,0
1779865058.2084732,2375,1904,0
1779865058.2099562,2799,1969,0
1779865058.212224,1615,2226,0
1779865058.2128692,1645,2131,0
1779865058.217215,2167,1997,0
1779865058.220848,1931,1885,0
1779865058.2212632,1879,1994,0
1779865058.221716,1874,2095,0
1779865058.2221818,2024,1948,0
1779865058.222539,2002,2078,0
1779865058.225645,2024,2160,0
1779865058.2258592,2112,2239,0
1779865058.228755,2353,2157,0
1779865058.23425,2470,2120,0
1779865058.236021,2179,2070,0
1779865058.236434,1957,2086,0
1779865058.2385862,2199,2164,0
1779865058.238954,2658,1929,0
1779865058.243849,1881,2244,0
1779865058.247985,1455,2296,0
1779865058.251602,2052,1956,0
1779865058.2518241,2135,1948,0
1779865058.2519171,2050,2085,0
1779865058.2520409,2013,2258,0
1779865058.252112,1800,2258,0
1779865058.254842,1834,2143,0
1779865058.256314,1899,2196,0
1779865058.257867,2089,2297,0
1779865058.266761,2293,2264,0
1779865058.269435,2096,2166,0
1779865058.278079,2074,2151,0
1779865058.282135,2009,2137,0
1779865058.282285,2047,2146,0
1779865058.282392,2204,2139,0
1779865058.28249,2109,2260,0
1779865058.282654,2035,2259,0
1779865058.28277,1989,2246,0
1779865058.282909,2483,2087,0
1779865058.282995,2356,2200,0
1779865058.283063,2138,2169,0
1779865058.2846599,1892,2122,0
1779865058.291549,1904,2130,0
1779865058.292371,1955,2116,0
1779865058.297111,1920,2188,0
1779865058.2999191,1959,2276,0
1779865058.30452,2113,2194,0
1779865058.307809,2167,2063,0
1779865058.308813,2049,2100,0
1779865058.308903,1951,2149,0
1779865058.308973,2120,2008,0
1779865058.309045,2237,2090,0
1779865058.309111,2025,2123,0
1779865058.309175,1873,2263,0
1779865058.310654,2069,2240,0
1779865058.3120708,2156,2140,0
1779865058.3147678,2174,2100,0
1779865058.3228319,2074,2091,0
1779865058.323769,2049,2187,0
1779865058.327026,2157,2142,0
1779865058.331538,1984,2077,0
1779865058.331958,1950,1999,0
1779865058.3361979,1978,2224,0
1779865058.340103,2182,2110,0
1779865058.3405051,1963,2135,0
1779865058.340616,1927,1996,0
1779865058.340715,2049,2059,0
1779865058.34077,2168,2000,0
1779865058.340823,2290,1993,0
1779865058.340877,2086,2186,0
1779865058.342248,1850,2340,0
1779865058.364863,1986,2173,0
1779865058.3654451,2266,2111,0
1779865058.365637,2128,2074,0
1779865058.3657951,2005,2128,0
1779865058.365932,2329,2056,0
1779865058.366095,2044,2163,0
1779865058.366189,2171,2248,0
1779865058.366346,1964,2253,0
1779865058.3664,1799,2112,0
1779865058.366466,1791,2089,0
1779865058.366583,2039,2048,0
1779865058.366882,2003,2004,0
1779865058.368293,1982,2155,0
1779865058.369886,2266,2097,0
1779865058.379169,2763,1938,0
1779865058.391527,1988,2201,0
1779865058.395756,1893,2220,0
1779865058.395884,1735,2004,0
1779865058.395956,1913,1941,0
1779865058.396021,2063,2015,0
1779865058.3960829,1967,2155,0
1779865058.396242,1920,2079,0
1779865058.396321,2164,2141,0
1779865058.396391,1946,2175,0
1779865058.396456,2249,2084,0
1779865058.396517,2648,1948,0
1779865058.3965812,2618,1929,0
1779865058.397959,2172,2054,0
1779865058.406057,2286,2058,0
1779865058.4089348,2125,2154,0
1779865058.411687,1448,2130,0
1779865058.4187121,1554,2058,0
1779865058.422383,1892,2158,0
1779865058.422477,1997,2231,0
1779865058.4225469,2027,2250,0
1779865058.4226172,2043,2168,0
1779865058.422681,1964,2241,0
1779865058.422745,2080,2239,0
1779865058.422807,2439,2005,0
1779865058.4228811,2078,2199,0
1779865058.4243042,1927,2134,0
1779865058.42701,2292,2237,0
1779865058.428471,2319,1930,0
1779865058.4401128,1910,2083,0
1779865058.4434319,2054,2094,0
1779865058.4492319,2455,1925,0
1779865058.449971,2111,2031,0
1779865058.45052,1922,2074,0
1779865058.453977,1994,2052,0
1779865058.45413,1993,2120,0
1779865058.454205,2487,2103,0
1779865058.4543092,2015,2235,0
1779865058.454378,1868,2066,0
1779865058.454431,2188,1943,0
1779865058.4544818,2400,2073,0
1779865058.4545321,2401,2116,0
1779865058.455953,2615,2056,0
1779865058.470878,1670,2492,0
1779865058.4783528,1998,2217,0
1779865058.4788969,2372,1869,0
1779865058.478983,1812,2030,0
1779865058.479051,1736,2128,0
1779865058.4791412,1709,2171,0
1779865058.4792562,1903,2027,0
1779865058.479331,2075,2082,0
1779865058.479396,1880,2059,0
1779865058.47946,2008,2149,0
1779865058.4795241,2532,2158,0
1779865058.480685,3186,1949,0
1779865058.482059,2258,2148,0
1779865058.484766,1562,2127,0
1779865058.504153,1752,2004,0
1779865058.5049222,2030,2047,0
1779865058.505636,2005,2132,0
1779865058.508826,1886,2257,0
1779865058.509034,1971,2132,0
1779865058.509227,2339,1968,0
1779865058.509331,2053,2123,0
1779865058.5093892,1945,2001,0
1779865058.5095522,2365,1881,0
1779865058.509697,2442,2023,0
1779865058.509758,3137,1960,0
1779865058.509867,1855,2180,0
1779865058.509946,1239,2145,0
1779865058.51952,1764,1959,0
1779865058.524287,1961,2040,0
1779865058.531043,2006,2100,0
1779865058.53165,2043,2141,0
1779865058.5350242,2212,2047,0
1779865058.535429,2011,2081,0
1779865058.53553,2253,2190,0
1779865058.5356748,2336,2312,0
1779865058.535742,2146,2140,0
1779865058.535981,2581,2075,0
1779865058.536103,2211,2103,0
1779865058.536192,1737,2132,0
1779865058.536261,1851,2095,0
1779865058.5378618,2535,1993,0
1779865058.5405629,2536,2063,0
1779865058.54195,1439,2262,0
1779865058.55305,1403,2213,0
1779865058.557877,2030,1997,0
1779865058.562389,2154,2008,0
1779865058.56562,1888,2084,0
1779865058.5657432,1883,2179,0
1779865058.565835,1939,2108,0
1779865058.5659132,2083,2125,0
1779865058.566037,1956,2254,0
1779865058.566153,1951,2186,0
1779865058.56622,2137,2221,0
1779865058.566339,2269,2008,0
1779865058.566421,2247,2017,0
1779865058.567816,2141,2105,0
1779865058.578061,2199,1926,0
1779865058.580801,2094,1986,0
1779865058.581097,1930,2166,0
1779865058.583123,1897,2127,0
1779865058.587921,2221,1917,0
1779865058.591938,2251,2031,0
1779865058.592084,2331,2000,0
1779865058.592316,2158,2279,0
1779865058.592439,1812,2237,0
1779865058.592515,2094,1961,0
1779865058.592614,2154,2213,0
1779865058.592719,1612,2380,0
1779865058.5941591,1560,2110,0
1779865058.596859,1980,2038,0
1779865058.59826,2028,1853,0
1779865058.606358,1898,2106,0
1779865058.607212,1838,1925,0
1779865058.607977,1921,1911,0
1779865058.610604,1994,1916,0
1779865058.613636,2173,2324,0
1779865058.6159549,2171,2121,0
1779865058.620121,2263,2166,0
1779865058.621075,2101,1966,0
1779865058.621738,2120,2186,0
1779865058.625112,2107,2147,0
1779865058.62562,2106,2120,0
1779865058.6256871,2008,2120,0
1779865058.6258502,2006,2164,0
1779865058.625943,2028,2138,0
1779865058.635782,2144,2062,0
1779865058.639025,2098,1892,0
1779865058.641769,2074,2140,0
1779865058.642625,2053,2238,0
1779865058.6482618,2107,2155,0
1779865058.649081,2072,2285,0
1779865058.652825,1995,2381,0
1779865058.652918,1986,2441,0
1779865058.653053,1999,2045,0
1779865058.65312,2097,2169,0
1779865058.653175,2085,2208,0
1779865058.653227,2057,2188,0
1779865058.6532779,2012,2113,0
1779865058.654714,2092,1872,0
1779865058.656109,1809,2030,0
1779865058.658855,1894,2009,0
1779865058.665503,1847,1780,0
1779865058.667072,1785,1732,0
1779865058.6686049,1593,1949,0
1779865058.6710699,1948,2433,0
1779865058.674155,2162,2576,0
1779865058.6803358,2330,2326,0
1779865058.681227,2311,2420,0
1779865058.6843321,1872,2045,0
1779865058.685427,2035,2158,0
1779865058.68555,2521,2394,0
1779865058.685699,1900,2571,0
1779865058.685764,2184,2048,0
1779865058.685824,2561,1947,0
1779865058.68588,2459,2129,0
1779865058.694582,2082,2032,0
1779865058.695248,1835,2042,0
1779865058.696183,2168,1897,0
1779865058.696409,2405,2259,0
1779865058.699466,2228,2240,0
1779865058.7000031,2108,2166,0
1779865058.701727,1809,1834,0
1779865058.70524,1944,1789,0
1779865058.709551,1953,2036,0
1779865058.71348,1943,1993,0
1779865058.713941,2011,2088,0
1779865058.714083,2283,2265,0
1779865058.714168,2282,2154,0
1779865058.714319,2106,1994,0
1779865058.716885,2076,1946,0
1779865058.718264,1882,1809,0
1779865058.7213461,1992,2098,0
1779865058.7280798,2182,2129,0
1779865058.729719,1884,2387,0
1779865058.732008,1969,2265,0
1779865058.7324128,2218,2047,0
1779865058.734533,2370,2054,0
1779865058.737204,2153,1867,0
1779865058.741339,2018,1836,0
1779865058.742055,1944,1894,0
1779865058.7426188,1931,1999,0
1779865058.74569,2105,2328,0
1779865058.74612,2190,2272,0
1779865058.746284,2236,1947,0
1779865058.746465,2170,1922,0
1779865058.747862,2076,1977,0
1779865058.755126,2041,2177,0
1779865058.75663,2076,2104,0
1779865058.7595992,2276,1970,0
1779865058.764212,2400,1909,0
1779865058.76849,1824,1931,0
1779865058.7689128,2159,1792,0
1779865058.77267,2160,2041,0
1779865058.77278,2064,1998,0
1779865058.7728488,1762,2172,0
1779865058.7729201,1815,2119,0
1779865058.772995,1940,2121,0
1779865058.77306,2067,2156,0
1779865058.7744389,1928,2376,0
1779865058.775855,1909,2439,0
1779865058.779125,2027,2428,0
1779865058.793847,2501,2281,0
1779865058.8000052,2230,2236,0
1779865058.8006709,2345,2099,0
1779865058.8035672,2306,2081,0
1779865058.8046699,1816,2203,0
1779865058.804974,1876,2192,0
1779865058.8050728,1882,2083,0
1779865058.805196,1960,2067,0
1779865058.805405,2124,2022,0
1779865058.8054988,1823,2127,0
1779865058.805568,2090,2201,0
1779865058.805632,2276,2114,0
1779865058.805696,2166,1952,0
1779865058.805771,2124,2085,0
1779865058.814015,1888,2380,0
1779865058.815519,1919,2085,0
1779865058.826675,1911,1954,0
1779865058.829952,1971,1860,0
1779865058.830946,2049,2065,0
1779865058.831363,2267,2007,0
1779865058.831438,2602,1976,0
1779865058.83155,2429,2203,0
1779865058.8316338,2906,2105,0
1779865058.831698,1959,2418,0
1779865058.831885,1494,2399,0
1779865058.831966,1537,2391,0
1779865058.832042,1774,2222,0
1779865058.834541,1829,2348,0
1779865058.8359659,1698,2255,0
1779865058.848213,1771,2225,0
1779865058.848811,1982,2293,0
1779865058.851558,1946,2374,0
1779865058.858268,2201,2249,0
1779865058.8592892,2349,2218,0
1779865058.860117,2351,2166,0
1779865058.8632672,2188,2244,0
1779865058.8633611,2116,2174,0
1779865058.863541,2117,2121,0
1779865058.863612,2184,2037,0
1779865058.863717,2168,2098,0
1779865058.86383,2425,2014,0
1779865058.8640409,1970,2072,0
1779865058.8641129,2040,1959,0
1779865058.877216,2059,2000,0
1779865058.880212,2077,2012,0
1779865058.8845189,2049,2026,0
1779865058.8881211,1923,2024,0
1779865058.888983,1821,2215,0
1779865058.8890471,1938,2113,0
1779865058.889098,2106,2053,0
1779865058.8892019,2195,2050,0
1779865058.889418,2197,2011,0
1779865058.889503,2167,2057,0
1779865058.889626,2121,2017,0
1779865058.889729,2036,2102,0
1779865058.889861,1973,2148,0
1779865058.892509,2020,2201,0
1779865058.893912,2181,1931,0
1779865058.9017391,2230,1950,0
1779865058.9061272,2258,2034,0
1779865058.908871,2166,2130,0
1779865058.91169,2078,2045,0
1779865058.916105,2033,1983,0
1779865058.916668,1954,2113,0
1779865058.9173691,2030,2229,0
1779865058.918205,2067,2162,0
1779865058.921537,2024,2130,0
1779865058.921762,2120,2148,0
1779865058.922016,2071,1981,0
1779865058.922102,2069,2076,0
1779865058.9221718,2070,2000,0
1779865058.922239,2031,2193,0
1779865058.923738,2016,2235,0
1779865058.934231,1968,2234,0
1779865058.934664,2056,2102,0
1779865058.9369988,2126,1998,0
1779865058.9396129,2113,1948,0
1779865058.9443998,2026,2198,0
1779865058.9448478,2064,2034,0
1779865058.948405,2045,2011,0
1779865058.948492,2056,2163,0
1779865058.948559,2038,2211,0
1779865058.948622,2068,2162,0
1779865058.948791,2062,2059,0
1779865058.9488661,2117,2001,0
1779865058.9500449,2124,2082,0
1779865058.952991,2032,2205,0
1779865058.954356,2000,2206,0
1779865058.9650078,1985,2105,0
1779865058.967752,1973,2200,0
1779865058.974368,2007,2145,0
1779865058.9783192,2069,2076,0
1779865058.978412,2055,2105,0
1779865058.978488,2127,2101,0
1779865058.978611,2113,2103,0
1779865058.978675,2099,2000,0
1779865058.978817,2046,2023,0
1779865058.978919,2068,2122,0
1779865058.978998,2010,2173,0
1779865058.979061,2132,2111,0
1779865058.9804852,2143,2056,0
1779865058.995976,2075,1997,0
1779865059.000609,2167,2174,0
1779865059.001079,2146,2167,0
1779865059.004405,2166,2131,0
1779865059.004509,2068,2180,0
1779865059.0046022,2080,2211,0
1779865059.004692,2134,2193,0
1779865059.0047748,2141,2198,0
1779865059.004897,2141,2137,0
1779865059.0049741,2091,2118,0
1779865059.0050502,2122,2079,0
1779865059.005117,2203,2004,0
1779865059.0064871,2189,2051,0
1779865059.007923,2116,2166,0
1779865059.010682,2122,2227,0
1779865059.025942,2175,2060,0
1779865059.033385,2058,2071,0
1779865059.0344262,2050,2161,0
1779865059.0344949,2031,2125,0
1779865059.034555,2017,2027,0
1779865059.034654,1991,2031,0
1779865059.0347068,1993,2142,0
1779865059.0348501,1986,2150,0
1779865059.035002,2057,1983,0
1779865059.035061,2082,1993,0
1779865059.035168,2106,2060,0
1779865059.035226,2071,2138,0
1779865059.0366561,2097,2085,0
1779865059.0381818,2082,2025,0
1779865059.050974,2053,2177,0
1779865059.057665,2113,2246,0
1779865059.0607,2075,2161,0
1779865059.06159,2028,2076,0
1779865059.061715,2099,2106,0
1779865059.0618129,2044,2078,0
1779865059.062028,2097,2004,0
1779865059.062119,2075,2013,0
1779865059.062206,2043,2111,0
1779865059.062363,2021,2199,0
1779865059.062444,2029,2114,0
1779865059.062515,2090,2054,0
1779865059.0639,2090,1929,0
1779865059.066416,1991,2011,0
1779865059.069057,2020,2091,0
1779865059.0796192,2088,2040,0
1779865059.083043,2036,2020,0
1779865059.085493,1995,2136,0
1779865059.089597,1927,2167,0
1779865059.090655,2021,2006,0
1779865059.091161,2056,2060,0
1779865059.0946848,2059,2022,0
1779865059.0948129,2017,2064,0
1779865059.0953119,2018,2033,0
1779865059.095403,2038,2009,0
1779865059.09548,2041,2126,0
1779865059.095618,2030,2035,0
1779865059.095715,2090,2028,0
1779865059.095795,2126,2014,0
1779865059.107157,2099,2076,0
1779865059.11006,2103,2111,0
1779865059.1127949,2111,2006,0
1779865059.117733,2018,1935,0
1779865059.118641,1955,2091,0
1779865059.119309,1918,2025,0
1779865059.122278,2023,2116,0
1779865059.1234791,2136,1992,0
1779865059.123562,2053,1944,0
1779865059.123687,2081,2061,0
1779865059.123772,2054,2139,0
1779865059.123855,2141,2130,0
1779865059.123936,2079,2197,0
1779865059.124002,2076,2233,0
1779865059.1266198,2006,2301,0
1779865059.12799,2095,2151,0
1779865059.130689,2156,2157,0
1779865059.1401842,2216,2198,0
1779865059.1449091,2078,2319,0
1779865059.147582,2084,2219,0
1779865059.1526148,2073,2161,0
1779865059.156961,1939,2287,0
1779865059.157194,1954,2312,0
1779865059.157312,2058,2247,0
1779865059.1574159,2063,2189,0
1779865059.15749,2107,2125,0
1779865059.157566,1925,2179,0
1779865059.157631,2005,2081,0
1779865059.1576939,2254,1956,0
1779865059.157792,2113,2129,0
1779865059.157875,2107,2225,0
1779865059.172517,2028,2269,0
1779865059.174706,1994,2102,0
1779865059.1750772,2099,2137,0
1779865059.179874,2047,2104,0
1779865059.184453,2073,2202,0
1779865059.184744,2094,2049,0
1779865059.184823,2039,2063,0
1779865059.184887,2111,2151,0
1779865059.18495,2044,2258,0
1779865059.185011,2105,1962,0
1779865059.18522,2175,2105,0
1779865059.185313,2068,1960,0
1779865059.185547,1962,2198,0
1779865059.185664,2069,2167,0
1779865059.188364,1985,2025,0
1779865059.1898031,2015,2146,0
1779865059.20381,1989,2236,0
1779865059.213469,2062,2023,0
1779865059.217077,2158,2046,0
1779865059.21715,2077,2055,0
1779865059.2172039,2038,2255,0
1779865059.217289,2006,2008,0
1779865059.217345,1986,1914,0
1779865059.2174022,1963,2034,0
1779865059.217498,2183,2113,0
1779865059.217549,2013,2123,0
1779865059.217771,1828,1773,0
1779865059.2178319,1846,1938,0
1779865059.21792,2221,2038,0
1779865059.217972,2243,2216,0
1779865059.228344,2118,2164,0
1779865059.2315679,2031,1978,0
1779865059.232318,2033,1900,0
1779865059.235958,2175,2287,0
1779865059.238351,2028,2311,0
1779865059.242542,1926,1881,0
1779865059.243144,2219,1900,0
1779865059.2464662,2149,2164,0
1779865059.246561,1907,1795,0
1779865059.246617,2023,1873,0
1779865059.246668,1991,1893,0
1779865059.2467232,1880,1897,0
1779865059.2468789,2019,1863,0
1779865059.247057,2150,1707,0
1779865059.248426,2093,1694,0
1779865059.249783,2123,2118,0
1779865059.252407,2040,2030,0
1779865059.2538571,2186,1839,0
1779865059.262212,2231,1632,0
1779865059.2673411,2034,1697,0
1779865059.27444,2162,1900,0
1779865059.2748868,2060,1793,0
1779865059.275584,2073,1828,0
1779865059.276043,1920,1598,0
1779865059.279615,1949,1504,0
1779865059.281187,2043,1612,0
1779865059.281284,1951,1874,0
1779865059.2814,1942,1960,0
1779865059.2815092,1973,2041,0
1779865059.281628,2101,2000,0
1779865059.281709,2138,1943,0
1779865059.28179,2018,1802,0
1779865059.2920582,2152,1763,0
1779865059.304081,2030,1776,0
1779865059.30477,1965,1832,0
1779865059.305355,2140,1979,0
1779865059.309241,2034,2221,0
1779865059.309549,2021,2023,0
1779865059.309824,2090,1955,0
1779865059.3099022,2086,1974,0
1779865059.309969,2065,1895,0
1779865059.3100622,2041,1914,0
1779865059.310156,2105,1879,0
1779865059.310239,2156,1684,0
1779865059.310308,2122,1600,0
1779865059.3104372,1962,2258,0
1779865059.3119202,1928,2553,0
1779865059.31472,1796,2012,0
1779865059.316131,2171,1894,0
1779865059.328773,2245,2203,0
1779865059.3346748,2071,2077,0
1779865059.339,1977,1983,0
1779865059.3393438,1874,1956,0
1779865059.339767,2170,1949,0
1779865059.340462,2349,1929,0
1779865059.343882,2137,1780,0
1779865059.343968,2053,1607,0
1779865059.344147,2070,1707,0
1779865059.344222,2083,1755,0
1779865059.344276,2084,1760,0
1779865059.3443441,2031,1694,0
1779865059.344394,2005,1829,0
1779865059.3444428,2121,1715,0
1779865059.345835,2118,1677,0
1779865059.3643289,2082,1717,0
1779865059.36514,2103,1703,0
1779865059.36537,2127,1470,0
1779865059.368889,2101,1339,0
1779865059.3689768,2067,1643,0
1779865059.369044,2088,1812,0
1779865059.369121,2025,1746,0
1779865059.369184,2046,1620,0
1779865059.369249,1922,1641,0
1779865059.3693519,2006,1763,0
1779865059.369482,2102,2024,0
1779865059.371047,2039,1766,0
1779865059.372375,1968,1736,0
1779865059.373764,1952,1851,0
1779865059.3834848,1973,1990,0
1779865059.385644,2170,1852,0
1779865059.3972101,2221,1835,0
1779865059.397408,2148,1868,0
1779865059.397515,1920,1968,0
1779865059.3975701,2089,1990,0
1779865059.3977149,2103,1952,0
1779865059.397801,1936,2054,0
1779865059.3979268,1942,2165,0
1779865059.398127,2012,2051,0
1779865059.3982852,2138,1949,0
1779865059.398497,2107,1880,0
1779865059.400022,2059,1912,0
1779865059.406663,2121,1893,0
1779865059.412888,2158,1753,0
1779865059.418998,2077,1973,0
1779865059.423007,1989,2178,0
1779865059.423143,2006,2247,0
1779865059.42327,2054,2094,0
1779865059.423557,2111,1932,0
1779865059.4237351,2154,1955,0
1779865059.4239202,2043,2114,0
1779865059.424098,2059,1952,0
1779865059.424257,2048,2046,0
1779865059.4243789,1973,2070,0
1779865059.425762,2088,2247,0
1779865059.42861,2149,2097,0
1779865059.430526,2098,2036,0
1779865059.444934,2038,1981,0
1779865059.449059,1984,2057,0
1779865059.452406,2069,2078,0
1779865059.453215,2122,2041,0
1779865059.4533892,2019,2149,0
1779865059.453473,1955,2094,0
1779865059.453527,2025,1932,0
1779865059.453579,2034,1859,0
1779865059.45363,2067,1806,0
1779865059.453745,2106,1850,0
1779865059.454273,2086,1917,0
1779865059.454371,2135,1709,0
1779865059.4562821,2170,1857,0
1779865059.4622452,2065,2125,0
1779865059.4661188,2011,2197,0
1779865059.466629,2100,2008,0
1779865059.4689019,2066,1899,0
1779865059.4714282,2075,1940,0
1779865059.471642,2021,2137,0
1779865059.475682,2026,1953,0
1779865059.475958,2079,1992,0
1779865059.479303,1979,2078,0
1779865059.479672,1950,2212,0
1779865059.47982,2155,2101,0
1779865059.479934,2114,1935,0
1779865059.4827971,2102,2042,0
1779865059.4841752,2064,2174,0
1779865059.4855769,2003,2030,0
1779865059.493824,1969,1888,0
1779865059.4995599,2040,2034,0
1779865059.505053,2004,2153,0
1779865059.505267,2061,2081,0
1779865059.506271,2124,1976,0
1779865059.5085561,2085,1973,0
1779865059.5094311,2051,2043,0
1779865059.509533,2043,2035,0
1779865059.509588,2060,1969,0
1779865059.5096378,2066,2028,0
1779865059.5097358,2045,2117,0
1779865059.509908,2021,2185,0
1779865059.5197499,2066,2131,0
1779865059.522496,2046,2011,0
1779865059.522893,2091,1923,0
1779865059.5250618,2065,2110,0
1779865059.527719,2073,1983,0
1779865059.5312939,1968,2004,0
1779865059.5316281,2005,2124,0
1779865059.5320551,2058,2180,0
1779865059.5349581,2067,2102,0
1779865059.536007,2044,2029,0
1779865059.536175,2082,1928,0
1779865059.536235,1969,2032,0
1779865059.5362859,2013,2073,0
1779865059.537628,2118,2168,0
1779865059.540564,2156,2062,0
1779865059.54194,2056,2159,0
1779865059.548449,2130,2135,0
1779865059.550854,2071,1980,0
1779865059.55306,2152,1927,0
1779865059.561048,2083,2014,0
1779865059.561346,2088,2013,0
1779865059.561749,2120,1966,0
1779865059.562081,2037,2011,0
1779865059.565297,1986,2213,0
1779865059.565442,1973,2204,0
1779865059.565569,2090,2043,0
1779865059.565681,2054,2010,0
1779865059.565877,2039,2033,0
1779865059.579829,2063,2115,0
1779865059.582613,2077,1996,0
1779865059.5866811,2012,1980,0
1779865059.5895061,2059,2195,0
1779865059.590602,2021,2203,0
1779865059.5907001,2148,2052,0
1779865059.590846,2156,2057,0
1779865059.591224,2064,2028,0
1779865059.591369,2060,2077,0
1779865059.591459,2030,2078,0
1779865059.5915499,2073,2035,0
1779865059.5917702,1998,2055,0
1779865059.591848,1959,2128,0
1779865059.5945349,2067,2117,0
1779865059.5958898,2050,2074,0
1779865059.605598,2077,2015,0
1779865059.610094,2124,2044,0
1779865059.61088,2103,2123,0
1779865059.612729,2101,1946,0
1779865059.61694,2087,2064,0
1779865059.6202261,2018,2221,0
1779865059.62033,1966,2156,0
1779865059.6205409,2112,1989,0
1779865059.620694,2136,2010,0
1779865059.620863,1934,1867,0
1779865059.620973,2007,1949,0
1779865059.621174,2095,1834,0
1779865059.6225228,2059,1910,0
1779865059.6305,2048,1990,0
1779865059.632632,1987,2185,0
1779865059.636804,2088,2021,0
1779865059.640357,2147,1916,0
1779865059.6441758,2061,1900,0
1779865059.644346,1995,1976,0
1779865059.6444569,2064,2008,0
1779865059.644634,2109,1982,0
1779865059.644785,2109,2128,0
1779865059.644961,2028,2159,0
1779865059.645155,2049,2054,0
1779865059.646683,2062,2007,0
1779865059.648108,2115,2061,0
1779865059.656555,2080,2048,0
1779865059.6586418,2090,1982,0
1779865059.661092,2065,1961,0
1779865059.665552,2038,2054,0
1779865059.6691608,2043,2146,0
1779865059.6700149,2049,2292,0
1779865059.673122,2091,2030,0
1779865059.673311,1981,1990,0
1779865059.673416,1988,2025,0
1779865059.6736262,2022,2180,0
1779865059.6737301,2086,1974,0
1779865059.673886,2031,1995,0
1779865059.673985,1996,2111,0
1779865059.681986,1965,2152,0
1779865059.682867,2083,2055,0
1779865059.683603,2029,1933,0
1779865059.688947,2088,2033,0
1779865059.6976519,2088,2184,0
1779865059.697964,2125,2119,0
1779865059.698109,2085,1968,0
1779865059.698229,2034,2133,0
1779865059.6983502,1962,2238,0
1779865059.698517,2063,2144,0
1779865059.698624,2132,2026,0
1779865059.698761,2102,2005,0
1779865059.7001102,2033,2021,0
1779865059.70275,2046,2096,0
1779865059.704294,2097,2010,0
1779865059.712754,2062,2027,0
1779865059.7148921,2027,2164,0
1779865059.718247,2006,2228,0
1779865059.720083,2070,2052,0
1779865059.723714,2085,2034,0
1779865059.724362,2116,1993,0
1779865059.724588,2091,2089,0
1779865059.724928,2077,2028,0
1779865059.727592,2083,2052,0
1779865059.7285278,1992,2087,0
1779865059.7286642,1973,2217,0
1779865059.728758,2036,2061,0
1779865059.7299771,2097,2027,0
1779865059.737631,2083,2014,0
1779865059.741056,2000,2057,0
1779865059.743274,2055,2024,0
1779865059.74425,2152,1963,0
1779865059.7462661,2019,2053,0
1779865059.75006,1972,2195,0
1779865059.750707,2066,2159,0
1779865059.7538922,2188,2098,0
1779865059.754078,2112,2053,0
1779865059.75424,1997,2038,0
1779865059.7543721,2037,2088,0
1779865059.754497,2151,1996,0
1779865059.756042,2099,2052,0
1779865059.7587469,1973,2177,0
1779865059.760085,1943,2291,0
1779865059.76842,2079,2070,0
1779865059.770997,2058,1968,0
1779865059.77285,2019,1971,0
1779865059.774049,1994,2128,0
1779865059.7796679,2035,1992,0
1779865059.7801862,2040,1998,0
1779865059.780494,2081,2204,0
1779865059.7806752,2056,2262,0
1779865059.783893,2086,2086,0
1779865059.784123,2044,1974,0
1779865059.784247,2059,1964,0
1779865059.784408,2040,2047,0
1779865059.787296,2051,2035,0
1779865059.796709,2011,1983,0
1779865059.7971158,2034,2073,0
1779865059.799124,2062,2264,0
1779865059.799374,2049,2130,0
1779865059.805401,2033,2067,0
1779865059.806259,2105,1952,0
1779865059.8068962,2092,2089,0
1779865059.8100019,2119,2157,0
1779865059.810206,2115,1987,0
1779865059.810343,1974,2098,0
1779865059.8104188,1931,2229,0
1779865059.81048,2042,2292,0
1779865059.8118432,2097,2058,0
1779865059.814433,2037,2034,0
1779865059.8158112,2004,2009,0
1779865059.826318,2030,2107,0
1779865059.8312361,2228,2039,0
1779865059.834503,2059,1960,0
1779865059.835011,2010,2124,0
1779865059.8357031,2154,2238,0
1779865059.838376,2364,2096,0
1779865059.8393002,2368,1823,0
1779865059.8393621,1934,2029,0
1779865059.839421,1854,2215,0
1779865059.839473,1934,2016,0
1779865059.839523,2079,1938,0
