timestamp,ch1,ch2,label
1779865097.4826088,2061,2097,1
1779865097.483132,2044,2137,1
1779865097.483436,2080,2014,1
1779865097.486361,2039,2110,1
1779865097.48649,1999,2270,1
1779865097.488557,2001,2295,1
1779865097.491592,2046,2060,1
1779865097.494027,2092,2009,1
1779865097.495337,2104,2096,1
1779865097.4966779,2040,2205,1
1779865097.499447,2056,2096,1
1779865097.503318,2083,2136,1
1779865097.503763,1992,2222,1
1779865097.505301,1984,2342,1
1779865097.507908,2064,2215,1
1779865097.510325,2065,2073,1
1779865097.5109508,2075,2027,1
1779865097.5135202,2023,2157,1
1779865097.514821,2024,2122,1
1779865097.5173771,2019,2010,1
1779865097.518671,2009,2099,1
1779865097.523674,1967,2252,1
1779865097.524498,2018,2243,1
1779865097.525983,2059,2078,1
1779865097.527712,2090,2084,1
1779865097.5296462,2065,2141,1
1779865097.531647,2026,2128,1
1779865097.532955,2044,1968,1
1779865097.5353699,2031,2124,1
1779865097.536673,1996,2261,1
1779865097.539231,2026,2270,1
1779865097.5438259,2101,2054,1
1779865097.545045,2099,2012,1
1779865097.546536,2065,2119,1
1779865097.5481548,2037,2230,1
1779865097.549933,2096,2070,1
1779865097.552334,2031,2002,1
1779865097.5524108,1971,2168,1
1779865097.554975,2005,2307,1
1779865097.557539,2075,2123,1
1779865097.558836,2030,1987,1
1779865097.5640361,2043,1981,1
1779865097.564506,2014,2053,1
1779865097.565513,2037,2063,1
1779865097.56846,2067,1993,1
1779865097.56955,2056,2124,1
1779865097.5725162,2032,2293,1
1779865097.572588,2046,2172,1
1779865097.5751522,2055,2011,1
1779865097.5764549,2070,1937,1
1779865097.5790138,2089,2078,1
1779865097.5817769,2062,2113,1
1779865097.584835,2103,1935,1
1779865097.585239,2043,1913,1
1779865097.5875971,2027,2132,1
1779865097.589273,2033,2180,1
1779865097.591074,2107,2058,1
1779865097.5928361,2081,1955,1
1779865097.595632,2065,1962,1
1779865097.5969322,2023,2090,1
1779865097.599283,2081,1950,1
1779865097.600584,2057,2034,1
1779865097.6057541,1971,2138,1
1779865097.606179,1978,2236,1
1779865097.608012,2083,2069,1
1779865097.610773,2079,1978,1
1779865097.611796,2044,1942,1
1779865097.613769,2052,1990,1
1779865097.615073,2064,1995,1
1779865097.6163762,2083,1958,1
1779865097.618836,2018,2080,1
1779865097.621396,1986,2243,1
1779865097.6227121,2040,2122,1
1779865097.6259751,2087,1937,1
1779865097.628341,2118,1906,1
1779865097.628511,2065,2018,1
1779865097.631915,2024,2098,1
1779865097.6339111,2104,1936,1
1779865097.635212,2079,1983,1
1779865097.636524,2048,2146,1
1779865097.639057,2037,2242,1
1779865097.640369,2085,2063,1
1779865097.642932,2087,2028,1
1779865097.6467872,2091,1975,1
1779865097.647291,2046,2030,1
1779865097.649467,2071,1964,1
1779865097.6520379,2074,1981,1
1779865097.654974,2036,2092,1
1779865097.655148,1975,2149,1
1779865097.656476,2106,2027,1
1779865097.65905,2082,2004,1
1779865097.660353,2102,1969,1
1779865097.662909,2056,2004,1
1779865097.668173,2073,1973,1
1779865097.668617,2095,1895,1
1779865097.670172,2086,2080,1
1779865097.670362,2033,2234,1
1779865097.6737611,2040,2195,1
1779865097.67552,2125,1976,1
1779865097.676826,2116,1950,1
1779865097.679273,2033,2055,1
1779865097.6804302,2049,2094,1
1779865097.682991,2091,1928,1
1779865097.684313,2020,2037,1
1779865097.688944,1987,2252,1
1779865097.690867,1939,2277,1
1779865097.690996,2060,2022,1
1779865097.693474,2075,1970,1
1779865097.696531,2055,2001,1
1779865097.6967318,2016,2145,1
1779865097.6992981,2063,2044,1
1779865097.700653,2084,1994,1
1779865097.703213,2041,2041,1
1779865097.704451,1997,2162,1
1779865097.708929,2062,2101,1
1779865097.709323,2056,1992,1
1779865097.711124,2075,1926,1
1779865097.714572,2046,2086,1
1779865097.71471,2064,2138,1
1779865097.7169101,2073,1976,1
1779865097.7194722,2026,2114,1
1779865097.720781,1985,2218,1
1779865097.723349,2021,2254,1
1779865097.724648,2095,2094,1
1779865097.7290099,2003,2039,1
1779865097.7294521,2040,2020,1
1779865097.7315872,2034,2082,1
1779865097.733985,2121,1982,1
1779865097.736747,2058,2052,1
1779865097.737191,2008,2150,1
1779865097.738503,2022,2227,1
1779865097.7410629,2082,2097,1
1779865097.74236,2089,1994,1
1779865097.7449138,2043,2004,1
1779865097.746325,2010,2104,1
1779865097.749661,2063,2006,1
1779865097.7519739,2084,1977,1
1779865097.753524,1968,2174,1
1779865097.7557812,1988,2261,1
1779865097.757496,2104,2061,1
1779865097.758806,2122,1958,1
1779865097.7613618,2095,1991,1
1779865097.762659,2049,2085,1
1779865097.765218,2054,2082,1
1779865097.766515,2104,1983,1
1779865097.7706308,2068,2033,1
1779865097.771328,2006,2140,1
1779865097.773348,2065,2180,1
1779865097.77586,2083,2025,1
1779865097.777268,2053,1996,1
1779865097.779051,2072,2041,1
1779865097.780353,2036,2156,1
1779865097.7829142,2106,1972,1
1779865097.784299,2034,2045,1
1779865097.786863,1980,2170,1
1779865097.793904,1979,2286,1
1779865097.7951858,2077,2074,1
1779865097.79659,2097,2042,1
1779865097.796711,2052,2015,1
1779865097.79685,2029,2045,1
1779865097.8000069,2046,1968,1
1779865097.801323,2088,1974,1
1779865097.8026292,2059,2166,1
1779865097.8051898,1992,2272,1
1779865097.8064861,2123,2073,1
1779865097.811813,2087,2021,1
1779865097.8129542,2098,1985,1
1779865097.81442,2054,2061,1
1779865097.814582,2052,2082,1
1779865097.818284,2108,2030,1
1779865097.818563,2028,2065,1
1779865097.821393,1998,2190,1
1779865097.8227,2016,2172,1
1779865097.8252742,2073,2011,1
1779865097.826574,2053,1922,1
1779865097.829136,2077,2020,1
1779865097.832096,2076,2116,1
1779865097.833611,2086,2100,1
1779865097.8364239,2043,2120,1
1779865097.836566,1984,2106,1
1779865097.838954,1965,2197,1
1779865097.840713,2079,2035,1
1779865097.843117,2056,1974,1
1779865097.844426,2068,1986,1
1779865097.8469188,2042,2084,1
1779865097.8482199,2080,1998,1
1779865097.852652,2064,1965,1
1779865097.853131,2014,2129,1
1779865097.8553832,1996,2227,1
1779865097.8578932,2119,2194,1
1779865097.85944,2106,2039,1
1779865097.8613482,2082,2058,1
1779865097.862653,2044,2083,1
1779865097.865209,2087,2075,1
1779865097.866507,2106,1976,1
1779865097.86906,2017,2044,1
1779865097.8704362,1990,2206,1
1779865097.873606,2031,2192,1
1779865097.8758569,2088,2060,1
1779865097.8785222,2079,2051,1
1779865097.879843,2051,2050,1
1779865097.8815942,1998,2065,1
1779865097.882897,2079,1951,1
1779865097.884224,2072,1991,1
1779865097.8867772,2019,2229,1
1779865097.889336,1993,2284,1
1779865097.8906329,2088,2064,1
1779865097.893915,2114,1998,1
1779865097.896374,2082,1962,1
1779865097.89658,2024,2137,1
1779865097.8991082,2085,2069,1
1779865097.900597,2097,1971,1
1779865097.902574,2053,2068,1
1779865097.9051661,2028,2224,1
1779865097.9064739,2042,2138,1
1779865097.909031,2038,2017,1
1779865097.910325,2059,1971,1
1779865097.914658,2072,2007,1
1779865097.914774,2067,2072,1
1779865097.917283,2083,1975,1
1779865097.9197812,2036,2072,1
1779865097.921352,1982,2276,1
1779865097.923219,1996,2224,1
1779865097.924523,2070,2020,1
1779865097.92708,2095,1986,1
1779865097.9283772,2092,2033,1
1779865097.9309309,2042,2131,1
1779865097.932281,2088,1955,1
1779865097.9355001,2027,2022,1
1779865097.937839,2020,2093,1
1779865097.940439,2023,2229,1
1779865097.940602,2095,2031,1
1779865097.944063,2094,1971,1
1779865097.945407,2087,1967,1
1779865097.9467149,2026,2111,1
1779865097.949276,2067,2063,1
1779865097.950573,2054,2056,1
1779865097.956322,2005,2172,1
1779865097.9569962,2021,2211,1
1779865097.957452,2059,2145,1
1779865097.9589918,2052,1962,1
1779865097.9614651,2089,2037,1
1779865097.9631732,2062,2074,1
1779865097.965332,2020,2067,1
1779865097.966828,2081,1953,1
1779865097.96819,2045,2076,1
1779865097.9706938,2039,2190,1
1779865097.976108,2049,2247,1
1779865097.9772851,2085,2075,1
1779865097.9780202,2080,1982,1
1779865097.981866,2074,1992,1
1779865097.98205,2058,2124,1
1779865097.983478,2099,2000,1
1779865097.985461,2058,1969,1
1779865097.986774,2003,2098,1
1779865097.989232,1965,2225,1
1779865097.990533,2090,2046,1
1779865097.9930859,2116,1916,1
1779865097.996577,2169,1959,1
1779865097.997323,2097,2143,1
1779865097.999088,2021,2035,1
1779865098.00178,2035,1965,1
1779865098.003197,2031,2059,1
1779865098.0053592,2014,2242,1
1779865098.006689,2026,2184,1
1779865098.009315,2040,1958,1
1779865098.010614,2041,1907,1
1779865098.0131662,2039,2047,1
1779865098.0175319,2105,2067,1
1779865098.0182972,2160,1960,1
1779865098.0187578,2068,2004,1
1779865098.02031,1938,2083,1
1779865098.02453,2002,2177,1
1779865098.026817,2090,2026,1
1779865098.02703,2080,2013,1
1779865098.028481,2081,1962,1
1779865098.031083,2119,2005,1
1779865098.032386,2275,1982,1
1779865098.038718,2108,2081,1
1779865098.0391839,1985,2158,1
1779865098.039625,1935,2331,1
1779865098.041263,1971,2059,1
1779865098.043833,2068,1984,1
1779865098.045565,2254,1920,1
1779865098.047203,2720,1732,1
1779865098.048528,2159,2075,1
1779865098.051105,1722,2149,1
1779865098.052171,1807,1993,1
1779865098.054726,2144,2114,1
1779865098.058471,2342,2128,1
1779865098.0588522,2386,1940,1
1779865098.060791,1697,2188,1
1779865098.063503,1598,2058,1
1779865098.065099,2106,1915,1
1779865098.0672262,1933,2079,1
1779865098.0685272,2096,1951,1
1779865098.071085,1922,2232,1
1779865098.072384,1931,2237,1
1779865098.0749362,1969,2056,1
1779865098.079304,1954,1923,1
1779865098.080107,1942,2043,1
1779865098.080203,1922,2167,1
1779865098.084144,2063,2029,1
1779865098.085898,2125,1990,1
1779865098.0880508,2238,2085,1
1779865098.088126,2180,2201,1
1779865098.090708,2102,2054,1
1779865098.092096,2167,1933,1
1779865098.094659,2111,1998,1
1779865098.099995,2009,2108,1
1779865098.100428,1999,2014,1
1779865098.1008608,2235,1881,1
1779865098.102567,2180,2024,1
1779865098.1041658,1964,2264,1
1779865098.10689,1961,2203,1
1779865098.1089542,2217,1870,1
1779865098.110267,2196,2017,1
1779865098.1128378,2074,2074,1
1779865098.1141388,1933,2028,1
1779865098.116692,2020,2009,1
1779865098.1210618,1968,1955,1
1779865098.121878,1945,2108,1
1779865098.1234071,1983,2195,1
1779865098.127445,2104,1995,1
1779865098.1275709,2101,1966,1
1779865098.1296241,2074,2044,1
1779865098.130935,2092,1967,1
1779865098.132246,2064,1873,1
1779865098.134806,2038,2093,1
1779865098.1360939,2056,2227,1
1779865098.14149,2023,2264,1
1779865098.14226,2106,2117,1
1779865098.143556,2094,2062,1
1779865098.146111,2078,2099,1
1779865098.147902,2106,2192,1
1779865098.14962,2100,2057,1
1779865098.150926,2096,1947,1
1779865098.152228,2096,2106,1
1779865098.154676,2060,2275,1
1779865098.15606,2108,2226,1
1779865098.162039,2036,2008,1
1779865098.162435,2114,1923,1
1779865098.165062,2084,2018,1
1779865098.165795,1999,2044,1
1779865098.168548,1997,1942,1
1779865098.1690738,2012,2115,1
1779865098.17111,2011,2187,1
1779865098.1724238,2047,2279,1
1779865098.1750011,2112,2041,1
1779865098.17631,2128,2057,1
1779865098.182375,2093,2053,1
1779865098.183499,2076,2105,1
1779865098.186307,2093,2041,1
1779865098.1874208,1973,2071,1
1779865098.189226,2017,2132,1
1779865098.189406,2026,2202,1
1779865098.191617,2153,2051,1
1779865098.19299,2106,1984,1
1779865098.194336,2056,2047,1
1779865098.196908,2016,2054,1
1779865098.198213,1998,1904,1
1779865098.202569,2010,1827,1
1779865098.203014,2019,2211,1
1779865098.2051451,1923,2417,1
1779865098.2077792,2080,2195,1
1779865098.2098932,1845,1996,1
1779865098.212044,2031,2000,1
1779865098.212086,2180,2081,1
1779865098.2150981,2309,2079,1
1779865098.2165492,2202,1959,1
1779865098.219115,2188,1972,1
1779865098.222982,2116,2032,1
1779865098.2234051,2136,2076,1
1779865098.225722,2181,1878,1
1779865098.228239,2171,1824,1
1779865098.230162,2039,1862,1
1779865098.230546,1840,2000,1
1779865098.232866,2181,1986,1
1779865098.234166,2034,2097,1
1779865098.236728,1712,2127,1
1779865098.238042,1970,2044,1
1779865098.243768,2018,1828,1
1779865098.2445061,2068,1946,1
1779865098.246115,2222,1972,1
1779865098.246303,2159,1993,1
1779865098.250606,2176,2016,1
1779865098.250709,2313,2139,1
1779865098.252715,2192,2236,1
1779865098.2540631,2074,2288,1
1779865098.256514,2127,2152,1
1779865098.259076,2179,2141,1
1779865098.260374,2115,2108,1
1779865098.2640011,2034,2022,1
1779865098.2647529,2044,1960,1
1779865098.266314,1810,1746,1
1779865098.270588,1875,1818,1
1779865098.270715,2242,1975,1
1779865098.272703,2085,2080,1
1779865098.2740638,2017,2114,1
1779865098.276618,2160,1964,1
1779865098.2791748,1998,1678,1
1779865098.280276,1962,1914,1
1779865098.284408,1938,2156,1
1779865098.284883,2165,2214,1
1779865098.287146,2272,1858,1
1779865098.289648,2265,1748,1
1779865098.291496,1953,2184,1
1779865098.293615,2131,2375,1
1779865098.29492,2286,2104,1
1779865098.2962189,2222,1890,1
1779865098.2987719,2198,1960,1
1779865098.3000672,2396,2043,1
1779865098.305147,2288,2155,1
1779865098.305595,1902,2315,1
1779865098.307595,1729,1983,1
1779865098.310236,1716,1596,1
1779865098.312154,1591,1453,1
1779865098.312473,2395,1967,1
1779865098.314371,2586,2267,1
1779865098.3169541,1816,1426,1
1779865098.318253,1527,1304,1
1779865098.32081,2068,2528,1
1779865098.32225,2837,2589,1
1779865098.3262038,2105,1898,1
1779865098.3263009,1974,1938,1
1779865098.3281379,1879,2007,1
1779865098.332473,2336,1976,1
1779865098.332837,2369,1739,1
1779865098.3349361,1927,1892,1
1779865098.336247,2145,2244,1
1779865098.338815,2215,1964,1
1779865098.3401139,2032,1913,1
1779865098.342795,1904,2015,1
1779865098.3462222,2214,1950,1
1779865098.3467011,2316,2098,1
1779865098.348572,2040,2019,1
1779865098.351155,1982,1816,1
1779865098.353122,1931,1768,1
1779865098.355238,1698,1980,1
1779865098.3565388,2112,1950,1
1779865098.359179,2182,1685,1
1779865098.360436,2032,1769,1
1779865098.3629901,2287,1909,1
1779865098.3673248,1855,2020,1
1779865098.3677409,2049,2045,1
1779865098.369159,2120,2072,1
1779865098.371823,1784,2374,1
1779865098.3719912,2162,2346,1
1779865098.3740318,2179,2035,1
1779865098.376266,2209,1975,1
1779865098.384686,2295,2237,1
1779865098.3847392,2217,2375,1
1779865098.384778,1923,2226,1
1779865098.384817,1633,2370,1
1779865098.386511,1982,2373,1
1779865098.3930051,2211,2455,1
1779865098.393682,2260,2173,1
1779865098.393734,2256,2048,1
1779865098.405558,2209,2129,1
1779865098.4060311,2115,2154,1
1779865098.407499,2094,2076,1
1779865098.407678,2276,2046,1
1779865098.4078631,2600,2159,1
1779865098.409467,2376,2310,1
1779865098.410974,2131,2275,1
1779865098.411115,1989,2201,1
1779865098.411257,2169,2139,1
1779865098.4157271,2379,2195,1
1779865098.415766,2298,2180,1
1779865098.417093,2201,1969,1
1779865098.418408,2007,1832,1
1779865098.4245188,2099,2035,1
1779865098.425079,2157,2305,1
1779865098.4267142,2219,2003,1
1779865098.426878,2145,1961,1
1779865098.4294631,2158,2013,1
1779865098.43177,2173,1990,1
1779865098.43393,2148,1857,1
1779865098.433971,2283,1958,1
1779865098.436565,2275,1906,1
1779865098.439144,2180,2105,1
1779865098.44048,2224,2145,1
1779865098.4444458,2112,1915,1
1779865098.44484,2082,1749,1
1779865098.446733,2193,1881,1
1779865098.448437,2616,1914,1
1779865098.4515798,2368,1901,1
1779865098.453758,1937,2215,1
1779865098.455059,1909,2151,1
1779865098.456356,2184,2028,1
1779865098.4586911,2281,1981,1
1779865098.4599879,2127,2035,1
1779865098.464635,1842,2118,1
1779865098.466039,2068,2232,1
1779865098.466145,2081,1981,1
1779865098.47213,2160,2183,1
1779865098.47259,2046,2297,1
1779865098.47295,1958,2386,1
1779865098.4756842,1863,2139,1
1779865098.4769979,2194,2011,1
1779865098.478467,2116,2291,1
1779865098.4810371,1930,2292,1
1779865098.48568,1798,2318,1
1779865098.486374,2118,2255,1
1779865098.4868531,2999,2281,1
1779865098.4893482,2288,2485,1
1779865098.4929512,1632,2836,1
1779865098.493088,1921,2545,1
1779865098.4952462,2153,2301,1
1779865098.496614,2441,2274,1
1779865098.498247,2565,2270,1
1779865098.500881,2120,2624,1
1779865098.502199,2191,2331,1
1779865098.505758,1404,2576,1
1779865098.508065,1392,2542,1
1779865098.50824,2936,2301,1
1779865098.5129962,2941,2405,1
1779865098.513119,1312,3088,1
1779865098.5152729,1490,2652,1
1779865098.516578,1569,2875,1
1779865098.517985,1566,2849,1
1779865098.520598,1513,2727,1
1779865098.5219579,1847,2839,1
1779865098.527251,1961,2553,1
1779865098.5276742,2035,2275,1
1779865098.531453,1990,2334,1
1779865098.533738,2060,2139,1
1779865098.533917,2111,2126,1
1779865098.534007,2455,2094,1
1779865098.536721,2571,2308,1
1779865098.537932,2048,2606,1
1779865098.540509,1956,2275,1
1779865098.54304,2161,2146,1
1779865098.54628,2210,2365,1
1779865098.547403,2659,2279,1
1779865098.5501702,2147,2579,1
1779865098.553932,1738,2644,1
1779865098.5540218,1797,2566,1
1779865098.55421,1964,2510,1
1779865098.5563,2263,2524,1
1779865098.558868,2146,2496,1
1779865098.560168,1896,2083,1
1779865098.562739,1870,2108,1
1779865098.566954,2292,2191,1
1779865098.567978,2295,2294,1
1779865098.569557,2185,2151,1
1779865098.5712152,2131,2328,1
1779865098.574446,1879,2338,1
1779865098.5747368,2027,2721,1
1779865098.5766091,2104,2400,1
1779865098.577908,1883,2481,1
1779865098.580384,1645,2630,1
1779865098.5829399,1872,2512,1
1779865098.584255,1989,2549,1
1779865098.587871,2233,2630,1
1779865098.588554,2033,2686,1
1779865098.590202,1934,2441,1
1779865098.5948422,2103,2430,1
1779865098.5952268,2133,2354,1
1779865098.5968032,2120,2244,1
1779865098.5981178,1989,2419,1
1779865098.600681,1945,2442,1
1779865098.601977,2205,2078,1
1779865098.604532,2549,2204,1
1779865098.607957,2219,2444,1
1779865098.608068,1891,1908,1
1779865098.610482,1700,2002,1
1779865098.6121101,2401,1855,1
1779865098.6154969,1538,2158,1
1779865098.617571,1278,2026,1
1779865098.61888,1662,2061,1
1779865098.6201758,1571,2045,1
1779865098.6227388,1748,1969,1
1779865098.624037,1805,1921,1
1779865098.628339,2045,1852,1
1779865098.6290638,2370,2087,1
1779865098.631016,2301,1951,1
1779865098.633538,3723,1528,1
1779865098.6359181,3035,2009,1
1779865098.6361542,1749,2203,1
1779865098.638998,804,2162,1
1779865098.6403651,2244,1665,1
1779865098.642936,2494,1699,1
1779865098.644232,955,2139,1
1779865098.649384,825,1908,1
1779865098.649867,1241,1842,1
1779865098.65171,1669,1827,1
1779865098.651954,1670,1939,1
1779865098.656756,1932,1860,1
1779865098.65692,2170,1893,1
1779865098.6589508,2286,1697,1
1779865098.6602602,2302,1556,1
1779865098.6628249,2231,1512,1
1779865098.664126,2116,1669,1
1779865098.669824,2108,1540,1
1779865098.6702871,2002,1749,1
1779865098.670783,1948,2020,1
1779865098.672385,1998,1907,1
1779865098.6739142,2141,1580,1
1779865098.677372,2171,1782,1
1779865098.679569,2175,1750,1
1779865098.680885,2058,1876,1
1779865098.682194,2132,1989,1
1779865098.684758,2098,1792,1
1779865098.6860218,1988,1768,1
1779865098.690526,1898,1849,1
1779865098.6910222,2163,1968,1
1779865098.692597,2640,1931,1
1779865098.6951182,2108,2016,1
1779865098.6976051,1801,1961,1
1779865098.6996748,1882,1865,1
1779865098.701087,2007,1868,1
1779865098.702394,1986,1943,1
1779865098.704958,1890,1834,1
1779865098.7062569,1855,1921,1
1779865098.710634,1986,1760,1
1779865098.711398,2050,1765,1
1779865098.713193,2039,2059,1
1779865098.7149491,2028,2005,1
1779865098.7183208,2084,1942,1
1779865098.718519,2062,1757,1
1779865098.72051,2067,1836,1
1779865098.721854,1957,2025,1
1779865098.724424,2026,1858,1
1779865098.727,2064,1790,1
1779865098.7312582,2095,1761,1
1779865098.73199,2101,2001,1
1779865098.7327201,2051,1821,1
1779865098.735182,2279,2051,1
1779865098.738979,2116,2075,1
1779865098.7391,1903,2198,1
1779865098.7412832,1894,2039,1
1779865098.742592,2015,2411,1
1779865098.743871,2229,2469,1
1779865098.746434,2058,2392,1
1779865098.7516558,1914,2415,1
1779865098.752436,2012,2295,1
1779865098.753119,1999,2261,1
1779865098.756001,1970,2474,1
1779865098.7571342,1986,2801,1
1779865098.759562,2042,2925,1
1779865098.761577,2067,2579,1
1779865098.762891,2012,2501,1
1779865098.76419,2113,2702,1
1779865098.766745,2195,2623,1
1779865098.768041,1873,2429,1
1779865098.77213,1807,2109,1
1779865098.7728949,1926,2016,1
1779865098.774956,2059,1957,1
1779865098.777475,1984,1773,1
1779865098.779926,1883,1710,1
1779865098.780101,1912,1748,1
1779865098.7822888,2077,1673,1
1779865098.784853,2099,1726,1
1779865098.786099,2074,1987,1
1779865098.788667,2028,2145,1
1779865098.7938519,2056,2124,1
1779865098.795039,2087,1933,1
1779865098.7952352,2047,1832,1
1779865098.797819,2017,1925,1
1779865098.7981,2028,1974,1
1779865098.800481,2020,2072,1
1779865098.8025331,1964,2153,1
1779865098.803856,1988,2310,1
1779865098.806419,1987,2305,1
1779865098.808993,2082,2217,1
1779865098.813214,2038,2108,1
1779865098.813969,1995,2121,1
1779865098.815552,1992,2279,1
1779865098.8171961,2011,2227,1
1779865098.820446,1998,2250,1
1779865098.8206122,1996,2177,1
1779865098.822614,1955,2182,1
1779865098.8239439,2074,2013,1
1779865098.8264608,2080,2012,1
1779865098.827761,2036,1929,1
1779865098.833604,2033,2008,1
1779865098.833998,2140,2084,1
1779865098.835978,2126,2247,1
1779865098.8371232,2010,2289,1
1779865098.838838,1955,2364,1
1779865098.8413608,2021,2482,1
1779865098.8433971,2067,2303,1
1779865098.844703,2038,2200,1
1779865098.8460212,1994,2144,1
1779865098.848581,1993,2066,1
1779865098.849879,2055,1947,1
1779865098.8541088,2109,2055,1
1779865098.856842,2024,2120,1
1779865098.8570392,2000,2031,1
1779865098.859665,2246,1730,1
1779865098.8598862,2259,1827,1
1779865098.862439,1965,2074,1
1779865098.864597,1842,2102,1
1779865098.8659,1988,1913,1
1779865098.868473,2010,1828,1
1779865098.869775,1927,2333,1
1779865098.8743098,1876,2452,1
1779865098.8750138,2052,2349,1
1779865098.876981,2032,2368,1
1779865098.87863,2008,2402,1
1779865098.882085,2006,2295,1
1779865098.882272,2092,2270,1
1779865098.884497,2131,2072,1
1779865098.885817,2011,2093,1
1779865098.8885381,2003,2165,1
1779865098.889877,2072,2258,1
1779865098.896524,2029,2155,1
1779865098.898376,2020,2063,1
1779865098.898807,2073,2184,1
1779865098.9008598,2052,2227,1
1779865098.902199,2075,2147,1
1779865098.905401,2090,2140,1
1779865098.905633,2005,2180,1
1779865098.907855,2009,2200,1
1779865098.907978,2079,2130,1
1779865098.9106638,2092,2112,1
1779865098.912051,2102,2081,1
1779865098.9188428,2076,2071,1
1779865098.92199,2097,1938,1
1779865098.922187,2109,1788,1
1779865098.924829,2028,1871,1
1779865098.9252381,2048,1848,1
1779865098.925544,2093,1519,1
1779865098.927687,2108,1421,1
1779865098.927752,2139,1422,1
1779865098.930327,1982,1454,1
1779865098.9318578,1966,1509,1
1779865098.936954,2031,1540,1
1779865098.939549,1945,1756,1
1779865098.939928,2016,1894,1
1779865098.94314,1992,1963,1
1779865098.945837,2007,1816,1
1779865098.946173,2021,1772,1
1779865098.946639,1998,1802,1
1779865098.949166,2097,2045,1
1779865098.9506402,2122,1981,1
1779865098.952058,2062,1977,1
1779865098.9590132,1977,2050,1
1779865098.959614,1996,2087,1
1779865098.963299,2080,2017,1
1779865098.967346,2114,2087,1
1779865098.967721,2096,2061,1
1779865098.968272,2046,2098,1
1779865098.968628,2102,2198,1
1779865098.971031,2114,2237,1
1779865098.971188,2034,2327,1
1779865098.972573,2025,2404,1
1779865098.9738839,2077,2266,1
1779865098.98063,2049,2425,1
1779865098.9812741,2085,2395,1
1779865098.9827662,2056,2345,1
1779865098.983026,2158,2421,1
1779865098.98603,2182,2302,1
1779865098.988777,1983,2433,1
1779865098.9894311,1899,2312,1
1779865098.991821,2007,2295,1
1779865098.991947,2013,2343,1
1779865098.9944708,2016,2304,1
1779865098.9958742,1983,2344,1
1779865099.002069,1998,2324,1
1779865099.002223,2040,2184,1
1779865099.0039291,2021,2147,1
1779865099.007222,1983,2254,1
1779865099.0101252,2021,2351,1
1779865099.010445,2148,2132,1
1779865099.010685,2161,2167,1
1779865099.013098,2088,1970,1
1779865099.014512,2013,1949,1
1779865099.0158489,2047,1898,1
1779865099.022481,2050,1998,1
1779865099.0284002,1993,2147,1
1779865099.031733,1984,2270,1
1779865099.034743,2083,2128,1
1779865099.034886,2095,2156,1
1779865099.034985,2111,2165,1
1779865099.0350442,2008,2243,1
1779865099.035085,2112,2277,1
1779865099.0351229,2131,2147,1
1779865099.036662,1994,2131,1
1779865099.037992,1978,2378,1
1779865099.0405319,2021,2287,1
1779865099.0528839,2059,2189,1
1779865099.053086,2060,2246,1
1779865099.053237,1995,2176,1
1779865099.053598,1982,2256,1
1779865099.053845,2071,2158,1
1779865099.054027,2039,2189,1
1779865099.054292,2001,2302,1
1779865099.0560992,2018,2269,1
1779865099.0586739,2080,2099,1
1779865099.059995,2066,2044,1
1779865099.065465,2075,2081,1
1779865099.0663822,2037,2072,1
1779865099.066899,2036,1974,1
1779865099.068813,2078,1934,1
1779865099.070845,1988,2108,1
1779865099.074871,2016,1961,1
1779865099.075093,2079,1780,1
1779865099.077591,2108,1795,1
1779865099.078912,2128,1821,1
1779865099.080222,2080,1866,1
1779865099.086818,2086,1883,1
1779865099.087699,2067,1822,1
1779865099.08949,2016,1937,1
1779865099.0897589,2027,2235,1
1779865099.089886,2053,2182,1
1779865099.0955489,2069,2087,1
1779865099.095791,2077,2096,1
1779865099.0959418,1988,2123,1
1779865099.0983958,2023,2097,1
1779865099.099725,2113,2070,1
1779865099.102197,2003,2070,1
1779865099.108206,1931,2201,1
1779865099.108329,1976,2207,1
1779865099.108774,2086,2109,1
1779865099.110355,2082,2067,1
1779865099.11225,2065,2031,1
1779865099.1163719,2055,2118,1
1779865099.116533,2056,1986,1
1779865099.118321,2040,1908,1
1779865099.1199622,2007,2043,1
1779865099.122536,2016,2196,1
1779865099.1276422,2043,1895,1
1779865099.1281679,2062,1874,1
1779865099.128601,2106,1898,1
1779865099.1311529,2082,2022,1
1779865099.135181,2006,1974,1
1779865099.135392,2074,1793,1
1779865099.137502,2105,1912,1
1779865099.138807,2146,1947,1
1779865099.140109,2077,1829,1
1779865099.142695,2005,1731,1
1779865099.144118,2072,1777,1
1779865099.1477911,1996,1694,1
1779865099.148242,1922,1702,1
1779865099.150296,2028,1731,1
1779865099.152131,2044,1771,1
1779865099.15585,1974,1926,1
1779865099.1561909,1915,2006,1
1779865099.158311,2063,1937,1
1779865099.1609988,2188,1928,1
1779865099.162314,2139,1892,1
1779865099.1636322,2159,2007,1
1779865099.168115,2076,1873,1
1779865099.169217,1894,1826,1
1779865099.170689,1932,2019,1
1779865099.1759622,1998,2176,1
1779865099.1760929,2078,2119,1
1779865099.176246,1999,2056,1
1779865099.178317,2043,2033,1
1779865099.1796238,2204,1929,1
1779865099.182039,2099,1919,1
1779865099.1844769,2073,2019,1
1779865099.188577,2111,2141,1
1779865099.188721,2066,2218,1
1779865099.190977,2140,2266,1
1779865099.196309,1989,2104,1
1779865099.1964831,1866,1956,1
1779865099.196689,2002,1938,1
1779865099.198859,2001,2044,1
1779865099.200165,2112,1890,1
1779865099.2028108,2070,1947,1
1779865099.204118,1938,2030,1
1779865099.209295,2090,2065,1
1779865099.209711,2259,1852,1
1779865099.209823,2153,1692,1
1779865099.213078,1764,1788,1
1779865099.216841,1925,2329,1
1779865099.2169569,2074,2228,1
1779865099.218803,2141,1927,1
1779865099.220468,2054,2029,1
1779865099.221774,1823,2226,1
1779865099.224396,1916,2075,1
1779865099.2292638,1972,1948,1
1779865099.230381,1997,2035,1
1779865099.231849,2146,2174,1
1779865099.232039,2155,2038,1
1779865099.234842,2147,1749,1
1779865099.2375019,1970,1697,1
1779865099.2377632,2085,2043,1
1779865099.2399628,2065,2022,1
1779865099.2425332,2069,1792,1
1779865099.2438378,2015,1779,1
1779865099.250038,2184,1915,1
1779865099.250774,2121,2123,1
1779865099.2521222,2077,1928,1
1779865099.252338,2017,1835,1
1779865099.253719,2025,1969,1
1779865099.257719,2004,2044,1
1779865099.2580118,1991,1871,1
1779865099.259991,1982,1885,1
1779865099.262571,2206,1899,1
1779865099.263875,2259,1787,1
1779865099.270427,2126,1436,1
1779865099.270827,2028,1558,1
1779865099.271285,2018,1853,1
1779865099.274317,1899,2143,1
1779865099.2754428,2007,2063,1
1779865099.278049,2091,1869,1
1779865099.278239,2110,1646,1
1779865099.280069,1841,1726,1
1779865099.282627,1863,1909,1
1779865099.283937,2137,1552,1
1779865099.286509,2127,1576,1
1779865099.290057,1978,1630,1
1779865099.2905831,2036,1596,1
1779865099.2927418,2037,1382,1
1779865099.2943969,2181,1218,1
1779865099.2979572,1898,1099,1
1779865099.298263,2014,1617,1
1779865099.3004632,2204,1752,1
1779865099.301774,1996,1689,1
1779865099.304351,1943,1882,1
1779865099.306581,1974,2066,1
1779865099.3110049,2177,1949,1
1779865099.311893,2247,2009,1
1779865099.3128269,2036,1977,1
1779865099.315697,1930,2046,1
1779865099.317373,2052,1977,1
1779865099.325771,1949,1858,1
1779865099.325823,2005,1967,1
1779865099.3258612,1855,2107,1
1779865099.325898,2147,2222,1
1779865099.3259342,2244,1976,1
1779865099.332258,2097,1912,1
1779865099.332742,2154,2132,1
1779865099.334456,2008,2175,1
1779865099.3346329,2229,2010,1
1779865099.337526,2044,2043,1
1779865099.340443,1978,2349,1
1779865099.340677,2086,2449,1
1779865099.3431308,2057,2150,1
1779865099.344447,1969,1962,1
1779865099.345855,2031,1949,1
1779865099.352395,2083,2096,1
1779865099.353339,2161,2001,1
1779865099.3539178,1891,2071,1
1779865099.355453,1984,2139,1
1779865099.361228,2033,2362,1
1779865099.361613,2101,2223,1
1779865099.361744,2112,2145,1
1779865099.3620968,2152,2248,1
1779865099.364486,2068,2366,1
1779865099.365798,1990,2300,1
1779865099.3683999,2051,2251,1
1779865099.3697479,2011,2450,1
1779865099.375031,1947,2647,1
1779865099.375923,1902,2529,1
1779865099.377774,2071,2306,1
1779865099.378124,2147,2287,1
1779865099.3813329,2076,2367,1
1779865099.3842108,2077,2222,1
1779865099.3843892,2061,2112,1
1779865099.386956,2090,2185,1
1779865099.388278,2075,2356,1
1779865099.389599,2048,2337,1
1779865099.392129,2076,2158,1
1779865099.3971782,2098,2174,1
1779865099.3985732,2041,2211,1
1779865099.400176,2015,2227,1
1779865099.400376,2081,2013,1
1779865099.403754,2041,2018,1
1779865099.404075,1996,2119,1
1779865099.4071958,2024,2185,1
1779865099.409677,2046,1917,1
1779865099.4099998,2085,1881,1
1779865099.4125838,2072,1904,1
1779865099.413903,2021,1998,1
1779865099.419853,2026,1924,1
1779865099.421168,2074,1971,1
1779865099.4212701,2037,2048,1
1779865099.422772,1987,2146,1
1779865099.4247308,2059,2018,1
1779865099.4315279,2096,1913,1
1779865099.4316669,2049,1887,1
1779865099.431715,2020,2010,1
1779865099.431757,2047,2057,1
1779865099.434468,2085,2061,1
1779865099.4358652,2053,2152,1
1779865099.443328,1969,2336,1
1779865099.44852,2031,2270,1
1779865099.449048,2070,2043,1
1779865099.4520378,2050,2038,1
1779865099.452538,2076,2140,1
1779865099.45281,2097,2252,1
1779865099.453314,2111,2047,1
1779865099.456214,2076,2003,1
1779865099.456367,1988,2192,1
1779865099.45651,2009,2208,1
1779865099.4578922,2158,2033,1
1779865099.463882,2085,1920,1
1779865099.4659252,2057,1947,1
1779865099.4721012,2017,2039,1
1779865099.472752,2087,2012,1
1779865099.473195,2059,1998,1
1779865099.4737651,2025,2097,1
1779865099.475734,1996,2169,1
1779865099.476589,2041,2120,1
1779865099.476668,2079,2000,1
1779865099.478048,2105,1958,1
1779865099.480778,1997,2064,1
1779865099.486917,2105,1997,1
1779865099.488137,2088,1962,1
1779865099.488411,2006,2041,1
1779865099.490151,1962,2217,1
1779865099.492168,2071,2182,1
1779865099.496825,2122,2073,1
1779865099.497399,2093,2076,1
1779865099.499858,2062,2016,1
1779865099.500778,2043,2086,1
1779865099.500894,2106,2005,1
1779865099.502262,2055,2047,1
1779865099.508445,2023,2159,1
1779865099.510348,1991,2342,1
1779865099.513995,2048,2013,1
1779865099.51713,2059,1987,1
1779865099.517772,2073,2043,1
1779865099.518107,2055,2057,1
1779865099.5212018,2036,1972,1
1779865099.521352,2038,1982,1
1779865099.521497,2032,2062,1
1779865099.521621,1996,2160,1
1779865099.524151,2057,2104,1
1779865099.52553,2075,2055,1
1779865099.5321338,2027,1988,1
1779865099.5335839,2055,2042,1
1779865099.535519,2059,2150,1
1779865099.5375,2051,2040,1
1779865099.542876,2066,2126,1
1779865099.543348,1996,2236,1
1779865099.543954,2030,2289,1
1779865099.545994,2128,2076,1
1779865099.546901,2113,2010,1
1779865099.547041,2054,2080,1
1779865099.5484748,2028,2076,1
1779865099.555559,2086,1947,1
1779865099.5572019,2067,2033,1
1779865099.5575109,2043,2176,1
1779865099.5578082,1996,2281,1
1779865099.5596101,2112,2066,1
1779865099.561857,2086,2010,1
1779865099.56218,2109,2044,1
1779865099.565483,2081,2176,1
1779865099.566069,2090,2136,1
1779865099.569057,2017,2023,1
1779865099.5705411,1975,2071,1
1779865099.571933,1994,2284,1
1779865099.5746071,2134,2173,1
1779865099.5804338,2108,2048,1
1779865099.581496,2066,1963,1
1779865099.583426,2042,2043,1
1779865099.584852,2022,2085,1
1779865099.585637,2090,1949,1
1779865099.587928,2065,2065,1
1779865099.591156,2013,2198,1
1779865099.591437,1976,2148,1
1779865099.591752,2037,1971,1
1779865099.594622,2085,1983,1
1779865099.596073,2103,2038,1
1779865099.601741,2059,2122,1
1779865099.6019552,2078,2093,1
1779865099.605122,2055,2139,1
1779865099.607169,2029,2254,1
1779865099.609439,2061,2234,1
1779865099.612552,2089,2067,1
1779865099.61292,2043,1982,1
1779865099.6134138,2045,2029,1
1779865099.613746,2020,2050,1
1779865099.615884,2042,2006,1
1779865099.6186838,2051,1822,1
1779865099.6201081,2069,2019,1
1779865099.621542,2071,2287,1
1779865099.6277199,2027,2273,1
1779865099.628883,2089,2053,1
1779865099.630938,2134,2029,1
1779865099.632869,2086,2070,1
1779865099.634878,2049,2033,1
1779865099.637856,2103,1886,1
1779865099.6386418,2056,1965,1
1779865099.641398,1949,2221,1
1779865099.641633,1965,2146,1
1779865099.6417532,2084,2033,1
1779865099.649142,2139,1961,1
1779865099.650267,2051,1963,1
1779865099.65217,2008,2174,1
1779865099.653971,2107,2046,1
1779865099.656246,2073,2066,1
1779865099.659382,2009,2156,1
1779865099.65958,2016,2203,1
1779865099.660033,2045,2028,1
1779865099.660359,2088,2040,1
1779865099.6633222,2043,1994,1
1779865099.663481,1982,2023,1
1779865099.6661701,2082,2048,1
1779865099.667596,2048,1971,1
1779865099.6704051,2038,2092,1
1779865099.6746938,1986,2242,1
1779865099.675412,2054,2079,1
1779865099.676524,2100,2098,1
1779865099.678881,2111,2015,1
1779865099.6812139,2049,1964,1
1779865099.682751,2011,1962,1
1779865099.685767,2077,1776,1
1779865099.6863391,2059,2044,1
1779865099.6893702,2016,2179,1
1779865099.689527,2016,2164,1
1779865099.6923661,1997,1960,1
1779865099.696987,2065,1986,1
1779865099.6985621,2062,1975,1
1779865099.700325,2036,2013,1
1779865099.700702,2060,1929,1
1779865099.703107,2048,1994,1
1779865099.707493,2032,2128,1
1779865099.708089,2017,2276,1
1779865099.708797,2080,2064,1
1779865099.711584,2081,1925,1
1779865099.711715,2047,1902,1
1779865099.714397,2074,2113,1
1779865099.715769,2028,2070,1
1779865099.725429,2056,2020,1
1779865099.7259352,1987,2065,1
1779865099.729434,1988,2197,1
1779865099.729779,2097,2059,1
1779865099.7328799,2119,1990,1
1779865099.733189,2092,1937,1
1779865099.7335072,2015,2102,1
1779865099.733828,2047,2100,1
1779865099.734219,2085,1938,1
1779865099.737483,2104,1962,1
1779865099.7376168,1997,2145,1
1779865099.740272,2059,2138,1
1779865099.746994,2116,2018,1
1779865099.7478342,2132,1921,1
1779865099.750165,2084,1912,1
1779865099.7530618,2057,1954,1
1779865099.754883,2096,1940,1
1779865099.75838,2091,1950,1
1779865099.758723,2091,2103,1
1779865099.759136,2020,2216,1
1779865099.759831,2036,2066,1
1779865099.7601779,2089,1950,1
1779865099.7632508,2121,1943,1
1779865099.763733,2075,2031,1
1779865099.76653,2089,2067,1
1779865099.767926,2021,1992,1
1779865099.7711391,1962,2083,1
1779865099.776799,1981,2182,1
1779865099.778281,2032,2154,1
1779865099.7808971,2008,1951,1
1779865099.781493,2131,1979,1
1779865099.7843368,2127,2169,1
1779865099.789614,2184,2084,1
1779865099.7902458,2149,1948,1
1779865099.790703,2066,1987,1
1779865099.7933922,2082,2069,1
1779865099.794359,2127,2128,1
1779865099.7947252,2056,1966,1
1779865099.794863,2003,1883,1
1779865099.796264,1959,1930,1
1779865099.8022149,1955,1978,1
1779865099.803668,2063,1888,1
1779865099.806936,2060,1922,1
1779865099.808948,2030,2059,1
1779865099.8102772,2142,2116,1
1779865099.815308,2099,2031,1
1779865099.815831,2202,1881,1
1779865099.816166,2179,1818,1
1779865099.816523,2049,2020,1
1779865099.819523,2055,1973,1
1779865099.81967,2019,1979,1
1779865099.819781,2008,2127,1
1779865099.822691,1982,2245,1
1779865099.8241081,2105,2116,1
1779865099.825546,2012,1962,1
1779865099.8318322,2289,1863,1
1779865099.832611,2545,1899,1
1779865099.8333619,2251,2118,1
1779865099.835989,1853,2071,1
1779865099.838096,1837,2016,1
1779865099.841067,1954,2050,1
1779865099.844958,2021,2259,1
1779865099.8455749,1931,2043,1
1779865099.845929,1888,2014,1
1779865099.8463418,1893,2026,1
1779865099.8494668,1957,2111,1
1779865099.849974,2078,2013,1
1779865099.8529248,2242,1974,1
1779865099.858598,2303,2118,1
1779865099.859236,2031,2361,1
1779865099.862436,2085,2139,1
1779865099.8645382,2092,2040,1
1779865099.86529,2168,2093,1
1779865099.866163,2122,2142,1
1779865099.871336,2099,2110,1
1779865099.87214,2000,2085,1
1779865099.872545,1939,2161,1
1779865099.872947,2012,2278,1
1779865099.876045,2095,2170,1
1779865099.87617,2092,2093,1
1779865099.877614,2087,2078,1
1779865099.8802729,2046,2115,1
1779865099.8814452,2031,2179,1
1779865099.889712,2148,2001,1
1779865099.8926442,2099,2067,1
1779865099.892988,2087,2181,1
1779865099.895099,2049,2287,1
1779865099.895947,2052,2088,1
1779865099.8977091,2055,2050,1
1779865099.901269,2083,2093,1
1779865099.901834,2067,2142,1
1779865099.902563,2097,2053,1
1779865099.903032,2119,2014,1
1779865099.9060411,2092,2193,1
1779865099.906432,2095,2312,1
1779865099.907773,2095,2115,1
1779865099.9140952,2050,1996,1
1779865099.914748,2051,1899,1
1779865099.916033,2083,2019,1
1779865099.9183319,2096,1997,1
1779865099.9188192,2143,1901,1
1779865099.922911,2074,2019,1
1779865099.923191,1978,2239,1
1779865099.926383,2049,2165,1
1779865099.926591,2147,2052,1
1779865099.92986,2111,2060,1
1779865099.930231,2052,2128,1
1779865099.931572,2107,2057,1
1779865099.934258,2096,1886,1
1779865099.935724,2088,1983,1
1779865099.942322,2012,2074,1
1779865099.943599,1995,2086,1
1779865099.94611,2062,1883,1
1779865099.946444,2078,1794,1
1779865099.946635,2109,1800,1
1779865099.950772,2043,1870,1
1779865099.953931,1975,1796,1
1779865099.954448,2018,1803,1
1779865099.954711,2137,1987,1
1779865099.957956,2207,2125,1
1779865099.958014,2162,2033,1
1779865099.9594219,2044,1921,1
1779865099.9657788,1955,1839,1
1779865099.96665,2019,1982,1
1779865099.967413,2129,2045,1
1779865099.969921,2021,1928,1
1779865099.970165,1953,1952,1
1779865099.9725308,2001,2040,1
1779865099.974926,2043,2057,1
1779865099.978505,2151,1990,1
1779865099.978849,2130,1870,1
1779865099.981503,2169,2030,1
1779865099.98243,2234,2250,1
1779865099.983847,2012,2194,1
1779865099.987435,1772,2257,1
1779865099.9875178,1799,2292,1
1779865100.018794,2132,2253,1
1779865100.019212,2270,2028,1
1779865100.0192928,2231,2144,1
1779865100.03828,1864,2147,1
1779865100.038481,2050,1999,1
1779865100.03857,2285,1947,1
1779865100.0386748,2063,1949,1
1779865100.0389519,2064,2081,1
1779865100.039026,2023,2279,1
1779865100.0390909,2002,2396,1
1779865100.039166,2210,2460,1
1779865100.039237,1938,2326,1
1779865100.039309,1798,2403,1
1779865100.039372,2090,2327,1
1779865100.03944,2282,2185,1
1779865100.039501,2088,2342,1
1779865100.039563,1955,2608,1
1779865100.039624,2072,2223,1
1779865100.039685,2106,2175,1
1779865100.039745,2218,2308,1
1779865100.0398028,2297,2132,1
1779865100.039861,2131,2144,1
1779865100.0399182,1833,2105,1
1779865100.0403352,2004,2171,1
1779865100.040494,2335,2250,1
1779865100.040622,2059,2335,1
1779865100.046593,2079,2046,1
1779865100.0554008,2083,1770,1
1779865100.0638232,2010,1724,1
1779865100.064587,2015,1919,1
1779865100.0677278,2100,2305,1
1779865100.067859,2161,2404,1
1779865100.06792,2275,2710,1
1779865100.0679748,2084,2651,1
1779865100.0680268,2139,2221,1
1779865100.0680802,2223,2220,1
1779865100.0681322,1836,2226,1
1779865100.068183,2245,2309,1
1779865100.068264,1822,2063,1
1779865100.0683148,1993,1858,1
1779865100.069668,2080,2070,1
1779865100.0757718,2014,2287,1
1779865100.078495,1965,2236,1
1779865100.080489,2054,2151,1
1779865100.081057,2023,2163,1
1779865100.085299,2158,2375,1
1779865100.085592,2217,2502,1
1779865100.089227,1811,2142,1
1779865100.089611,2222,2141,1
1779865100.0920708,2470,2311,1
1779865100.092931,2363,2443,1
1779865100.093066,2223,2229,1
1779865100.094395,2174,2112,1
1779865100.095814,2285,2206,1
1779865100.097433,2302,2608,1
1779865100.1068501,2525,2438,1
1779865100.109628,2343,2272,1
1779865100.11008,2270,2534,1
1779865100.110514,2090,2648,1
1779865100.112732,2083,2547,1
1779865100.112983,2076,2633,1
1779865100.1155899,2288,2368,1
1779865100.1160069,2892,2292,1
1779865100.119762,2539,2415,1
1779865100.120484,1989,2457,1
1779865100.120972,2073,2337,1
1779865100.1239371,2189,2420,1
1779865100.1241002,2200,2377,1
1779865100.125345,2398,2294,1
1779865100.1332,2258,2243,1
1779865100.1340082,1768,2087,1
1779865100.138274,2267,2505,1
1779865100.140758,2160,2172,1
1779865100.144275,2453,2227,1
1779865100.144932,2401,2415,1
1779865100.14563,2783,2420,1
1779865100.146158,2264,2382,1
1779865100.1489348,2327,2430,1
1779865100.149305,2387,2424,1
1779865100.149396,2672,2651,1
1779865100.149537,2594,2398,1
1779865100.152294,2414,2321,1
1779865100.153877,2300,2525,1
1779865100.162275,2092,2624,1
1779865100.16538,2380,2431,1
1779865100.165895,2204,2304,1
1779865100.166146,2406,2240,1
1779865100.169009,2550,2295,1
1779865100.170799,2596,2208,1
1779865100.174592,2579,2202,1
1779865100.1748421,2408,2277,1
1779865100.175234,2351,2351,1
1779865100.175549,2368,2231,1
1779865100.17597,2543,2099,1
1779865100.179179,2492,2049,1
1779865100.179328,2330,2016,1
1779865100.187571,2240,2150,1
1779865100.188422,2363,2097,1
1779865100.190968,2312,2085,1
1779865100.1935098,2126,2145,1
1779865100.198571,2216,2589,1
1779865100.199305,2386,2466,1
1779865100.1996632,2285,2283,1
1779865100.200011,2337,2221,1
1779865100.200435,2306,2380,1
1779865100.2009118,2216,2322,1
1779865100.2040389,2232,2284,1
1779865100.204201,2200,2346,1
1779865100.205604,2214,2457,1
1779865100.2081642,2206,2229,1
1779865100.209685,2175,2086,1
1779865100.233567,2130,2073,1
1779865100.2337122,2046,2202,1
1779865100.233857,2020,2072,1
1779865100.2339342,2174,1954,1
1779865100.234019,2099,2295,1
1779865100.234102,1954,2220,1
1779865100.234296,2008,2190,1
1779865100.2343721,2127,2056,1
1779865100.234441,2022,2141,1
1779865100.2345548,2039,2122,1
1779865100.234626,1923,2112,1
1779865100.234762,1926,2080,1
1779865100.236505,1800,2102,1
1779865100.2421901,1952,2134,1
1779865100.243695,1879,2214,1
1779865100.244521,1895,1974,1
1779865100.2465432,1970,1982,1
1779865100.2469308,1963,1953,1
1779865100.249974,2047,2079,1
1779865100.2517812,2006,1895,1
1779865100.2555032,1982,1744,1
1779865100.256137,1914,2039,1
1779865100.256594,1916,2554,1
1779865100.2598898,1993,2127,1
1779865100.260322,2259,1776,1
1779865100.2617118,2287,2065,1
1779865100.264521,2119,2310,1
1779865100.2659478,1562,2414,1
1779865100.272321,1460,2143,1
1779865100.273601,1587,2228,1
1779865100.276213,1744,2319,1
1779865100.276483,1789,2291,1
1779865100.2768729,1854,2013,1
1779865100.278982,1902,2065,1
1779865100.281162,1996,2075,1
1779865100.284767,2174,2309,1
1779865100.2850502,2279,2050,1
1779865100.2884889,2665,1842,1
1779865100.288597,3068,2000,1
1779865100.289939,2287,2627,1
1779865100.2957351,1298,2657,1
1779865100.296354,1298,2259,1
1779865100.297566,1834,2019,1
1779865100.29819,1845,2330,1
1779865100.300204,1722,2253,1
1779865100.3042629,1718,2276,1
1779865100.3044732,2243,2370,1
1779865100.307868,3097,2242,1
1779865100.3081212,2722,2201,1
1779865100.31123,2627,2094,1
1779865100.3113348,3181,1923,1
1779865100.313941,3354,1964,1
1779865100.315274,1355,2563,1
1779865100.324451,243,2272,1
1779865100.326596,494,2032,1
1779865100.326837,1013,2246,1
1779865100.328851,1161,2293,1
1779865100.329539,1311,2194,1
1779865100.330963,1630,1964,1
1779865100.3313,1842,1966,1
1779865100.3345652,2201,2034,1
1779865100.334763,2362,2101,1
1779865100.337331,2474,2218,1
1779865100.337499,2479,2226,1
1779865100.3403058,1975,2392,1
1779865100.346334,1976,2213,1
1779865100.346943,2006,2081,1
1779865100.347575,1967,2087,1
1779865100.349638,1970,2164,1
1779865100.3498821,2131,2013,1
1779865100.352391,2452,1834,1
1779865100.35417,2386,1888,1
1779865100.3577511,2196,2067,1
1779865100.35815,2062,2242,1
1779865100.361241,1821,2153,1
1779865100.361296,1973,2033,1
1779865100.363877,2022,2138,1
1779865100.365283,2508,2231,1
1779865100.372362,2863,2069,1
1779865100.3733609,2076,2446,1
1779865100.3747141,1325,2494,1
1779865100.376887,1557,2206,1
1779865100.378908,1856,2034,1
1779865100.3797219,1966,2110,1
1779865100.381226,1877,2121,1
1779865100.381588,1775,2355,1
1779865100.384949,1907,2011,1
1779865100.3882089,1876,2231,1
1779865100.388315,2272,2130,1
1779865100.389636,2110,2358,1
1779865100.3951979,1946,2070,1
1779865100.3958158,2046,2032,1
1779865100.3962739,2071,1935,1
1779865100.3984058,1856,2139,1
1779865100.400467,1756,2151,1
1779865100.404615,1950,2205,1
1779865100.4047842,2158,2540,1
1779865100.407319,2120,2463,1
1779865100.407556,1658,2373,1
1779865100.410142,1833,2527,1
1779865100.411454,1817,2376,1
1779865100.417216,2319,2264,1
1779865100.418051,2194,2352,1
1779865100.4182029,1676,2256,1
1779865100.420408,1571,2282,1
1779865100.422821,1824,2154,1
1779865100.427008,2158,2112,1
1779865100.4272552,2204,2150,1
1779865100.427746,2030,2059,1
1779865100.430381,2001,2084,1
1779865100.4317,2007,2384,1
1779865100.434303,1886,2075,1
1779865100.435827,1818,2085,1
1779865100.439869,2395,2160,1
1779865100.4404101,2249,2370,1
1779865100.4432828,2155,2258,1
1779865100.445028,2193,2112,1
1779865100.4469938,1935,2102,1
1779865100.450068,1704,2179,1
1779865100.4503639,1677,2063,1
1779865100.452817,1723,2047,1
1779865100.454143,1655,2146,1
1779865100.455464,2040,2011,1
1779865100.45798,1948,1933,1
1779865100.463537,2038,1899,1
1779865100.464562,1780,1812,1
1779865100.466536,1730,1997,1
1779865100.4667919,1971,2031,1
1779865100.469017,2054,1883,1
1779865100.47042,1999,1940,1
1779865100.473443,1984,2090,1
1779865100.4737742,2056,2012,1
1779865100.476328,2089,1848,1
1779865100.477653,2007,1819,1
1779865100.48024,2101,1726,1
1779865100.48155,2085,1878,1
1779865100.4868941,2215,1695,1
1779865100.489408,2284,1984,1
1779865100.489701,2059,1923,1
1779865100.491792,1784,2200,1
1779865100.493279,2125,1891,1
1779865100.496246,2691,1766,1
1779865100.496578,1936,1966,1
1779865100.499124,1540,1938,1
1779865100.499399,1749,1912,1
1779865100.502027,2004,1718,1
1779865100.503346,1981,1703,1
1779865100.509193,1791,1656,1
1779865100.511209,1983,1528,1
1779865100.512933,1939,1558,1
1779865100.513227,1970,1489,1
1779865100.5144541,2128,1641,1
1779865100.5167942,2247,1706,1
1779865100.519799,2268,1619,1
1779865100.520021,2079,1767,1
1779865100.52286,1937,2058,1
1779865100.524242,1909,1960,1
1779865100.525572,1899,1900,1
1779865100.528459,1952,1866,1
1779865100.5327291,2066,1920,1
1779865100.5333152,2175,1902,1
1779865100.5341818,2390,1862,1
1779865100.5359528,2272,1870,1
1779865100.542347,1990,2028,1
1779865100.542589,1951,2138,1
1779865100.542798,1723,2007,1
1779865100.5457878,1762,1925,1
1779865100.545951,2028,2027,1
1779865100.547316,1939,2087,1
1779865100.549956,1900,1943,1
1779865100.551287,1922,1946,1
1779865100.555975,1947,2083,1
1779865100.5569432,1991,2199,1
1779865100.5595388,2169,1986,1
1779865100.559673,2194,1962,1
1779865100.563182,2206,1959,1
1779865100.566425,2539,1923,1
1779865100.5667331,3117,2020,1
1779865100.568931,1574,2113,1
1779865100.570276,1117,2000,1
1779865100.571615,1597,2027,1
1779865100.574112,1912,2154,1
1779865100.579745,1966,2023,1
1779865100.579909,1863,1996,1
1779865100.580374,1791,1899,1
1779865100.583075,1893,2053,1
1779865100.5843809,1967,2099,1
1779865100.5864289,2056,2106,1
1779865100.589161,2144,2068,1
1779865100.5893672,2198,2057,1
1779865100.591823,2198,2002,1
1779865100.593206,2105,1967,1
1779865100.595785,1977,1958,1
1779865100.600246,1972,1984,1
1779865100.6007848,2093,2027,1
1779865100.6035478,2128,2047,1
1779865100.603818,1936,1977,1
1779865100.6056802,1940,2106,1
1779865100.6095638,2110,2076,1
1779865100.6097548,2189,2073,1
1779865100.61209,2193,2048,1
1779865100.61341,2399,1904,1
1779865100.615983,1818,2309,1
1779865100.6216362,1606,2112,1
1779865100.622538,1880,2246,1
1779865100.62397,2057,2408,1
1779865100.6242292,2006,2494,1
1779865100.625752,2034,2355,1
1779865100.630034,1903,2254,1
1779865100.630309,1826,2215,1
1779865100.63276,1835,2118,1
1779865100.634123,1992,2216,1
1779865100.635432,2274,1946,1
1779865100.6417952,2288,2175,1
1779865100.6429691,2035,2226,1
1779865100.644471,2118,1963,1
1779865100.6447082,2201,1894,1
1779865100.646534,1984,2131,1
1779865100.650472,1795,2046,1
1779865100.6508522,1828,1916,1
1779865100.653076,2152,1859,1
1779865100.654519,2073,2023,1
1779865100.655829,2177,1968,1
1779865100.6596422,2212,2011,1
1779865100.6621041,1748,1914,1
1779865100.662982,1739,1867,1
1779865100.6651452,1898,1774,1
1779865100.666681,2055,1853,1
1779865100.668458,2023,1949,1
1779865100.671472,1984,1941,1
1779865100.671854,1929,1957,1
1779865100.674071,1882,2094,1
1779865100.6753879,2009,1787,1
1779865100.6780028,2088,1834,1
1779865100.679241,2110,1815,1
1779865100.6826398,2029,1995,1
1779865100.685428,2094,1930,1
1779865100.6857018,2052,1751,1
1779865100.688565,2062,1965,1
1779865100.691694,2037,2015,1
1779865100.691935,2061,2026,1
1779865100.694172,2055,1930,1
1779865100.69551,2042,1933,1
1779865100.698096,2113,2118,1
1779865100.699479,2080,2070,1
1779865100.703718,2073,1956,1
1779865100.704541,1956,1850,1
1779865100.7059999,2036,1900,1
1779865100.7079449,2181,1975,1
1779865100.711885,2281,1825,1
1779865100.712147,2041,1944,1
1779865100.714496,1989,2079,1
1779865100.7158332,1994,2018,1
1779865100.717231,1918,1926,1
1779865100.71982,1859,2000,1
1779865100.724523,1845,2158,1
1779865100.724962,1865,2133,1
1779865100.7264,1992,2062,1
1779865100.728221,2058,2011,1
1779865100.7322161,2023,1912,1
1779865100.732349,2243,2039,1
1779865100.734807,2161,2040,1
1779865100.736129,2005,2052,1
1779865100.737437,1964,2181,1
1779865100.740036,1957,2244,1
1779865100.745,2060,2184,1
1779865100.7454772,2172,2199,1
1779865100.746907,2309,2214,1
1779865100.7499352,1990,2252,1
1779865100.752823,1840,2132,1
1779865100.7532349,1931,2135,1
1779865100.753501,2078,2285,1
1779865100.755811,2016,2411,1
1779865100.758395,1947,2235,1
1779865100.759704,1966,2177,1
1779865100.7653189,2039,2191,1
1779865100.767456,2029,2361,1
1779865100.767654,2038,2557,1
1779865100.7678878,2065,2429,1
1779865100.76977,2061,2462,1
1779865100.773791,1985,2488,1
1779865100.774056,1975,2517,1
1779865100.776374,2053,2408,1
1779865100.7776792,2026,2294,1
1779865100.78026,2009,2238,1
1779865100.785072,2020,2248,1
1779865100.786336,2117,2193,1
1779865100.788186,2174,2120,1
1779865100.788407,2136,2158,1
1779865100.791425,2085,2266,1
1779865100.794268,2173,2185,1
1779865100.794477,2098,2246,1
1779865100.7967172,2102,2136,1
1779865100.798048,2305,2174,1
1779865100.799356,2174,1852,1
1779865100.801941,1890,1736,1
1779865100.805356,1752,1830,1
1779865100.806245,1874,1904,1
1779865100.8084118,1898,1813,1
1779865100.8113909,1845,1753,1
1779865100.814361,1863,1698,1
1779865100.8146088,1923,1741,1
1779865100.816926,1979,1864,1
1779865100.818401,2109,1813,1
1779865100.8197088,2090,1865,1
1779865100.822392,2090,1986,1
1779865100.8262799,2130,2008,1
1779865100.827133,2193,1894,1
1779865100.8289988,2110,1793,1
1779865100.8292532,2067,1867,1
1779865100.83217,2155,1893,1
1779865100.8350961,2358,1973,1
1779865100.8353121,2230,1932,1
1779865100.83762,1985,2119,1
1779865100.840199,1893,2217,1
1779865100.841509,1869,1871,1
1779865100.846411,1963,2103,1
1779865100.8471942,1911,2053,1
1779865100.8476942,1807,2032,1
1779865100.849338,1856,2037,1
1779865100.852134,1960,2011,1
1779865100.8547971,2000,2016,1
1779865100.8571808,2062,2188,1
1779865100.8572538,2148,2141,1
1779865100.859814,2193,2037,1
1779865100.861116,2174,1965,1
1779865100.866552,2154,2094,1
1779865100.8676538,2093,2174,1
1779865100.868159,2001,2048,1
1779865100.871121,2086,2115,1
1779865100.871265,2011,2145,1
1779865100.874872,2042,2240,1
1779865100.877126,2106,2101,1
1779865100.877204,2093,2093,1
1779865100.8797739,2064,2069,1
1779865100.8811269,2089,2243,1
1779865100.8869178,2192,2204,1
1779865100.8881059,1982,2169,1
1779865100.88977,1912,2218,1
1779865100.8899531,1944,2334,1
1779865100.891687,2078,2157,1
1779865100.895315,2056,2132,1
1779865100.895575,2052,2093,1
1779865100.8976939,2094,2159,1
1779865100.90028,2258,2020,1
1779865100.9015942,2108,1985,1
1779865100.907449,1972,2074,1
1779865100.908225,1970,2225,1
1779865100.908643,2044,2159,1
1779865100.910441,2044,2070,1
1779865100.912173,2053,2009,1
1779865100.9159,1976,1935,1
1779865100.916071,1907,1972,1
1779865100.918141,2036,1873,1
1779865100.919629,2042,1903,1
1779865100.922194,2027,2031,1
1779865100.9234931,2045,2097,1
1779865100.9283252,2152,1938,1
1779865100.928782,2109,1987,1
1779865100.930389,2162,1951,1
1779865100.932231,2004,2106,1
1779865100.9359748,2043,1971,1
1779865100.936249,1975,2033,1
1779865100.9382882,2015,2163,1
1779865100.9396029,2056,2123,1
1779865100.942173,2045,2092,1
1779865100.9434729,2075,1998,1
1779865100.947936,2069,1925,1
1779865100.948763,2024,2089,1
1779865100.9506261,2050,2039,1
1779865100.9523609,1986,1961,1
1779865100.9559,2037,2065,1
1779865100.9561212,2084,2112,1
1779865100.9582038,2064,2062,1
1779865100.959518,2064,2023,1
1779865100.9620779,2055,2025,1
1779865100.963376,2089,2115,1
1779865100.968906,2043,2129,1
1779865100.970012,2024,2029,1
1779865100.971313,1996,2033,1
1779865100.9714859,2022,2105,1
1779865100.974245,2044,2215,1
1779865100.9769468,2099,2159,1
1779865100.9772658,2075,2148,1
1779865100.9801621,2059,2091,1
1779865100.981508,2093,2121,1
1779865100.9840798,2160,2185,1
1779865100.989401,2162,2094,1
1779865100.990232,2266,2043,1
1779865100.991856,2019,2202,1
1779865100.9921331,1987,2204,1
1779865100.99397,2062,2017,1
1779865100.997683,1969,2113,1
1779865100.997928,1831,2178,1
1779865101.000018,1875,2144,1
1779865101.001336,1985,2093,1
1779865101.003911,1940,2098,1
1779865101.0052102,1943,2236,1
1779865101.009783,2020,2167,1
1779865101.010568,2097,1981,1
1779865101.013633,2117,1922,1
1779865101.014724,2104,1912,1
1779865101.0172958,2133,1925,1
1779865101.017484,2153,1810,1
1779865101.019263,2022,1905,1
1779865101.0218399,1984,2022,1
1779865101.023152,1997,2065,1
1779865101.025711,2098,1871,1
1779865101.0294259,2124,1759,1
1779865101.031023,2107,1802,1
1779865101.0323179,2045,1873,1
1779865101.0350919,2054,1829,1
1779865101.035271,2035,1848,1
1779865101.038121,1982,1965,1
1779865101.0402172,1998,2083,1
1779865101.041774,2109,2113,1
1779865101.043127,2182,1898,1
1779865101.045706,2099,1885,1
1779865101.050266,2072,2126,1
1779865101.0507772,2030,2139,1
1779865101.0531251,1978,2063,1
1779865101.05333,1890,2071,1
1779865101.058517,1901,2161,1
1779865101.058702,2110,2221,1
1779865101.06085,2083,2118,1
1779865101.0622542,2092,1983,1
1779865101.063565,1986,1966,1
1779865101.0659819,2059,2175,1
1779865101.070722,2120,2086,1
1779865101.07117,1995,2129,1
1779865101.071981,1986,2190,1
1779865101.073364,1944,2396,1
1779865101.076297,2006,2290,1
1779865101.078885,1962,2269,1
1779865101.081249,2107,2270,1
1779865101.081291,2118,2231,1
1779865101.0838609,2046,2190,1
1779865101.085162,2125,2211,1
1779865101.0912452,1921,2198,1
1779865101.091659,1871,2235,1
1779865101.0923781,2086,2145,1
1779865101.094657,2122,2175,1
1779865101.096454,2118,2160,1
1779865101.099079,2006,2214,1
1779865101.0994089,2017,2138,1
1779865101.10154,2096,1950,1
1779865101.1041138,2100,2023,1
1779865101.105417,2062,2302,1
1779865101.110969,2054,2099,1
1779865101.111458,2096,1931,1
1779865101.112431,2050,1972,1
1779865101.114797,2037,2117,1
1779865101.119005,2032,2097,1
1779865101.119172,1981,1944,1
1779865101.119457,2015,2090,1
1779865101.121727,1969,2187,1
1779865101.1230972,1967,2208,1
1779865101.1256719,2053,2044,1
1779865101.127098,2054,2072,1
1779865101.13137,2063,2035,1
1779865101.131569,2059,2235,1
1779865101.1341171,2072,1998,1
1779865101.135836,2080,2094,1
1779865101.1396558,2029,2183,1
1779865101.139888,2071,2263,1
1779865101.141807,2146,2057,1
1779865101.1432462,2052,2056,1
1779865101.145824,1978,2069,1
1779865101.147125,1961,2137,1
1779865101.1519501,2070,2122,1
1779865101.15303,2102,2158,1
1779865101.153205,2164,2297,1
1779865101.1576169,2058,2273,1
1779865101.15776,2023,2176,1
1779865101.160199,1914,2062,1
1779865101.162466,1950,2109,1
1779865101.1637719,2046,1983,1
1779865101.165072,1940,2030,1
1779865101.167646,1999,1877,1
1779865101.172574,1981,1947,1
1779865101.1734452,2037,2006,1
1779865101.173852,2093,2262,1
1779865101.175298,2201,2159,1
1779865101.180293,2100,1903,1
1779865101.18051,2132,2047,1
1779865101.182661,2000,2082,1
1779865101.1839669,2038,1935,1
1779865101.185266,2112,2044,1
1779865101.18784,1959,2058,1
1779865101.189322,1815,2100,1
1779865101.193301,2017,2055,1
1779865101.194101,2132,1858,1
1779865101.195585,2080,1864,1
1779865101.198294,1925,1969,1
1779865101.200737,2026,1990,1
1779865101.203032,2081,1763,1
1779865101.2031,1986,1958,1
1779865101.2056699,2062,2175,1
1779865101.208242,2111,2157,1
1779865101.209541,2081,2040,1
1779865101.212967,2043,1881,1
1779865101.213382,2038,1882,1
1779865101.2156181,1958,2045,1
1779865101.220875,2146,2011,1
1779865101.2209952,2121,1852,1
1779865101.221178,2018,1813,1
1779865101.2241511,1882,1984,1
1779865101.22551,2001,2126,1
1779865101.228086,2097,1917,1
1779865101.229387,2123,1757,1
1779865101.234292,2133,1743,1
1779865101.235063,2047,1655,1
1779865101.236592,2228,1635,1
1779865101.2391748,2047,1750,1
1779865101.239433,1989,1605,1
1779865101.2419672,1962,1502,1
1779865101.244294,1980,1674,1
1779865101.2456,2036,1861,1
1779865101.248159,1871,1901,1
1779865101.2494578,1957,1874,1
1779865101.253912,2228,2073,1
1779865101.2546391,2039,2173,1
1779865101.256465,1998,2208,1
1779865101.258333,2110,2092,1
1779865101.261914,2078,1906,1
1779865101.2623968,2179,2020,1
1779865101.26443,2099,1873,1
1779865101.265745,2120,1908,1
1779865101.267047,2077,1766,1
1779865101.26961,2116,1876,1
1779865101.273719,1920,1700,1
1779865101.2756102,1795,1915,1
1779865101.277086,2074,1970,1
1779865101.277233,2299,2152,1
1779865101.280163,2111,1865,1
1779865101.282685,1848,1689,1
1779865101.2849898,2244,1984,1
1779865101.285032,2033,1953,1
1779865101.2876039,1900,2144,1
1779865101.2890408,2029,2159,1
1779865101.295619,2132,2043,1
1779865101.297224,2125,1972,1
1779865101.297431,2043,1832,1
1779865101.297639,2045,1996,1
1779865101.299276,1999,2003,1
1779865101.302848,2007,1885,1
1779865101.3030798,2104,2033,1
1779865101.30607,2074,2108,1
1779865101.30737,1992,2135,1
1779865101.309935,2110,2065,1
1779865101.311232,2042,2176,1
1779865101.315514,2033,2197,1
1779865101.3166862,1987,2317,1
1779865101.319645,2055,2274,1
1779865101.320748,2083,2308,1
1779865101.323305,1987,2352,1
1779865101.323533,1775,2392,1
1779865101.326028,2187,2440,1
1779865101.327334,2057,2249,1
1779865101.329901,2028,2118,1
1779865101.331203,2081,2262,1
1779865101.335447,2147,2246,1
1779865101.335875,2150,2104,1
1779865101.33922,2064,2052,1
1779865101.339627,2053,2059,1
1779865101.3432581,2056,1925,1
1779865101.343454,2071,2032,1
1779865101.345406,1942,1818,1
1779865101.347988,2105,1825,1
1779865101.349289,2096,1977,1
1779865101.351854,2034,1871,1
1779865101.356162,1963,1918,1
1779865101.3581078,1907,2096,1
1779865101.3591402,2003,2225,1
1779865101.3595798,2072,2059,1
1779865101.363171,2078,1921,1
1779865101.363605,2102,1903,1
1779865101.3650591,2073,1945,1
1779865101.3676329,2073,1763,1
1779865101.370136,1972,1725,1
1779865101.371437,1973,1883,1
1779865101.3760362,2040,1969,1
1779865101.3767838,2041,1886,1
1779865101.378583,2123,1813,1
1779865101.381187,2111,1860,1
1779865101.3835351,2008,1921,1
1779865101.3837,2068,1891,1
1779865101.385536,2116,1942,1
1779865101.388114,2045,2012,1
1779865101.389419,2034,2196,1
1779865101.391975,2101,2121,1
1779865101.393565,2082,1996,1
1779865101.396597,2064,2032,1
1779865101.399033,2013,2073,1
1779865101.399323,2016,2195,1
1779865101.4039721,2035,2067,1
1779865101.404091,2077,2086,1
1779865101.406199,2123,2059,1
1779865101.40751,2055,2031,1
1779865101.409837,2093,1822,1
1779865101.411136,2116,1655,1
1779865101.413694,2030,1650,1
1779865101.4170299,2110,1748,1
1779865101.4177542,2079,1508,1
1779865101.41983,2037,1723,1
1779865101.422427,2033,1980,1
1779865101.424701,2032,2087,1
1779865101.426898,1997,1921,1
1779865101.426962,1993,1950,1
1779865101.429524,2082,1915,1
1779865101.432083,2041,1999,1
1779865101.433378,2085,1782,1
1779865101.437807,2099,1640,1
1779865101.437917,2001,1794,1
1779865101.440353,1962,1927,1
1779865101.4428642,2066,1855,1
1779865101.445111,2156,1754,1
1779865101.4452941,2205,1733,1
1779865101.447305,2077,1795,1
1779865101.449877,2057,1889,1
1779865101.451177,2079,1811,1
1779865101.4537358,2058,2038,1
1779865101.455092,2025,2180,1
1779865101.458415,1946,2096,1
1779865101.460463,2036,1993,1
1779865101.462189,1988,1958,1
1779865101.4653702,2046,1987,1
1779865101.465704,2060,1975,1
1779865101.467225,2160,1894,1
1779865101.469787,2115,2088,1
1779865101.4710982,2000,2208,1
1779865101.473658,1979,2275,1
1779865101.4749901,2083,2062,1
1779865101.4784179,2107,2018,1
1779865101.4807858,2130,2077,1
1779865101.4834518,2002,2133,1
1779865101.485903,2049,2050,1
1779865101.4862552,2074,1975,1
1779865101.488158,2022,2095,1
1779865101.4894762,2026,2209,1
1779865101.492052,2073,2171,1
1779865101.493353,2038,2054,1
1779865101.4989362,2049,2082,1
1779865101.499986,2109,2077,1
1779865101.50036,2064,2075,1
1779865101.502462,2060,1982,1
1779865101.504098,2046,2053,1
1779865101.506314,2008,2165,1
1779865101.508388,2026,2215,1
1779865101.509701,2110,2005,1
1779865101.511008,2092,1943,1
1779865101.513569,2078,1995,1
1779865101.514954,2014,2173,1
1779865101.520559,2044,2005,1
1779865101.522214,2016,2077,1
1779865101.522329,1971,2241,1
1779865101.5239449,1970,2275,1
1779865101.527359,2027,2030,1
1779865101.527562,2064,1979,1
1779865101.529568,2071,2013,1
1779865101.532154,2027,2115,1
1779865101.533451,2060,2079,1
1779865101.536012,2017,1983,1
1779865101.540048,1995,2066,1
1779865101.5404491,1978,2187,1
1779865101.542645,2088,2121,1
1779865101.5442638,2099,2056,1
1779865101.5474,2082,2109,1
1779865101.547602,2073,2120,1
1779865101.549587,2070,2112,1
1779865101.5519319,2135,1933,1
1779865101.55323,2046,1956,1
1779865101.555786,1987,2166,1
1779865101.5570822,2085,2260,1
1779865101.561216,2077,1953,1
1779865101.561982,2060,1910,1
1779865101.564746,2022,1979,1
1779865101.567853,1969,2021,1
1779865101.5680299,2108,1932,1
1779865101.569978,2051,2012,1
1779865101.5712798,1992,2163,1
1779865101.57384,2004,2312,1
1779865101.575139,2116,2118,1
1779865101.577753,2081,1966,1
1779865101.5808032,2043,2024,1
1779865101.5833569,2068,2076,1
1779865101.5882602,2077,2071,1
1779865101.5884092,2060,2006,1
1779865101.5885792,2025,2087,1
1779865101.590671,1992,2235,1
1779865101.59198,2034,2182,1
1779865101.5932832,2082,2011,1
1779865101.5958369,2083,1972,1
1779865101.5971441,2044,2066,1
1779865101.601753,2031,2092,1
1779865101.602454,2094,2010,1
1779865101.6040802,2024,2029,1
1779865101.6057339,2047,2209,1
1779865101.608781,2019,2212,1
1779865101.610784,2106,2037,1
1779865101.612088,2065,1935,1
1779865101.613389,2050,1904,1
1779865101.6159449,2041,2070,1
1779865101.617239,2106,2000,1
1779865101.622179,2021,2022,1
1779865101.6223092,2017,2148,1
1779865101.624585,1963,2258,1
1779865101.6261592,2059,2154,1
1779865101.629257,2070,2061,1
1779865101.6294541,2045,2085,1
1779865101.6316319,2030,2174,1
1779865101.632938,2070,2042,1
1779865101.635561,2113,1985,1
1779865101.6369169,2005,2077,1
1779865101.642848,1950,2092,1
1779865101.643316,2062,2076,1
1779865101.644085,2098,2045,1
1779865101.6468658,2100,1992,1
1779865101.646961,2066,2091,1
1779865101.650045,2116,2025,1
1779865101.652127,2021,1965,1
1779865101.653443,2005,2048,1
1779865101.6548412,1975,2072,1
1779865101.657414,2077,2120,1
1779865101.6597528,2132,1958,1
1779865101.662907,2090,1981,1
1779865101.663711,1992,1999,1
1779865101.6656342,2045,2121,1
1779865101.668088,2127,2054,1
1779865101.670414,2098,2082,1
1779865101.672087,2020,2189,1
1779865101.6734111,1965,2354,1
1779865101.675982,2048,2098,1
1779865101.677284,2031,2030,1
1779865101.679839,2048,2027,1
1779865101.683997,2068,2055,1
1779865101.6844108,2070,2021,1
1779865101.686076,2045,1939,1
1779865101.688638,2010,2080,1
1779865101.690826,1987,2189,1
1779865101.691106,2076,2122,1
1779865101.693939,2090,2031,1
1779865101.6952431,2118,2028,1
1779865101.6978,2093,2046,1
1779865101.699096,2032,2112,1
1779865101.705239,2085,2007,1
1779865101.705633,2065,2079,1
1779865101.705745,1965,2202,1
1779865101.7084951,1972,2200,1
1779865101.711661,2043,1982,1
1779865101.711788,2052,1883,1
1779865101.713802,2075,1936,1
1779865101.7151082,2016,2044,1
1779865101.717676,2044,1990,1
1779865101.718977,2086,1966,1
1779865101.721706,2100,2094,1
1779865101.725427,2056,2372,1
1779865101.725861,2075,2178,1
1779865101.7273972,2056,2119,1
1779865101.732,2051,2000,1
1779865101.73221,2054,2011,1
1779865101.7343612,2115,1968,1
1779865101.7356858,2091,1976,1
1779865101.7369852,1997,2236,1
1779865101.739538,1943,2179,1
1779865101.740851,2043,2068,1
1779865101.745057,2070,2032,1
1779865101.745196,2077,2065,1
1779865101.7475572,2047,2075,1
1779865101.7490518,2066,2049,1
1779865101.752034,2100,2038,1
1779865101.7541199,1999,1987,1
1779865101.755425,2043,2067,1
1779865101.757809,2131,2289,1
1779865101.759108,2175,1960,1
1779865101.7616682,2075,1919,1
1779865101.765994,2094,2117,1
1779865101.7671459,1931,2132,1
1779865101.768397,2016,2035,1
1779865101.7697659,1980,1982,1
1779865101.773129,1972,2089,1
1779865101.7734342,1970,2254,1
1779865101.7754261,2109,2202,1
1779865101.7780118,2145,2117,1
1779865101.779315,2049,1972,1
1779865101.7818828,2079,2088,1
1779865101.785923,2011,2056,1
1779865101.787043,2237,1808,1
1779865101.789094,2297,1944,1
1779865101.790858,2109,2120,1
1779865101.7920692,2071,2074,1
1779865101.794327,1963,2001,1
1779865101.796329,1934,2074,1
1779865101.7976298,1955,2023,1
1779865101.798926,1982,2123,1
1779865101.801482,2187,1875,1
1779865101.8028722,2140,2081,1
1779865101.806895,1937,2275,1
1779865101.807915,1836,2394,1
1779865101.809464,1964,2113,1
1779865101.811994,2203,1931,1
1779865101.816266,2179,1946,1
1779865101.816305,1989,2174,1
1779865101.817603,2019,2073,1
1779865101.818868,2141,2075,1
1779865101.821431,2250,2190,1
1779865101.823997,2343,2202,1
1779865101.8273668,1930,2207,1
1779865101.828296,2248,1911,1
1779865101.8303978,2040,1951,1
1779865101.8319051,1920,2203,1
1779865101.834979,1932,2169,1
1779865101.835256,1894,2087,1
1779865101.83743,1885,2092,1
1779865101.839998,1851,2225,1
1779865101.841295,1924,2239,1
1779865101.8438542,2074,2097,1
1779865101.848387,2129,1970,1
1779865101.8488479,2166,1960,1
1779865101.849223,2152,2042,1
1779865101.853301,2325,1993,1
1779865101.855535,2021,2246,1
1779865101.855647,1892,2255,1
1779865101.857625,1988,2265,1
1779865101.8589282,2192,2068,1
1779865101.861491,2307,1981,1
1779865101.862847,2163,2102,1
1779865101.865252,2056,2218,1
1779865101.868407,1957,2079,1
1779865101.870976,1889,1976,1
1779865101.872334,1947,2013,1
1779865101.875735,1940,2156,1
1779865101.875975,2059,2245,1
1779865101.8776388,2190,2203,1
1779865101.878939,2040,1899,1
1779865101.881515,2043,1841,1
1779865101.882833,2146,1869,1
1779865101.885389,2200,2169,1
1779865101.889235,2287,2326,1
1779865101.8896651,2166,2414,1
1779865101.8914828,2105,2251,1
1779865101.893152,1984,2023,1
1779865101.8963132,2190,2047,1
1779865101.898483,1927,2299,1
1779865101.8997838,2334,2186,1
1779865101.901083,2270,1853,1
1779865101.903651,2076,1974,1
1779865101.904955,2016,2235,1
1779865101.909686,1966,2273,1
1779865101.9104252,1967,2087,1
1779865101.9120908,1856,1977,1
1779865101.914716,2029,2060,1
1779865101.916908,2168,2114,1
1779865101.917069,2161,2299,1
1779865101.9199412,1926,2285,1
1779865101.921238,2273,2113,1
1779865101.923797,2010,2098,1
1779865101.9250932,2354,1793,1
1779865101.930203,2428,2146,1
1779865101.9309728,2461,2418,1
1779865101.9324548,1835,2217,1
1779865101.93415,2123,1761,1
1779865101.937305,2301,1820,1
1779865101.937527,1585,2373,1
1779865101.93953,1519,2407,1
1779865101.9408588,2113,2205,1
1779865101.9434261,2172,1778,1
1779865101.944819,1567,1924,1
1779865101.9474618,1808,2047,1
1779865101.950764,2426,2407,1
1779865101.951157,2566,1892,1
1779865101.9528809,2111,1794,1
1779865101.9574668,1990,1909,1
1779865101.957556,2683,2254,1
1779865101.959572,3075,2216,1
1779865101.960811,1751,2157,1
1779865101.963275,1696,2277,1
1779865101.965798,1821,2143,1
1779865101.9671009,1965,1973,1
1779865101.97121,2460,1978,1
1779865101.972372,2538,2327,1
1779865101.9739761,1679,2371,1
1779865101.976577,1422,2036,1
1779865101.97897,2183,1793,1
1779865101.9791548,2267,1883,1
1779865101.981859,2256,2023,1
1779865101.983158,2277,1830,1
1779865101.985714,1967,1679,1
1779865101.987009,1200,2125,1
1779865101.9911191,2207,2523,1
1779865101.99189,2763,2234,1
1779865101.9940748,2574,1993,1
1779865101.996541,2693,2115,1
1779865101.9988701,2324,1996,1
1779865101.999167,2365,1980,1
1779865102.0012228,2565,2018,1
1779865102.003791,2377,1976,1
1779865102.005093,2113,2127,1
1779865102.007651,2194,2388,1
1779865102.012063,2207,2293,1
1779865102.012178,2334,2009,1
1779865102.014751,2210,2087,1
1779865102.016053,2380,2214,1
1779865102.01969,2263,2187,1
1779865102.01987,1882,2277,1
1779865102.0221162,2448,2197,1
1779865102.0234199,2560,2244,1
1779865102.024734,2448,2045,1
1779865102.027298,1913,1995,1
1779865102.033495,2241,2071,1
1779865102.0351171,2122,1908,1
1779865102.0370119,2576,1966,1
1779865102.038095,2599,2230,1
1779865102.0404658,2406,2247,1
1779865102.042454,2220,2370,1
1779865102.043006,2125,2041,1
1779865102.043073,2888,1910,1
1779865102.0456488,2321,2030,1
1779865102.046954,1823,2237,1
1779865102.049526,2511,2499,1
1779865102.052992,2599,2224,1
1779865102.0534499,2203,1921,1
1779865102.0556202,2051,1917,1
1779865102.056982,2386,1917,1
1779865102.060547,1864,1702,1
1779865102.062585,2283,1794,1
1779865102.06389,2414,2164,1
1779865102.0651982,2195,2043,1
1779865102.067683,2308,1715,1
1779865102.068979,2269,1824,1
1779865102.0736609,2647,2024,1
1779865102.07444,2365,2309,1
1779865102.075986,2261,2226,1
1779865102.078667,2250,2087,1
1779865102.080943,2163,1822,1
1779865102.081119,2274,1984,1
1779865102.0830941,2647,1971,1
1779865102.08553,1782,1824,1
1779865102.0868301,1710,1992,1
1779865102.089387,2792,2312,1
1779865102.093486,1970,2491,1
1779865102.094303,2380,2082,1
1779865102.09651,2485,2018,1
1779865102.098065,2361,1903,1
1779865102.1013482,2384,1969,1
1779865102.101541,2686,2007,1
1779865102.103675,2176,1861,1
1779865102.1050088,2011,2067,1
1779865102.1075451,2400,2197,1
1779865102.108845,2213,2136,1
1779865102.114235,2525,2454,1
1779865102.114987,2443,2259,1
1779865102.116987,2435,2096,1
1779865102.117153,2283,2115,1
1779865102.1220968,2302,2143,1
1779865102.1222332,2403,2152,1
1779865102.124403,2439,2224,1
1779865102.1257331,2379,2262,1
1779865102.127033,2156,1922,1
1779865102.12959,2320,1941,1
1779865102.130889,2220,2074,1
1779865102.1348999,2288,2185,1
1779865102.1356769,2520,2258,1
1779865102.137415,2562,2152,1
1779865102.1397948,2114,2261,1
1779865102.1422741,2085,2283,1
1779865102.144265,2317,2035,1
1779865102.1455748,2385,2067,1
1779865102.1468768,2351,2283,1
1779865102.1494458,2228,2146,1
1779865102.1508741,2368,1918,1
1779865102.155178,2191,2190,1
1779865102.1563258,2251,2354,1
1779865102.15782,2068,2427,1
1779865102.16277,2335,2134,1
1779865102.16293,2367,2053,1
1779865102.163181,2404,1962,1
1779865102.1653278,2311,2292,1
1779865102.1679518,2152,2270,1
1779865102.169251,2155,2273,1
1779865102.171808,2098,2327,1
1779865102.176258,2081,2457,1
1779865102.176933,2078,2316,1
1779865102.178377,2071,2222,1
1779865102.1800928,2156,2017,1
1779865102.183538,2122,2264,1
1779865102.1836648,2205,2261,1
1779865102.185586,2242,2139,1
1779865102.186893,2209,2176,1
1779865102.189455,2339,2374,1
1779865102.190758,2394,2285,1
1779865102.196609,2413,2290,1
1779865102.197027,2087,2514,1
1779865102.197149,1848,2482,1
1779865102.198956,1789,2472,1
1779865102.203874,2194,2568,1
1779865102.204005,1856,2498,1
1779865102.205994,1823,2510,1
1779865102.207447,2356,2423,1
1779865102.208763,1899,2475,1
1779865102.211325,1687,2190,1
1779865102.212716,1982,2194,1
1779865102.217202,3900,1947,1
1779865102.217678,2606,2499,1
1779865102.220802,623,2602,1
1779865102.2212439,651,2225,1
1779865102.22482,1560,2341,1
1779865102.225039,1716,2595,1
1779865102.227786,1587,2474,1
1779865102.229089,1510,2536,1
1779865102.231642,1720,2374,1
1779865102.232814,1550,2378,1
1779865102.237241,1789,2173,1
1779865102.237984,2387,2168,1
1779865102.2397618,2584,2694,1
1779865102.241409,2751,2503,1
1779865102.244905,2902,2285,1
1779865102.244979,2973,2290,1
1779865102.247904,1229,2609,1
1779865102.249204,873,2514,1
1779865102.251762,1545,2392,1
1779865102.253058,2105,2178,1
1779865102.2584598,1512,2575,1
1779865102.2588348,1079,2592,1
1779865102.260546,1672,2143,1
1779865102.263093,1647,2490,1
1779865102.263246,1175,2508,1
1779865102.265682,1694,2504,1
1779865102.267657,2714,2235,1
1779865102.268963,2889,2496,1
1779865102.2713149,2468,3000,1
1779865102.2726169,1512,3021,1
1779865102.2753139,744,2739,1
1779865102.278762,1434,2343,1
1779865102.27981,1998,2256,1
1779865102.282523,1807,2324,1
1779865102.285974,1747,2333,1
1779865102.286201,1897,2029,1
1779865102.288106,2079,2219,1
1779865102.2894201,2507,2253,1
1779865102.290782,2561,2257,1
1779865102.293349,2112,2168,1
1779865102.2959402,2084,2131,1
1779865102.299337,1982,2242,1
1779865102.299799,1844,2378,1
1779865102.301693,1849,2290,1
1779865102.304232,1776,2219,1
1779865102.306775,1522,2416,1
1779865102.307082,2398,2392,1
1779865102.309044,3671,2084,1
1779865102.3116229,1841,2481,1
1779865102.31292,842,2367,1
1779865102.316643,1510,2147,1
1779865102.316726,2408,2062,1
1779865102.3228512,2247,2132,1
1779865102.322995,1372,2376,1
1779865102.323172,1335,2477,1
1779865102.32839,1704,2335,1
1779865102.328619,1698,2076,1
1779865102.328775,2042,2063,1
1779865102.331658,2208,2244,1
1779865102.332754,2110,2575,1
1779865102.3353322,1826,2300,1
1779865102.336637,1668,2307,1
1779865102.341113,1573,2404,1
1779865102.3419578,1761,2389,1
1779865102.343476,2113,2336,1
1779865102.346109,1998,2312,1
1779865102.3487492,1932,2133,1
1779865102.348908,1937,2232,1
1779865102.3511329,2109,2237,1
1779865102.353718,1895,2268,1
1779865102.3550148,1955,2331,1
1779865102.357269,1903,2455,1
1779865102.360594,2045,2220,1
1779865102.361108,2158,2186,1
1779865102.36363,2533,2299,1
1779865102.3663921,2621,2365,1
1779865102.3689752,2065,2441,1
1779865102.3692002,1608,2465,1
1779865102.371705,1528,2327,1
1779865102.3730571,1932,2409,1
1779865102.375635,1636,2421,1
1779865102.376719,1519,2172,1
1779865102.381736,1667,1937,1
1779865102.383036,1891,1995,1
1779865102.384307,2076,1889,1
1779865102.3900642,2163,1930,1
1779865102.390239,2378,1585,1
1779865102.39039,2055,1879,1
1779865102.3920908,2017,2174,1
1779865102.393406,2036,1914,1
1779865102.394718,1706,1735,1
1779865102.397376,2206,1804,1
1779865102.401804,2306,1880,1
1779865102.402624,1734,1673,1
1779865102.404275,1551,1782,1
1779865102.406074,1861,1894,1
1779865102.4103198,2332,1649,1
1779865102.410741,2271,1713,1
1779865102.410944,1963,1770,1
1779865102.413362,1798,1634,1
1779865102.4147651,1816,1888,1
1779865102.417521,2245,1832,1
1779865102.4190452,1599,2039,1
1779865102.424151,1622,1994,1
1779865102.42643,1787,2073,1
1779865102.4295738,1841,1991,1
1779865102.4329531,1967,1827,1
1779865102.433229,1870,1673,1
1779865102.43389,1705,1862,1
1779865102.4366121,1960,2170,1
1779865102.436705,2173,1985,1
1779865102.4367979,2099,1927,1
1779865102.439476,2122,2018,1
1779865102.44088,2206,2140,1
1779865102.446762,2115,1991,1
1779865102.4481542,2232,1973,1
1779865102.450078,1931,1829,1
1779865102.4517481,1616,1991,1
1779865102.453574,2058,1765,1
1779865102.456883,2061,1711,1
1779865102.45741,1740,1834,1
1779865102.4577951,1642,1932,1
1779865102.4600801,1879,1911,1
1779865102.461577,2075,1631,1
1779865102.46301,2173,1906,1
1779865102.469613,1769,2096,1
1779865102.470567,1893,1877,1
1779865102.4722502,2051,1948,1
1779865102.474221,2129,2033,1
1779865102.474821,2232,2035,1
1779865102.476213,2198,1912,1
1779865102.479528,2428,1858,1
1779865102.4801202,2357,1934,1
1779865102.482367,1563,1984,1
1779865102.483766,1441,1985,1
1779865102.485398,1874,1777,1
1779865102.4870179,1998,1994,1
1779865102.492231,1781,2051,1
1779865102.495879,1719,2158,1
1779865102.4976451,1834,1899,1
1779865102.501068,1869,1991,1
1779865102.501405,2233,1712,1
1779865102.501913,2103,1841,1
1779865102.502174,2017,1539,1
1779865102.504757,2047,1602,1
1779865102.5048509,1928,1722,1
1779865102.507823,1961,1923,1
1779865102.509235,2212,1750,1
1779865102.51459,2385,1686,1
1779865102.516995,1956,1768,1
1779865102.517314,1730,1874,1
1779865102.517653,1931,1788,1
1779865102.523992,2065,1846,1
1779865102.5267541,2047,1884,1
1779865102.526921,1854,1948,1
1779865102.5270221,1774,1883,1
1779865102.527112,1883,1764,1
1779865102.529804,2165,1790,1
1779865102.5312781,2223,1945,1
1779865102.536919,2068,1960,1
1779865102.5406332,2239,1895,1
1779865102.541606,2023,2012,1
1779865102.542984,1994,2011,1
1779865102.546178,1953,2175,1
1779865102.54653,1852,2006,1
1779865102.546922,1826,2003,1
1779865102.547431,1929,2040,1
1779865102.549997,2188,2051,1
1779865102.5514162,2333,2005,1
1779865102.552799,2509,1853,1
1779865102.555557,2596,2052,1
1779865102.5592802,1586,2256,1
1779865102.562481,1606,2161,1
1779865102.56284,1687,2005,1
1779865102.564425,1800,1864,1
1779865102.5663989,1787,2020,1
1779865102.569748,1780,2062,1
1779865102.5701919,1892,2229,1
1779865102.572674,1926,2000,1
1779865102.572883,2018,2058,1
1779865102.5757382,2286,2043,1
1779865102.577157,2900,2012,1
1779865102.582571,2733,1896,1
1779865102.583989,1597,2079,1
1779865102.585769,1666,1910,1
1779865102.585994,1991,1885,1
1779865102.589306,1842,2081,1
1779865102.589571,1721,2124,1
1779865102.592942,1734,2250,1
1779865102.593177,1802,2022,1
1779865102.595728,1862,1960,1
1779865102.597265,2156,2017,1
1779865102.59869,2307,2101,1
1779865102.60522,2164,2154,1
1779865102.607223,2157,2040,1
1779865102.6090372,2215,2102,1
1779865102.6107259,2393,2141,1
1779865102.6161711,1727,2104,1
1779865102.6164858,1632,1984,1
1779865102.619448,1882,1990,1
1779865102.619725,2029,2121,1
1779865102.61981,2031,2055,1
1779865102.61997,2261,1999,1
1779865102.6214201,2131,2179,1
1779865102.629979,2051,2126,1
1779865102.63034,2037,2117,1
1779865102.632101,2015,2041,1
1779865102.634273,1949,2039,1
1779865102.6383958,2084,1984,1
1779865102.638877,2038,2109,1
1779865102.639306,1881,2070,1
1779865102.639891,1841,1985,1
1779865102.64204,1838,2043,1
1779865102.642921,1959,2163,1
1779865102.643069,2137,2116,1
1779865102.645681,2221,2124,1
1779865102.647074,2311,1991,1
1779865102.6525729,2036,2231,1
1779865102.654481,2028,2130,1
1779865102.655572,2570,2025,1
1779865102.657333,2539,2139,1
1779865102.657801,1443,2381,1
1779865102.661532,1515,2151,1
1779865102.665229,1880,2007,1
1779865102.665704,1954,2052,1
1779865102.666219,1912,1937,1
1779865102.66896,1856,1901,1
1779865102.669376,1942,1938,1
1779865102.670731,2182,1888,1
1779865102.677234,2131,2104,1
1779865102.677784,1986,2029,1
1779865102.680196,1991,1833,1
1779865102.680573,2188,1786,1
1779865102.6823921,2152,1871,1
1779865102.6881201,2021,1992,1
1779865102.688907,1919,1794,1
1779865102.6911669,1838,1884,1
1779865102.691967,1993,1971,1
1779865102.692092,2249,1969,1
1779865102.693482,2135,1931,1
1779865102.6948512,2042,1848,1
1779865102.6976058,2074,2074,1
1779865102.7029529,2024,2069,1
1779865102.70465,2129,1741,1
1779865102.706687,1988,1713,1
1779865102.7071512,1729,1836,1
1779865102.709195,1786,1879,1
1779865102.71118,2355,1753,1
1779865102.711585,2162,1735,1
1779865102.7154229,2069,1826,1
1779865102.716085,1931,1899,1
1779865102.718913,1983,2098,1
1779865102.718996,2116,2193,1
1779865102.7263098,1978,2239,1
1779865102.7269819,1891,2334,1
1779865102.730261,1940,2260,1
1779865102.730711,2101,2192,1
1779865102.732949,2161,2161,1
1779865102.7347221,2117,2182,1
1779865102.738833,2027,2175,1
1779865102.7391849,2289,2054,1
1779865102.741955,2190,2017,1
1779865102.742434,1776,2261,1
1779865102.742569,1837,2179,1
1779865102.742655,2090,2107,1
1779865102.7454028,2063,2035,1
1779865102.746925,2008,2089,1
1779865102.748506,2238,2094,1
1779865102.754127,2227,2144,1
1779865102.754773,1766,2105,1
1779865102.757115,1869,2090,1
1779865102.758707,1949,2142,1
1779865102.759997,2069,2073,1
1779865102.765283,2123,2005,1
1779865102.7658198,2048,1849,1
1779865102.768564,2122,1873,1
1779865102.768943,2202,2014,1
1779865102.7690508,2268,2008,1
1779865102.7705238,2106,2062,1
1779865102.776133,2247,2097,1
1779865102.77723,1944,2177,1
1779865102.779543,1711,2063,1
1779865102.779968,1864,1959,1
1779865102.78774,1884,2088,1
1779865102.788063,1866,2100,1
1779865102.7886589,1940,2055,1
1779865102.7913978,1916,2044,1
1779865102.7915368,1909,2111,1
1779865102.7916749,2043,2077,1
1779865102.793082,2271,2073,1
1779865102.794571,2317,2018,1
1779865102.797596,2068,2088,1
1779865102.802608,1953,2114,1
1779865102.804734,1995,2020,1
1779865102.8054469,1975,1984,1
1779865102.80773,1948,2123,1
1779865102.809706,2014,2209,1
1779865102.812767,2139,2055,1
1779865102.8170319,2235,2057,1
1779865102.8174798,2197,2115,1
1779865102.81778,2065,2105,1
1779865102.818124,2074,2015,1
1779865102.8218482,2052,2038,1
1779865102.821932,1984,2065,1
1779865102.8233979,2023,2120,1
1779865102.829236,2000,2112,1
1779865102.830626,1929,1983,1
1779865102.8334222,2116,1990,1
1779865102.833961,2214,2085,1
1779865102.836936,1811,2150,1
1779865102.837774,2138,2096,1
1779865102.839767,2107,2164,1
1779865102.840003,1982,2280,1
1779865102.844144,1869,2304,1
1779865102.844625,1937,2220,1
1779865102.844867,1992,2059,1
1779865102.848068,2020,2099,1
1779865102.849546,2060,2171,1
1779865102.850878,2033,2159,1
1779865102.853468,2065,2078,1
1779865102.854995,2005,2295,1
1779865102.859862,2017,2378,1
1779865102.860663,2166,2282,1
1779865102.860893,2171,2302,1
1779865102.8663511,2081,2306,1
1779865102.868692,1923,2268,1
1779865102.873017,2017,2189,1
1779865102.873299,2015,2068,1
1779865102.873675,1980,1965,1
1779865102.8739278,1982,2089,1
1779865102.877038,2101,2035,1
1779865102.877095,2106,1954,1
1779865102.878529,2196,1886,1
1779865102.88464,2116,1902,1
1779865102.88547,1924,2051,1
1779865102.886209,2008,1948,1
1779865102.8889349,1981,2007,1
1779865102.889239,1950,2102,1
1779865102.8932312,2013,2157,1
1779865102.8974552,2148,2036,1
1779865102.897711,2044,2055,1
1779865102.898166,2107,1999,1
1779865102.901449,2058,2034,1
1779865102.901593,1996,1930,1
1779865102.902853,2054,1969,1
1779865102.905495,2017,2031,1
1779865102.906858,1876,2130,1
1779865102.913457,1957,2017,1
1779865102.91429,1993,1955,1
1779865102.91796,2009,1919,1
1779865102.921061,2041,1957,1
1779865102.923059,2110,1948,1
1779865102.927519,2141,1920,1
1779865102.928073,2072,1960,1
1779865102.928282,1985,2007,1
1779865102.928721,2030,2095,1
1779865102.929065,2082,2203,1
1779865102.929376,2050,2239,1
1779865102.932534,2052,2294,1
1779865102.932652,2004,2297,1
1779865102.935283,2065,2242,1
1779865102.940508,2058,2242,1
1779865102.9411352,2029,2357,1
1779865102.9425,1989,2265,1
1779865102.944395,2057,2081,1
1779865102.9447622,2033,2011,1
1779865102.949117,2076,2065,1
1779865102.953158,2009,2082,1
1779865102.953565,2085,2075,1
1779865102.9538949,2078,2121,1
1779865102.9570482,2025,2223,1
1779865102.957286,2017,2329,1
1779865102.9587111,2066,2166,1
1779865102.961303,2117,2095,1
1779865102.962623,2046,2059,1
1779865102.96903,2027,2075,1
1779865102.96974,2056,2038,1
1779865102.971518,2032,2047,1
1779865102.973522,2022,2118,1
1779865102.9740741,2013,2182,1
1779865102.9760692,2024,2172,1
1779865102.978156,2043,2012,1
1779865102.982372,2035,2079,1
1779865102.9827452,2002,2118,1
1779865102.983314,2002,2127,1
1779865102.986233,2068,2064,1
1779865102.9864042,2029,2120,1
1779865102.9891891,2007,2272,1
1779865102.9946308,1982,2380,1
1779865102.995508,2076,2234,1
1779865102.996202,2082,2219,1
1779865102.998646,2133,2295,1
1779865102.9990468,2108,2362,1
1779865103.00333,2199,2206,1
1779865103.0074399,2048,2177,1
1779865103.007752,1877,2277,1
1779865103.007945,1878,2322,1
1779865103.01108,2020,2288,1
1779865103.011486,2044,2158,1
1779865103.012856,2031,2086,1
1779865103.015457,1969,2181,1
1779865103.0170372,1937,2126,1
1779865103.022718,1952,2060,1
1779865103.0234501,2018,1996,1
1779865103.024538,1987,2108,1
1779865103.025332,2004,2167,1
1779865103.029109,2082,2059,1
1779865103.029778,2090,2021,1
1779865103.036381,1995,2070,1
1779865103.039903,2033,2136,1
1779865103.0400991,2199,2067,1
1779865103.040243,2132,2091,1
1779865103.040401,2059,2177,1
1779865103.040492,2096,2163,1
1779865103.05162,2117,2110,1
1779865103.054462,2074,1968,1
1779865103.060074,2063,2042,1
1779865103.0609899,2041,2200,1
1779865103.06346,2037,2082,1
1779865103.0644422,2018,2027,1
1779865103.064537,1949,2135,1
1779865103.0646122,1968,2333,1
1779865103.064675,2130,2210,1
1779865103.064735,2053,2054,1
1779865103.064796,2012,2106,1
1779865103.0648599,1962,2111,1
1779865103.067608,2040,2213,1
1779865103.068966,2036,2130,1
1779865103.070388,1972,2091,1
1779865103.080031,1985,2327,1
1779865103.080696,2044,2338,1
1779865103.0836108,2084,2221,1
1779865103.085612,2024,2201,1
1779865103.086027,2150,2263,1
1779865103.090254,2063,2165,1
1779865103.090888,2092,2018,1
1779865103.09149,2049,2113,1
1779865103.091821,2011,2187,1
1779865103.095707,1971,2296,1
1779865103.095808,2027,2140,1
1779865103.095881,2090,2079,1
1779865103.0975518,2074,2126,1
1779865103.102942,2053,2144,1
1779865103.103735,2042,2176,1
1779865103.106751,2038,2077,1
1779865103.107278,1987,2198,1
1779865103.111573,1989,2269,1
1779865103.115767,2096,2184,1
1779865103.1163678,2165,2204,1
1779865103.116881,2159,2149,1
1779865103.117424,2173,2180,1
1779865103.1207008,1998,2110,1
1779865103.1208162,2153,1903,1
1779865103.120935,2179,1870,1
1779865103.122355,2265,1945,1
1779865103.125023,2111,1908,1
1779865103.1265018,2135,1886,1
1779865103.134101,2111,1839,1
1779865103.137216,2132,1818,1
1779865103.141757,2060,1947,1
1779865103.1460412,2134,1841,1
1779865103.146741,2052,2090,1
1779865103.147378,2007,2174,1
1779865103.150774,1950,2176,1
1779865103.150918,2143,2036,1
1779865103.151048,2135,2054,1
1779865103.151189,2045,2003,1
1779865103.151309,1965,2017,1
1779865103.15138,2085,1966,1
1779865103.15253,2132,2028,1
1779865103.159777,1866,2141,1
1779865103.163229,1945,2315,1
1779865103.163667,2090,2177,1
1779865103.166771,2187,2123,1
1779865103.172353,2022,2189,1
1779865103.172927,1980,2111,1
1779865103.173249,1945,2152,1
1779865103.173677,2117,2045,1
1779865103.173934,2169,2197,1
1779865103.177208,1908,2204,1
1779865103.1776068,1939,2249,1
1779865103.177671,2069,2104,1
1779865103.179061,2083,2006,1
1779865103.180465,1940,1930,1
1779865103.183062,1971,2033,1
1779865103.189729,2184,2063,1
1779865103.19161,2234,2177,1
1779865103.194026,2013,2085,1
1779865103.194226,1880,2104,1
1779865103.196346,2049,1991,1
1779865103.198903,2077,1956,1
1779865103.20323,2028,1870,1
1779865103.206802,1937,1806,1
1779865103.2069418,1976,1850,1
1779865103.20701,2107,1959,1
1779865103.207065,2038,1935,1
1779865103.207118,1890,2064,1
1779865103.208641,1879,1945,1
1779865103.215467,1987,1922,1
1779865103.221042,2010,1902,1
1779865103.2274501,1889,1999,1
1779865103.2284029,1845,1986,1
1779865103.231742,2036,1961,1
1779865103.2320719,2029,1994,1
1779865103.232161,1995,2186,1
1779865103.2323232,1930,2044,1
1779865103.2323918,2127,1860,1
1779865103.232455,2216,1792,1
1779865103.232518,2285,1770,1
1779865103.2325811,2073,1897,1
1779865103.235275,2045,1736,1
1779865103.2366889,1977,1645,1
1779865103.247234,2137,1839,1
1779865103.2477582,1954,2018,1
1779865103.252343,2009,1816,1
1779865103.25636,1978,1845,1
1779865103.256806,2052,1855,1
1779865103.2572958,2015,1908,1
1779865103.260045,1947,1792,1
1779865103.261059,2030,1819,1
1779865103.2611241,2027,1963,1
1779865103.261179,1980,2078,1
1779865103.2612312,1986,2050,1
1779865103.261311,2086,2010,1
1779865103.2627609,2143,2000,1
1779865103.269595,2118,2032,1
1779865103.2709498,1989,2027,1
1779865103.273469,1964,1888,1
1779865103.2762449,2087,1999,1
1779865103.279107,1968,2113,1
1779865103.285695,1968,2100,1
1779865103.2867,2070,2011,1
1779865103.287127,2117,1984,1
1779865103.287273,2108,2068,1
1779865103.287333,2013,2058,1
1779865103.287505,2082,2030,1
1779865103.287582,2042,2053,1
1779865103.289024,2094,2316,1
1779865103.290418,2100,2266,1
1779865103.292934,2015,2083,1
1779865103.300331,1979,2084,1
1779865103.3033211,1944,2155,1
1779865103.306544,2092,2318,1
1779865103.308554,2310,2294,1
1779865103.312661,2203,2093,1
1779865103.312971,1780,2044,1
1779865103.313194,1987,2176,1
1779865103.313375,2151,2192,1
1779865103.313623,2145,2108,1
1779865103.313866,2082,2022,1
1779865103.316879,1898,1882,1
1779865103.317166,2020,1813,1
1779865103.318518,2141,1843,1
1779865103.325034,2097,1935,1
1779865103.325666,2041,2093,1
1779865103.326847,1930,2098,1
1779865103.3286982,2094,1988,1
1779865103.329095,2196,1934,1
1779865103.3316522,2091,1965,1
1779865103.333353,1967,1933,1
1779865103.3368099,2049,1866,1
1779865103.337162,2053,1887,1
1779865103.339752,1971,2032,1
1779865103.3410912,1978,2050,1
1779865103.342426,2075,1953,1
1779865103.345027,2143,1821,1
1779865103.346355,2139,1852,1
1779865103.3518138,2065,2031,1
1779865103.352472,2048,1956,1
1779865103.353607,2031,1793,1
1779865103.355736,2034,1960,1
1779865103.359147,2043,2110,1
1779865103.3592792,2007,2023,1
1779865103.3623161,2090,1943,1
1779865103.3624551,2025,1878,1
1779865103.3653681,2020,1990,1
1779865103.366697,2084,2071,1
1779865103.371657,2118,2021,1
1779865103.3731499,2110,1995,1
1779865103.3737102,1972,2107,1
1779865103.375561,2002,2178,1
1779865103.377238,2112,2008,1
1779865103.3790479,2019,1950,1
1779865103.382008,2093,1983,1
1779865103.3848379,2212,2011,1
1779865103.385011,2143,1980,1
1779865103.3863301,2091,2049,1
1779865103.3889039,2011,2135,1
1779865103.3942242,1955,2216,1
1779865103.395123,2095,2076,1
1779865103.3952808,2121,1996,1
1779865103.398134,2098,1998,1
1779865103.3998861,1981,2090,1
1779865103.401698,2014,2152,1
1779865103.404641,2100,2133,1
1779865103.404879,2067,2204,1
1779865103.407722,2012,2247,1
1779865103.409038,2070,2202,1
1779865103.410431,2132,2082,1
1779865103.413043,2057,2068,1
1779865103.418253,2041,2065,1
1779865103.418859,2027,2019,1
1779865103.420846,2115,2009,1
1779865103.42115,2083,2084,1
1779865103.423103,2014,2212,1
1779865103.4274619,2051,2179,1
1779865103.4276512,2145,2024,1
1779865103.430358,2106,1948,1
1779865103.4304159,2065,1939,1
1779865103.432998,2018,2082,1
1779865103.4343119,2072,2050,1
1779865103.4399989,2061,1998,1
1779865103.44098,2021,2082,1
1779865103.44193,1973,2204,1
1779865103.443574,2149,2074,1
1779865103.445791,2093,2035,1
1779865103.449996,2075,1970,1
1779865103.450233,2070,2051,1
1779865103.450658,2122,1900,1
1779865103.453272,2118,1761,1
1779865103.454589,2041,1894,1
1779865103.457175,2067,2065,1
1779865103.458493,2086,2050,1
1779865103.463168,2125,1849,1
1779865103.4645581,2063,1797,1
1779865103.465156,2023,1912,1
1779865103.466848,2024,1934,1
1779865103.468551,2035,1935,1
1779865103.4704928,2038,1941,1
1779865103.4734368,1974,2066,1
1779865103.476157,1964,2178,1
1779865103.476245,2051,2004,1
1779865103.478818,2122,1957,1
1779865103.480225,2104,2019,1
1779865103.4852748,2030,2078,1
1779865103.486722,2046,1995,1
1779865103.487245,2061,2063,1
1779865103.4891891,2035,2062,1
1779865103.492806,2029,2201,1
1779865103.495879,2089,2096,1
1779865103.496099,2109,2051,1
1779865103.496449,2089,2072,1
1779865103.499381,2083,2231,1
1779865103.500693,2057,2138,1
1779865103.5032861,2075,1965,1
1779865103.504598,2080,2189,1
1779865103.510087,2021,2310,1
1779865103.510967,2033,2212,1
1779865103.513076,2076,2077,1
1779865103.513603,2072,1979,1
1779865103.5170188,2023,2073,1
1779865103.520115,2023,2123,1
1779865103.5203142,2077,1966,1
1779865103.522536,2048,2100,1
1779865103.5232892,2040,2199,1
1779865103.524616,2037,2250,1
1779865103.530848,2086,1996,1
1779865103.533024,1999,1934,1
1779865103.534973,2159,1972,1
1779865103.536939,2196,2136,1
1779865103.5399501,2112,2112,1
1779865103.540582,2081,2160,1
1779865103.5408819,2005,2253,1
1779865103.543314,2024,2342,1
1779865103.543676,2060,2152,1
1779865103.544995,2032,2048,1
1779865103.5463092,2061,2003,1
1779865103.548897,2046,2101,1
1779865103.553816,2022,2033,1
1779865103.555319,2109,2000,1
1779865103.555896,2050,2066,1
1779865103.557557,1978,2086,1
1779865103.559767,2077,2015,1
1779865103.561342,2107,1880,1
1779865103.5643141,2093,1879,1
1779865103.564675,2062,1896,1
1779865103.567436,2105,1943,1
1779865103.568759,2107,1874,1
1779865103.574368,2018,1908,1
1779865103.574976,2007,1993,1
1779865103.575583,2003,2048,1
1779865103.577601,2130,1909,1
1779865103.579743,2106,1916,1
1779865103.5837,2063,1967,1
1779865103.583987,2051,2077,1
1779865103.586655,2059,1951,1
1779865103.586709,2084,1920,1
1779865103.589293,2019,2093,1
1779865103.5906088,1989,2217,1
1779865103.5963452,2073,2093,1
1779865103.597333,2154,2084,1
1779865103.599849,2066,2057,1
1779865103.6000168,1926,2084,1
1779865103.602211,2068,2018,1
1779865103.6023612,2116,2053,1
1779865103.6064289,2042,2090,1
1779865103.606735,1940,2227,1
1779865103.609483,2055,2205,1
1779865103.610799,2145,2096,1
1779865103.613387,2073,2059,1
1779865103.6147,1998,2048,1
1779865103.619355,2065,2094,1
1779865103.6203341,2178,2075,1
1779865103.6208398,2114,2069,1
1779865103.623652,1924,2203,1
1779865103.625271,1994,2210,1
1779865103.627671,2116,2054,1
1779865103.6296651,2083,2007,1
1779865103.630977,2080,2051,1
1779865103.6323671,2065,2158,1
1779865103.634936,2066,2011,1
1779865103.639327,2060,1969,1
1779865103.64195,2058,2095,1
1779865103.642116,1996,2163,1
1779865103.6422741,2033,1997,1
1779865103.647698,2048,2002,1
1779865103.64783,2100,1956,1
1779865103.650211,2039,2038,1
1779865103.650437,2035,1998,1
1779865103.65301,2115,1896,1
1779865103.654316,2025,2042,1
1779865103.65969,1984,2157,1
1779865103.66117,2040,2133,1
1779865103.662653,2038,2038,1
1779865103.662904,2069,2003,1
1779865103.664463,2110,2064,1
1779865103.668471,2039,2076,1
1779865103.668703,2091,1968,1
1779865103.67117,2016,2066,1
1779865103.6723928,1990,2153,1
1779865103.675039,2014,2287,1
1779865103.676353,2143,2029,1
1779865103.6806662,2038,1995,1
1779865103.681509,2033,1991,1
1779865103.683268,1996,2090,1
1779865103.685236,2048,1971,1
1779865103.6888251,2071,1989,1
1779865103.689089,2008,2133,1
1779865103.6909592,1953,2234,1
1779865103.69227,2111,2106,1
1779865103.6948538,2072,2052,1
1779865103.7003589,2071,2017,1
1779865103.700842,2031,2013,1
1779865103.7009332,2055,2056,1
1779865103.7034109,2086,2030,1
1779865103.706462,2011,2115,1
1779865103.7065852,1969,2165,1
1779865103.709107,2053,2097,1
1779865103.7111712,2103,1963,1
1779865103.7124858,2090,1938,1
1779865103.715055,2056,2022,1
1779865103.716359,2054,2034,1
1779865103.72136,2112,1926,1
1779865103.722168,2105,1925,1
1779865103.723606,2003,2102,1
1779865103.72558,1969,2141,1
1779865103.729055,2066,1971,1
1779865103.729171,2098,1920,1
1779865103.731704,2065,2014,1
1779865103.733011,2058,2060,1
1779865103.7343202,2064,2027,1
1779865103.736737,2051,2037,1
1779865103.740899,2056,2041,1
1779865103.7418299,1990,2180,1
1779865103.743891,2118,2040,1
1779865103.745832,2112,1967,1
1779865103.749351,2061,1933,1
1779865103.749523,2040,1970,1
1779865103.751945,2040,1922,1
1779865103.7532659,2028,1758,1
1779865103.754574,2014,1952,1
1779865103.75714,2004,1991,1
1779865103.760999,2044,1934,1
1779865103.7615528,2085,1894,1
1779865103.762966,2115,1854,1
1779865103.7644491,2079,1913,1
1779865103.766428,2055,1985,1
1779865103.769973,2095,1861,1
1779865103.7702458,2090,1959,1
1779865103.772615,2039,2098,1
1779865103.775203,2023,2165,1
1779865103.776521,2057,2032,1
1779865103.782161,2022,1982,1
1779865103.7830331,2028,1977,1
1779865103.78454,2038,2040,1
1779865103.784735,2079,2075,1
1779865103.787752,1981,2028,1
1779865103.790463,2009,2089,1
1779865103.790703,1950,2174,1
1779865103.793161,2056,2082,1
1779865103.7944698,2149,2084,1
1779865103.797054,2105,2044,1
1779865103.801601,2016,2074,1
1779865103.80207,2070,1952,1
1779865103.8026161,2043,1991,1
1779865103.804825,2055,2060,1
1779865103.806753,2009,2161,1
1779865103.810154,2045,2102,1
1779865103.8103669,2068,2038,1
1779865103.8129869,2108,2005,1
1779865103.8142972,2044,1922,1
1779865103.8167381,2067,2106,1
1779865103.8181062,2089,2022,1
1779865103.8231099,2033,2052,1
1779865103.823544,1967,2214,1
1779865103.825016,1953,2260,1
1779865103.826901,2056,2116,1
1779865103.830681,2071,2049,1
1779865103.830865,2018,2055,1
1779865103.833162,2042,2092,1
1779865103.83448,2084,2031,1
1779865103.836811,2104,1975,1
1779865103.838132,2015,2153,1
1779865103.842929,1992,2288,1
1779865103.843921,2076,2104,1
1779865103.846762,2093,1953,1
1779865103.8485298,2090,1962,1
1779865103.850942,2093,2072,1
1779865103.851138,2063,2030,1
1779865103.853562,2057,1998,1
1779865103.854882,2031,2145,1
1779865103.856203,1986,2277,1
1779865103.858777,2039,2261,1
1779865103.862647,2005,2081,1
1779865103.863199,2055,2003,1
1779865103.8658822,2063,2026,1
1779865103.869121,2026,2078,1
1779865103.8692858,2107,1940,1
1779865103.87185,2091,2068,1
1779865103.8743749,2038,2151,1
1779865103.8744278,1992,2221,1
1779865103.8769999,2084,2111,1
1779865103.8781672,2062,2018,1
1779865103.883411,2041,2022,1
1779865103.884347,1989,2135,1
1779865103.886116,2063,2037,1
1779865103.886441,2005,2021,1
1779865103.889355,1975,2075,1
1779865103.8917499,1987,2224,1
1779865103.893805,2103,2163,1
1779865103.895124,2120,1946,1
1779865103.896441,2087,1863,1
1779865103.899012,2033,2088,1
1779865103.9032588,2110,2200,1
1779865103.9036748,2310,1965,1
1779865103.905656,2353,1890,1
1779865103.9072928,1965,2264,1
1779865103.910586,2104,2073,1
1779865103.9107,2059,1954,1
1779865103.913023,2174,2036,1
1779865103.9143271,2195,2070,1
1779865103.916904,1964,2233,1
1779865103.9182248,1953,2135,1
1779865103.9236999,1819,2149,1
1779865103.924212,1810,2140,1
1779865103.925018,1964,2232,1
1779865103.927736,2102,2087,1
1779865103.929408,1923,1992,1
1779865103.931602,1999,1961,1
1779865103.933939,2072,2125,1
1779865103.935242,2003,1974,1
1779865103.9365919,2313,1874,1
1779865103.939151,2665,1997,1
1779865103.940537,2011,2390,1
1779865103.943702,1820,2147,1
1779865103.946381,2046,1928,1
1779865103.946517,1983,2010,1
1779865103.949375,2060,2031,1
1779865103.9515939,2141,2062,1
1779865103.953818,1994,2022,1
1779865103.95512,1954,2107,1
1779865103.9564319,1764,2184,1
1779865103.958991,1974,2243,1
1779865103.960287,2083,2104,1
1779865103.964517,2123,2028,1
1779865103.9653,2203,2051,1
1779865103.966871,1962,2053,1
1779865103.969646,2009,1989,1
1779865103.972022,2003,2068,1
1779865103.9722219,1988,2180,1
1779865103.975034,2077,2253,1
1779865103.9763489,2260,2085,1
1779865103.978791,2269,2027,1
1779865103.9801002,2156,2048,1
1779865103.985027,1973,2131,1
1779865103.985814,2111,2010,1
1779865103.988467,2110,2107,1
1779865103.989255,1990,2202,1
1779865103.992509,2011,2286,1
1779865103.992738,2109,2159,1
1779865103.994924,2144,2044,1
1779865103.9962409,2109,2024,1
1779865103.998822,2213,2076,1
1779865104.000127,2092,2161,1
1779865104.0056179,2184,2054,1
1779865104.006429,2122,2138,1
1779865104.007791,1971,2285,1
1779865104.009548,1855,2203,1
1779865104.0128572,2003,2148,1
1779865104.0131369,2091,2087,1
1779865104.0152268,2034,2163,1
1779865104.016541,1940,2154,1
1779865104.0188842,1982,2019,1
1779865104.020187,2034,2006,1
1779865104.025991,2058,2092,1
1779865104.026347,2046,2189,1
1779865104.027971,2119,2104,1
1779865104.0307689,2130,1990,1
1779865104.033195,2031,1970,1
1779865104.033356,2015,2095,1
1779865104.0356421,2107,2111,1
1779865104.0369558,2204,2061,1
1779865104.0382679,2106,2062,1
1779865104.04083,2002,2203,1
1779865104.042172,1995,2084,1
1779865104.046319,1977,1881,1
1779865104.046751,1942,1783,1
1779865104.048958,1971,2058,1
1779865104.050622,2138,2340,1
1779865104.053898,2016,2215,1
1779865104.055682,1905,2103,1
1779865104.0569909,2192,2135,1
1779865104.0585642,2253,2362,1
1779865104.0612822,2151,2124,1
1779865104.062593,2095,2073,1
1779865104.066135,2197,1954,1
1779865104.0677881,1693,1880,1
1779865104.069289,1712,1703,1
1779865104.070904,2157,2046,1
1779865104.074243,2025,2459,1
1779865104.074395,2068,2358,1
1779865104.076451,2277,2234,1
1779865104.0791638,2321,2149,1
1779865104.080481,2448,2056,1
1779865104.083216,2588,2248,1
1779865104.086855,2461,2214,1
1779865104.088,2147,2167,1
1779865104.089495,1743,2043,1
1779865104.0909069,1637,2059,1
1779865104.094552,1999,1960,1
1779865104.0947452,2008,2055,1
1779865104.0969222,2035,2163,1
1779865104.098237,1728,2076,1
1779865104.100735,1947,1951,1
1779865104.102081,2133,2008,1
1779865104.1071591,2276,2070,1
1779865104.1097229,1824,2225,1
1779865104.109977,2296,2193,1
1779865104.111634,2488,2141,1
1779865104.11492,2439,2094,1
1779865104.11511,2157,2034,1
1779865104.1168709,1940,2091,1
1779865104.1181738,1910,1844,1
1779865104.120734,1667,2248,1
1779865104.1220548,2044,2405,1
1779865104.127639,2077,2228,1
1779865104.128074,2387,1986,1
1779865104.128861,1662,1856,1
1779865104.13027,1572,2254,1
1779865104.135117,2099,2293,1
1779865104.135375,3180,2186,1
1779865104.1376798,2683,2037,1
1779865104.138985,2066,2230,1
1779865104.1402938,2064,2429,1
1779865104.142866,1645,2167,1
1779865104.1441689,1874,1971,1
1779865104.148331,2038,1805,1
1779865104.149052,2056,2114,1
1779865104.152174,2320,2130,1
1779865104.153337,2188,2252,1
1779865104.155688,2409,2182,1
1779865104.157978,1770,2098,1
1779865104.158186,2128,2107,1
1779865104.160864,2805,2065,1
1779865104.162168,2037,2033,1
1779865104.164839,1863,2219,1
1779865104.168153,2227,2246,1
1779865104.169353,2137,1664,1
1779865104.171099,1948,1693,1
1779865104.1727512,2362,2508,1
1779865104.1762528,1693,2523,1
1779865104.176467,2019,2326,1
1779865104.178259,2990,2559,1
1779865104.180664,2934,2397,1
1779865104.18207,2168,2040,1
1779865104.184628,1787,1923,1
1779865104.1890109,2157,2229,1
1779865104.189535,2382,2631,1
1779865104.1916978,2219,2249,1
1779865104.193397,2353,1971,1
1779865104.196696,2363,2062,1
1779865104.196783,2369,2214,1
1779865104.198955,2120,2213,1
1779865104.200276,2107,2350,1
1779865104.202851,1914,2260,1
1779865104.2041652,2248,2241,1
1779865104.209575,2144,2443,1
1779865104.2103171,2449,2309,1
1779865104.2115688,2143,2140,1
1779865104.21442,2365,2286,1
1779865104.2168262,2178,2074,1
1779865104.217014,1850,2186,1
1779865104.21921,2392,2038,1
1779865104.220515,2378,2138,1
1779865104.223092,2046,2081,1
1779865104.2242591,2149,2252,1
1779865104.22961,2197,2047,1
1779865104.230517,2187,1842,1
1779865104.2321332,2093,2157,1
1779865104.232342,2316,2317,1
1779865104.235271,2250,2183,1
1779865104.237688,2453,2057,1
1779865104.239823,2392,2054,1
1779865104.240035,2065,2139,1
1779865104.242614,2096,2022,1
1779865104.244027,2133,1899,1
1779865104.249613,2251,1887,1
1779865104.251116,2152,1876,1
1779865104.252463,2088,1975,1
1779865104.252806,2109,1915,1
1779865104.2577658,2238,1940,1
1779865104.257971,2199,2021,1
1779865104.2581701,2225,2130,1
1779865104.261107,2128,2023,1
1779865104.262411,2079,2115,1
1779865104.2647538,2162,2040,1
1779865104.266177,2231,2003,1
1779865104.27002,2201,1866,1
1779865104.271225,2051,1985,1
1779865104.272964,1988,1965,1
1779865104.2757812,2109,2171,1
1779865104.2781818,2101,2273,1
1779865104.278445,2085,1964,1
1779865104.2805178,2091,2002,1
1779865104.283093,2136,2069,1
1779865104.2843971,2045,2285,1
1779865104.2868018,2069,2097,1
1779865104.290514,2106,2272,1
1779865104.291776,2155,2168,1
1779865104.2936761,2101,2197,1
1779865104.2954009,2160,2134,1
1779865104.298802,2125,2157,1
1779865104.299037,1998,2350,1
1779865104.301246,1913,2028,1
1779865104.302549,2022,1928,1
1779865104.305121,1998,2286,1
1779865104.3064342,1943,2284,1
1779865104.311646,1978,2346,1
1779865104.313836,2047,2152,1
1779865104.313947,2294,2027,1
1779865104.314272,2115,2387,1
1779865104.317248,1880,2217,1
1779865104.31967,2077,2150,1
1779865104.322193,1997,2842,1
1779865104.322242,1908,2710,1
1779865104.324845,2206,2652,1
1779865104.326161,2460,2117,1
1779865104.3319528,1980,2497,1
1779865104.3328,1886,2737,1
1779865104.3345459,1636,2767,1
1779865104.334822,1976,2651,1
1779865104.336431,1984,2557,1
1779865104.340267,2271,2718,1
1779865104.3424509,1917,3112,1
1779865104.3426719,1864,2722,1
1779865104.34407,1710,2619,1
1779865104.346648,1698,2719,1
1779865104.348138,1868,2522,1
1779865104.352297,2308,2459,1
1779865104.352749,2036,2359,1
1779865104.3545449,1985,2268,1
1779865104.357483,2634,2191,1
1779865104.36014,1913,2560,1
1779865104.36027,1320,2662,1
1779865104.362527,1613,2354,1
1779865104.365111,1919,2170,1
1779865104.366422,1978,2373,1
1779865104.3725471,2086,2415,1
1779865104.37342,1913,2443,1
1779865104.3751822,1626,2556,1
1779865104.375442,1865,2540,1
1779865104.3782232,2239,2432,1
1779865104.378415,2394,2236,1
1779865104.380863,2466,2286,1
1779865104.383138,1903,2723,1
1779865104.384601,1745,2279,1
1779865104.386014,1878,2345,1
1779865104.38852,1855,2496,1
1779865104.391895,1994,2547,1
1779865104.3930051,2102,2367,1
1779865104.394638,2004,2375,1
1779865104.397578,2119,2376,1
1779865104.399981,2283,2068,1
1779865104.400217,2372,2189,1
1779865104.402465,2239,2188,1
1779865104.405051,2062,2258,1
1779865104.406353,2267,2314,1
1779865104.408729,1973,2376,1
1779865104.4128058,1969,2064,1
1779865104.413583,1608,2118,1
1779865104.415145,1688,2104,1
1779865104.416872,1933,2251,1
1779865104.420419,2281,1972,1
1779865104.4205592,2221,2052,1
1779865104.422892,2101,2420,1
1779865104.424234,2191,2311,1
1779865104.426782,1933,2114,1
1779865104.428083,2102,1900,1
1779865104.433321,2109,2075,1
1779865104.4337862,2525,1952,1
1779865104.435756,2172,1920,1
1779865104.43842,1445,2266,1
1779865104.4410071,1890,2096,1
1779865104.441154,1669,2384,1
1779865104.443302,1919,2153,1
1779865104.444611,2823,1959,1
1779865104.447138,3067,1910,1
1779865104.448456,2129,2020,1
1779865104.453302,1724,2307,1
1779865104.4547951,1400,2032,1
1779865104.45488,1693,2036,1
1779865104.45631,1550,2279,1
1779865104.459012,1556,2224,1
1779865104.461605,1774,2199,1
1779865104.463766,1824,2210,1
1779865104.465099,1881,2331,1
1779865104.466408,2239,2249,1
1779865104.468983,2599,2149,1
1779865104.470347,2887,2115,1
1779865104.4740689,2941,2143,1
1779865104.474515,3097,2159,1
1779865104.476612,1417,2114,1
1779865104.478369,1047,1855,1
1779865104.4819,1317,2006,1
1779865104.482184,1458,1997,1
1779865104.48437,1653,2000,1
1779865104.487147,1758,1855,1
1779865104.488451,1749,1950,1
1779865104.494005,1713,2076,1
1779865104.494473,1986,1924,1
1779865104.494942,2281,1859,1
1779865104.496904,3113,1695,1
1779865104.498707,3758,1836,1
1779865104.5022972,1940,2116,1
1779865104.502432,1586,1886,1
1779865104.504215,1617,1828,1
1779865104.5068219,1575,2136,1
1779865104.508126,1658,2159,1
1779865104.51055,1608,1972,1
1779865104.5146182,1717,2001,1
1779865104.515405,1629,2168,1
1779865104.5171032,1848,2047,1
1779865104.518497,2186,1986,1
1779865104.5221179,2240,2003,1
1779865104.5222652,2145,2114,1
1779865104.5243258,2052,2413,1
1779865104.5269,2637,2068,1
1779865104.5282,3069,1724,1
1779865104.53076,2181,1987,1
1779865104.534293,876,2322,1
1779865104.534679,1236,2208,1
1779865104.5372338,1851,2143,1
1779865104.53964,2112,2531,1
1779865104.542034,1970,2453,1
1779865104.5423481,2195,2710,1
1779865104.5443358,1516,2612,1
1779865104.546904,1514,2301,1
1779865104.548225,1999,2375,1
1779865104.550783,2201,2440,1
1779865104.556561,2393,2151,1
1779865104.5569768,2733,1929,1
1779865104.5570838,1517,2305,1
1779865104.560128,1469,2128,1
1779865104.563909,1809,1921,1
1779865104.5643148,2037,1928,1
1779865104.566209,2208,1874,1
1779865104.566435,2276,1881,1
1779865104.5690129,2205,1891,1
1779865104.570326,2135,2113,1
1779865104.575474,2314,1991,1
1779865104.5763042,1580,2236,1
1779865104.578955,1810,2034,1
1779865104.5809789,1929,2136,1
1779865104.581435,2057,1842,1
1779865104.58523,2083,2094,1
1779865104.585577,1873,2158,1
1779865104.587845,1914,1992,1
1779865104.588054,2018,1870,1
1779865104.5906901,2330,1831,1
1779865104.5920372,2821,1907,1
1779865104.597128,1600,2017,1
1779865104.597271,2280,1625,1
1779865104.599988,2167,1998,1
1779865104.6001332,1421,1936,1
1779865104.6032379,1716,1886,1
1779865104.6064289,1960,1976,1
1779865104.606587,1818,1990,1
1779865104.609707,1759,2056,1
1779865104.611246,2162,1774,1
1779865104.612611,2856,1854,1
1779865104.614033,2130,2098,1
1779865104.618886,1747,1927,1
1779865104.621056,1813,1837,1
1779865104.622398,1993,1915,1
1779865104.622474,1668,1991,1
1779865104.6244962,1909,2073,1
1779865104.627657,1767,1996,1
1779865104.629699,1671,1882,1
1779865104.631197,1895,1874,1
1779865104.632501,2044,2010,1
1779865104.635503,2287,2079,1
1779865104.640901,2313,2027,1
1779865104.6411781,2217,2124,1
1779865104.642004,2134,2149,1
1779865104.64205,2110,2010,1
1779865104.703312,2070,1974,1
1779865104.703427,2135,2017,1
1779865104.703475,2112,1978,1
1779865104.703582,2011,1960,1
1779865104.7036312,2084,1950,1
1779865104.70367,2139,1957,1
1779865104.7037592,2091,2027,1
1779865104.703825,1993,2124,1
1779865104.7038631,1991,1913,1
1779865104.703902,1986,1975,1
1779865104.703938,1998,2114,1
1779865104.703975,2013,2056,1
1779865104.704122,2406,1893,1
1779865104.704215,2401,2061,1
1779865104.704291,1820,2142,1
1779865104.7043571,1709,2054,1
1779865104.704423,1969,2012,1
1779865104.704486,1951,1928,1
1779865104.704555,1932,1879,1
1779865104.7046242,1853,1848,1
1779865104.704694,1886,2014,1
1779865104.704764,2144,1845,1
1779865104.704854,2351,1948,1
1779865104.704895,2095,1859,1
1779865104.704934,1920,2001,1
1779865104.704972,2148,1854,1
1779865104.705009,2264,1826,1
1779865104.7050471,2065,1788,1
1779865104.705106,1682,1974,1
1779865104.705172,1880,1889,1
1779865104.7052102,2007,1805,1
1779865104.706516,1857,2015,1
1779865104.709471,1747,2191,1
1779865104.712381,1859,2010,1
1779865104.7124732,2117,1785,1
1779865104.715168,2488,1941,1
1779865104.716534,1864,2161,1
1779865104.717958,1784,2088,1
1779865104.7239318,2107,1914,1
1779865104.7250829,2038,1907,1
1779865104.7256289,1838,2131,1
1779865104.728478,1943,1985,1
1779865104.730168,1981,1782,1
1779865104.730348,2055,1800,1
1779865104.734397,2014,1718,1
1779865104.734598,2001,1785,1
1779865104.7366168,2081,1748,1
1779865104.7379699,2098,1821,1
1779865104.7404852,2119,1823,1
1779865104.745398,2087,1848,1
1779865104.746558,2081,1829,1
1779865104.7480729,2102,1748,1
1779865104.7482061,1970,2024,1
1779865104.751171,1934,1995,1
1779865104.753858,2162,1937,1
1779865104.756325,2171,1989,1
1779865104.756602,1942,2155,1
1779865104.759237,1949,2072,1
1779865104.760555,2084,2005,1
1779865104.7650938,2196,2018,1
1779865104.765919,2339,1993,1
1779865104.766474,2198,1871,1
1779865104.768437,1891,1972,1
1779865104.771327,1747,1914,1
1779865104.774019,1804,1964,1
1779865104.774254,2128,2017,1
1779865104.776565,1964,1958,1
1779865104.779092,1900,1977,1
1779865104.7803981,1831,1882,1
1779865104.785845,2064,1974,1
1779865104.786716,2081,2357,1
1779865104.78752,1954,2086,1
1779865104.789004,1993,2186,1
1779865104.794527,2403,2188,1
1779865104.794817,2329,2361,1
1779865104.79503,2133,2157,1
1779865104.797247,1764,2008,1
1779865104.7985668,1737,1981,1
1779865104.801135,2122,1931,1
1779865104.802437,2015,2070,1
1779865104.806515,1865,2036,1
1779865104.806955,1891,1994,1
1779865104.809068,1912,2261,1
1779865104.812039,2164,2051,1
1779865104.8148239,2071,2258,1
1779865104.8150752,1863,2128,1
1779865104.81723,2090,2164,1
1779865104.8185349,2075,2182,1
1779865104.821107,1999,2020,1
1779865104.8224819,1962,2163,1
1779865104.826859,1964,2134,1
1779865104.8269491,2034,2137,1
1779865104.828973,2088,2072,1
1779865104.830368,2043,2089,1
1779865104.834527,2101,2125,1
1779865104.834646,2221,1989,1
1779865104.8367941,2188,2151,1
1779865104.838114,2162,2258,1
1779865104.8407302,1869,2258,1
1779865104.842071,1919,2124,1
1779865104.846509,2010,2064,1
1779865104.847753,2146,2046,1
1779865104.8494022,1913,2103,1
1779865104.851137,1909,2098,1
1779865104.854958,2044,2064,1
1779865104.8550668,2014,2064,1
1779865104.857225,1936,2137,1
1779865104.8585339,1957,2293,1
1779865104.860044,1993,2107,1
1779865104.862613,2035,2121,1
1779865104.8669188,2044,2168,1
1779865104.867757,2006,2187,1
1779865104.8685608,2193,2181,1
1779865104.871642,2027,2064,1
1779865104.875484,1954,2133,1
1779865104.875624,1932,2136,1
1779865104.878103,2189,1912,1
1779865104.878148,2237,1778,1
1779865104.880585,2032,1982,1
1779865104.88189,1917,1965,1
1779865104.8878982,2079,2070,1
1779865104.888763,2198,2156,1
1779865104.890605,1965,2307,1
1779865104.89081,2023,2150,1
1779865104.896492,1931,2187,1
1779865104.896829,1817,2147,1
1779865104.897015,1996,1946,1
1779865104.899165,2005,1844,1
1779865104.9006789,2008,1919,1
1779865104.901999,2098,1689,1
1779865104.904595,1991,1748,1
1779865104.9090712,1916,1785,1
1779865104.909518,1979,1873,1
1779865104.912058,2116,1822,1
1779865104.913451,2178,1987,1
1779865104.915075,2087,2141,1
1779865104.9180238,1995,2161,1
1779865104.9181921,2086,2047,1
1779865104.9206212,2041,2131,1
1779865104.921943,2031,2292,1
1779865104.9246268,1916,2300,1
1779865104.925984,2076,2155,1
1779865104.929804,2085,2182,1
1779865104.930348,2033,2227,1
1779865104.932898,2364,2110,1
1779865104.936005,2174,2136,1
1779865104.938833,1846,2062,1
1779865104.93907,1865,2072,1
1779865104.941431,1929,2057,1
1779865104.942739,2090,2129,1
1779865104.944043,2225,2125,1
1779865104.9499068,2119,2068,1
1779865104.950451,1810,2101,1
1779865104.951248,1916,1991,1
1779865104.954529,2038,2088,1
1779865104.955442,2142,2207,1
1779865104.959598,2051,2307,1
1779865104.959827,2016,2420,1
1779865104.960072,2020,2346,1
1779865104.9625,2029,2206,1
1779865104.96509,2029,2232,1
1779865104.9663942,2021,2185,1
1779865104.973185,2111,2152,1
1779865104.974933,2101,2047,1
1779865104.975189,2048,2123,1
1779865104.975431,1998,2215,1
1779865104.9771168,2088,2036,1
1779865104.98119,2095,2151,1
1779865104.981664,2027,2111,1
1779865104.98336,1979,2128,1
1779865104.9846752,2087,2168,1
1779865104.986018,2140,2167,1
1779865104.988714,2074,2209,1
1779865104.993845,1972,2205,1
1779865104.996607,2017,2089,1
1779865104.9985778,2037,2079,1
1779865104.99982,2060,1942,1
1779865105.002644,2061,1978,1
1779865105.003021,2036,2019,1
1779865105.003273,2030,1886,1
1779865105.005516,2019,2003,1
1779865105.0068731,1990,2156,1
1779865105.008184,2017,2134,1
1779865105.010745,2065,2035,1
1779865105.014657,2052,2018,1
1779865105.017232,2079,1966,1
1779865105.017437,2081,2080,1
1779865105.0204248,2132,2098,1
1779865105.023705,2167,2087,1
1779865105.0240488,1989,2218,1
1779865105.02607,1961,2213,1
1779865105.0262709,2023,2138,1
1779865105.0279932,2043,2099,1
1779865105.0307531,2104,2127,1
1779865105.032028,1986,2231,1
1779865105.0406861,2009,2211,1
1779865105.041677,2006,2148,1
1779865105.0428932,1977,2138,1
1779865105.04304,1924,2268,1
1779865105.04585,2025,2278,1
1779865105.04621,2071,2256,1
1779865105.048386,2047,2213,1
1779865105.048598,2002,2171,1
1779865105.049907,2039,2198,1
1779865105.052305,2035,2119,1
1779865105.059272,2051,2162,1
1779865105.060674,1999,2107,1
1779865105.060817,2028,2185,1
1779865105.061066,2170,2166,1
1779865105.063793,2102,2156,1
1779865105.066561,2035,2173,1
1779865105.0668328,1947,2093,1
1779865105.069358,2050,1836,1
1779865105.0707068,2125,1844,1
1779865105.072172,2078,2030,1
1779865105.074827,1952,2083,1
1779865105.081162,1961,1893,1
1779865105.082609,1974,1768,1
1779865105.084136,2042,2012,1
1779865105.087306,2003,2129,1
1779865105.087434,2062,2152,1
1779865105.08785,2029,2073,1
1779865105.088116,1964,2135,1
1779865105.090975,1950,2187,1
1779865105.092404,2036,2161,1
1779865105.093914,2095,2095,1
1779865105.099701,2123,2109,1
1779865105.100215,2041,2025,1
1779865105.102519,2014,1997,1
1779865105.102832,2058,2004,1
1779865105.1043,2103,2082,1
1779865105.108531,2106,2243,1
1779865105.109138,2101,2277,1
1779865105.111549,2210,2115,1
1779865105.112962,2244,2127,1
1779865105.114182,2200,2178,1
1779865105.121129,2087,2152,1
1779865105.123608,2120,2136,1
1779865105.123858,2171,2221,1
1779865105.125633,2070,2322,1
1779865105.1269062,1978,2305,1
1779865105.127149,2056,2281,1
1779865105.132201,2050,2214,1
1779865105.132247,2042,2232,1
1779865105.13235,2079,2230,1
1779865105.1349409,2120,2220,1
1779865105.136263,2094,2272,1
1779865105.141284,2080,2513,1
1779865105.1417348,1974,2403,1
1779865105.142575,1926,2248,1
1779865105.145424,2087,2189,1
1779865105.150244,2122,2159,1
1779865105.15044,1973,2119,1
1779865105.150692,1949,1967,1
1779865105.152879,2016,1967,1
1779865105.154198,1965,1842,1
1779865105.156798,2005,1928,1
1779865105.158138,1988,1917,1
1779865105.1623008,2007,1736,1
1779865105.163028,2066,1657,1
1779865105.164546,2092,1873,1
1779865105.167377,2063,1885,1
1779865105.17042,2114,1971,1
