timestamp,ch1,ch2,label
1779865514.366226,148,1930,7_S
1779865514.366286,2105,1931,7_S
1779865514.370304,2014,2081,7_S
1779865514.371548,2078,2185,7_S
1779865514.374068,2057,1999,7_S
1779865514.375681,2068,1953,7_S
1779865514.378231,2102,2020,7_S
1779865514.378459,2021,2045,7_S
1779865514.3830101,2134,2003,7_S
1779865514.3832462,2065,1988,7_S
1779865514.383447,1988,2137,7_S
1779865514.384919,1989,2242,7_S
1779865514.387549,2105,2121,7_S
1779865514.388992,2092,2030,7_S
1779865514.395183,2111,2021,7_S
1779865514.4033148,2073,2098,7_S
1779865514.404641,2081,2055,7_S
1779865514.405925,2104,1975,7_S
1779865514.409333,2038,2087,7_S
1779865514.409494,1952,2195,7_S
1779865514.409663,2026,2169,7_S
1779865514.4098089,2063,2059,7_S
1779865514.409962,2105,2008,7_S
1779865514.4101539,2076,2125,7_S
1779865514.4116852,2017,2111,7_S
1779865514.413245,2105,1977,7_S
1779865514.415964,2070,1982,7_S
1779865514.426628,1976,2109,7_S
1779865514.427159,1978,2271,7_S
1779865514.4336388,2106,2155,7_S
1779865514.434462,2115,2029,7_S
1779865514.4379442,2076,2025,7_S
1779865514.438056,2060,2124,7_S
1779865514.438217,2139,2088,7_S
1779865514.438381,2071,2070,7_S
1779865514.438869,1986,2148,7_S
1779865514.439141,1983,2230,7_S
1779865514.4394891,2073,2121,7_S
1779865514.4395509,2097,2072,7_S
1779865514.4409559,2081,2023,7_S
1779865514.4512918,2021,2080,7_S
1779865514.455019,2069,2042,7_S
1779865514.45799,2073,2001,7_S
1779865514.4583821,2039,2094,7_S
1779865514.4586391,2018,2175,7_S
1779865514.458743,2025,2166,7_S
1779865514.4588318,2062,2053,7_S
1779865514.458884,2102,2026,7_S
1779865514.459006,2049,2036,7_S
1779865514.4616241,2102,2070,7_S
1779865514.4630132,2092,2028,7_S
1779865514.4844532,2007,2077,7_S
1779865514.484656,1956,2180,7_S
1779865514.487815,1981,2271,7_S
1779865514.5079591,2056,2104,7_S
1779865514.50806,2085,2069,7_S
1779865514.508131,2084,2025,7_S
1779865514.508194,2021,2077,7_S
1779865514.508255,2098,2066,7_S
1779865514.508318,2068,2018,7_S
1779865514.5088599,2019,2143,7_S
1779865514.508933,2003,2276,7_S
1779865514.508996,2066,2203,7_S
1779865514.509056,2114,2077,7_S
1779865514.509116,2099,2002,7_S
1779865514.5091782,2037,2049,7_S
1779865514.509238,2106,2092,7_S
1779865514.509299,2145,2019,7_S
1779865514.5093582,2026,2096,7_S
1779865514.509482,1960,2150,7_S
1779865514.509609,1984,2134,7_S
1779865514.5097501,2131,2013,7_S
1779865514.509923,2103,2046,7_S
1779865514.510189,2039,2099,7_S
1779865514.511869,2009,2082,7_S
1779865514.513408,2096,2037,7_S
1779865514.521633,2084,2110,7_S
1779865514.524736,1989,2203,7_S
1779865514.5266402,1980,2200,7_S
1779865514.5300128,2069,2083,7_S
1779865514.535368,2071,2051,7_S
1779865514.535871,2097,2067,7_S
1779865514.535972,2067,2059,7_S
1779865514.536041,2125,1993,7_S
1779865514.536155,2090,2003,7_S
1779865514.5362759,2014,2081,7_S
1779865514.536334,1967,2242,7_S
1779865514.537668,2082,2122,7_S
1779865514.545025,2114,2033,7_S
1779865514.550401,2113,2074,7_S
1779865514.554165,2039,2111,7_S
1779865514.554555,2060,2041,7_S
1779865514.554847,2068,1976,7_S
1779865514.558432,1998,2091,7_S
1779865514.558888,1993,2243,7_S
1779865514.559149,2043,2201,7_S
1779865514.559262,2075,2053,7_S
1779865514.5593228,2067,1994,7_S
1779865514.5594182,2054,1993,7_S
1779865514.562135,2052,2070,7_S
1779865514.563586,2128,2029,7_S
1779865514.564918,2107,2083,7_S
1779865514.571237,2036,2161,7_S
1779865514.5751,1994,2238,7_S
1779865514.579226,2099,2074,7_S
1779865514.586602,2111,2027,7_S
1779865514.586733,2106,2027,7_S
1779865514.595974,2032,2136,7_S
1779865514.602253,2067,2003,7_S
1779865514.603006,2096,1960,7_S
1779865514.606185,2045,2113,7_S
1779865514.606473,1971,2292,7_S
1779865514.606657,2068,2164,7_S
1779865514.606913,2105,2060,7_S
1779865514.607157,2118,2001,7_S
1779865514.607349,2071,2073,7_S
1779865514.607434,2076,2041,7_S
1779865514.607501,2095,2047,7_S
1779865514.60763,2055,2125,7_S
1779865514.607788,2006,2195,7_S
1779865514.607876,2066,2169,7_S
1779865514.607933,2081,2072,7_S
1779865514.6079879,2072,1982,7_S
1779865514.6093922,2062,2027,7_S
1779865514.612024,2068,2054,7_S
1779865514.6226401,2120,1932,7_S
1779865514.629302,2056,2020,7_S
1779865514.6300092,2009,2080,7_S
1779865514.634944,1984,2121,7_S
1779865514.635082,2191,1918,7_S
1779865514.635148,2253,1920,7_S
1779865514.6352031,2582,1736,7_S
1779865514.635256,2179,2144,7_S
1779865514.635373,2131,1968,7_S
1779865514.635436,2021,1832,7_S
1779865514.635583,1941,2076,7_S
1779865514.6356359,2081,2151,7_S
1779865514.6370401,2379,2099,7_S
1779865514.648243,1817,2059,7_S
1779865514.653135,1912,1898,7_S
1779865514.653543,2146,1973,7_S
1779865514.659303,2122,2106,7_S
1779865514.6595352,1981,2052,7_S
1779865514.659605,2142,1957,7_S
1779865514.65966,1975,2281,7_S
1779865514.659761,1926,2141,7_S
1779865514.65986,2528,1943,7_S
1779865514.659922,2071,2035,7_S
1779865514.6600409,1863,2206,7_S
1779865514.66138,2015,1984,7_S
1779865514.6638458,2156,1891,7_S
1779865514.666186,2627,1929,7_S
1779865514.684852,1780,2470,7_S
1779865514.690529,1493,2316,7_S
1779865514.690902,2205,1986,7_S
1779865514.69096,2258,2138,7_S
1779865514.691164,2296,1979,7_S
1779865514.691265,1839,2218,7_S
1779865514.691537,1937,1929,7_S
1779865514.6916292,2065,1817,7_S
1779865514.691699,2027,2119,7_S
1779865514.6917682,1962,2274,7_S
1779865514.692091,1646,2261,7_S
1779865514.692489,2050,1987,7_S
1779865514.700515,2126,2086,7_S
1779865514.812663,1841,2207,7_S
1779865514.814164,1781,2159,7_S
1779865514.8145542,2058,2097,7_S
1779865514.8146188,2307,2101,7_S
1779865514.8147662,2220,2262,7_S
1779865514.8154109,2097,2199,7_S
1779865514.8154712,2180,1924,7_S
1779865514.815525,2168,2020,7_S
1779865514.81558,1804,2077,7_S
1779865514.8156319,1950,2089,7_S
1779865514.8156831,2269,2003,7_S
1779865514.815734,2155,2111,7_S
1779865514.815785,2028,2230,7_S
1779865514.815841,1943,2252,7_S
1779865514.8159769,2149,2091,7_S
1779865514.816143,2293,1907,7_S
1779865514.816405,2231,1960,7_S
1779865514.816457,2116,2145,7_S
1779865514.8165078,2745,1929,7_S
1779865514.8165572,2422,2022,7_S
1779865514.817139,1652,2168,7_S
1779865514.817199,1644,2258,7_S
1779865514.817248,1981,2166,7_S
1779865514.817297,2021,2047,7_S
1779865514.817355,2070,1991,7_S
1779865514.8174038,2118,2082,7_S
1779865514.817455,1916,2228,7_S
1779865514.817503,2046,2000,7_S
1779865514.8175519,2045,2198,7_S
1779865514.8176,2029,2164,7_S
1779865514.8178098,2147,2221,7_S
1779865514.817863,2242,2121,7_S
1779865514.817913,2455,2039,7_S
1779865514.817961,2088,2140,7_S
1779865514.8180811,2207,2111,7_S
1779865514.8450692,2034,2079,7_S
1779865514.8538518,1719,2042,7_S
1779865514.85402,2327,2069,7_S
1779865514.854083,2404,1990,7_S
1779865514.895263,1847,2204,7_S
1779865514.895443,1980,1945,7_S
1779865514.8955321,1966,2002,7_S
1779865514.895608,1860,2081,7_S
1779865514.895689,1967,2024,7_S
1779865514.895755,2043,1994,7_S
1779865514.895822,1986,2103,7_S
1779865514.8959239,1922,2298,7_S
1779865514.895992,2011,2156,7_S
1779865514.8960571,2287,2019,7_S
1779865514.8961542,2146,2128,7_S
1779865514.896225,2024,2049,7_S
1779865514.8962939,2319,1912,7_S
1779865514.89636,2280,1994,7_S
1779865514.896425,2180,2137,7_S
1779865514.89649,2125,2197,7_S
1779865514.896557,2097,2079,7_S
1779865514.896706,1981,2209,7_S
1779865514.896787,1935,2178,7_S
1779865514.896849,2142,2041,7_S
1779865514.896908,1941,2118,7_S
1779865514.896966,2213,1953,7_S
1779865514.897578,2897,1917,7_S
1779865514.897648,1386,2381,7_S
1779865514.897891,1819,2071,7_S
1779865514.898587,2182,2087,7_S
1779865514.901626,2124,1940,7_S
1779865514.90176,2119,1869,7_S
1779865514.9021,1924,2022,7_S
1779865514.90238,2056,1908,7_S
1779865514.9027982,1902,2042,7_S
1779865514.902881,1753,2066,7_S
1779865514.902967,1998,2145,7_S
1779865514.90314,2202,2057,7_S
1779865514.90322,2596,2042,7_S
1779865514.903353,2505,1729,7_S
1779865514.903421,2171,2222,7_S
1779865514.903489,1958,2137,7_S
1779865514.903554,1784,2034,7_S
1779865514.9036229,2084,2102,7_S
1779865514.903699,2681,1936,7_S
1779865514.90385,2343,2152,7_S
1779865514.903921,2022,2203,7_S
1779865514.903991,1561,2291,7_S
1779865514.90416,1498,1965,7_S
1779865514.904234,2128,1835,7_S
1779865514.9042869,2150,1977,7_S
1779865514.904337,1819,2047,7_S
1779865514.904554,2287,1948,7_S
1779865514.9046211,2609,2106,7_S
1779865514.904765,2804,1755,7_S
1779865514.904963,1898,2076,7_S
1779865514.9050372,1496,1963,7_S
1779865514.9051032,2425,1946,7_S
1779865514.905167,2117,1956,7_S
1779865514.905229,1629,2054,7_S
1779865514.905288,1577,2156,7_S
1779865514.905631,1439,2349,7_S
1779865514.905803,1907,2097,7_S
1779865514.905855,2104,1870,7_S
1779865514.9059641,2247,1910,7_S
1779865514.9060428,3295,1703,7_S
1779865514.906092,2240,1896,7_S
1779865514.90625,1643,1867,7_S
1779865514.906306,2389,1819,7_S
1779865514.9064,2629,1978,7_S
1779865514.906455,3072,1860,7_S
1779865514.906605,1197,2281,7_S
1779865514.908566,1981,1678,7_S
1779865514.911048,2154,1974,7_S
1779865514.911113,1293,2058,7_S
1779865514.9139042,1254,1704,7_S
1779865514.9155462,1562,1727,7_S
1779865514.930978,2115,1957,7_S
1779865514.9365351,2038,2062,7_S
1779865514.9372249,2023,1858,7_S
1779865514.941599,1734,2034,7_S
1779865514.942132,2009,1575,7_S
1779865514.942819,2853,1792,7_S
1779865514.94296,3149,1892,7_S
1779865514.943019,2592,1964,7_S
1779865514.9431942,2817,2090,7_S
1779865514.943257,1804,2110,7_S
1779865514.9433138,1468,1990,7_S
1779865514.943365,1720,1836,7_S
1779865514.943417,1509,2130,7_S
1779865514.943467,1364,2085,7_S
1779865514.955088,1863,1849,7_S
1779865514.95983,2208,1847,7_S
1779865514.9626791,2288,1816,7_S
1779865514.966281,1887,1959,7_S
1779865514.9678028,3588,1574,7_S
1779865514.96789,1686,2128,7_S
1779865514.967958,1360,1825,7_S
1779865514.968022,3020,1582,7_S
1779865514.9680839,3001,2321,7_S
1779865514.968307,2227,2023,7_S
1779865514.968537,1732,2094,7_S
1779865514.968668,1223,2196,7_S
1779865514.96885,1552,2268,7_S
1779865514.971634,2325,1925,7_S
1779865514.972998,2751,1996,7_S
1779865514.9892612,2687,1638,7_S
1779865514.994891,2491,1950,7_S
1779865514.999191,2017,1855,7_S
1779865514.999326,2124,1735,7_S
1779865514.999516,2292,1972,7_S
1779865515.000414,1956,1849,7_S
1779865515.0007691,2103,1883,7_S
1779865515.010956,2216,2013,7_S
1779865515.011109,2194,1868,7_S
1779865515.017417,2155,1861,7_S
1779865515.027752,2233,2007,7_S
1779865515.0279732,2316,1836,7_S
1779865515.028269,2313,1825,7_S
1779865515.028467,2355,2182,7_S
1779865515.028587,2288,2291,7_S
1779865515.0287008,2266,2147,7_S
1779865515.028779,2287,1989,7_S
1779865515.028859,2291,2039,7_S
1779865515.028966,2202,2065,7_S
1779865515.029023,2325,1985,7_S
1779865515.029131,2236,2159,7_S
1779865515.029205,2099,2081,7_S
1779865515.029273,2360,2096,7_S
1779865515.029359,2256,2114,7_S
1779865515.0296881,2289,2115,7_S
1779865515.029799,2185,2073,7_S
1779865515.0298738,2121,2193,7_S
1779865515.030047,1903,2067,7_S
1779865515.031692,1979,2147,7_S
1779865515.033103,2193,2258,7_S
1779865515.045333,2321,2592,7_S
1779865515.045723,2240,2335,7_S
1779865515.0506449,2162,2311,7_S
1779865515.0507479,2274,2187,7_S
1779865515.0542662,2118,2180,7_S
1779865515.059177,2259,2230,7_S
1779865515.059455,2129,2037,7_S
1779865515.05953,1863,2328,7_S
1779865515.059649,2062,2254,7_S
1779865515.059768,2179,2254,7_S
1779865515.059835,1924,2150,7_S
1779865515.059927,1777,2326,7_S
1779865515.059993,1943,2001,7_S
1779865515.062258,2378,2394,7_S
1779865515.0723462,1928,2212,7_S
1779865515.075618,2143,2134,7_S
1779865515.077873,1838,2804,7_S
1779865515.08496,1797,2824,7_S
1779865515.0859818,2166,2447,7_S
1779865515.086081,1771,2100,7_S
1779865515.0862331,2191,2223,7_S
1779865515.0865521,2100,2364,7_S
1779865515.086644,2248,2371,7_S
1779865515.086762,2317,2044,7_S
1779865515.086848,1991,2020,7_S
1779865515.0869179,1631,2577,7_S
1779865515.08699,1953,2653,7_S
1779865515.090731,1889,2392,7_S
1779865515.0910149,2019,2475,7_S
1779865515.093732,1975,2440,7_S
1779865515.101184,2094,2663,7_S
1779865515.105334,1774,2494,7_S
1779865515.108938,1738,2443,7_S
1779865515.114499,1953,2546,7_S
1779865515.118583,1988,2727,7_S
1779865515.118804,2289,2681,7_S
1779865515.119144,1919,2473,7_S
1779865515.119445,1792,2200,7_S
1779865515.119533,1744,2323,7_S
1779865515.1197078,2323,2435,7_S
1779865515.119786,2403,2737,7_S
1779865515.119842,2417,2585,7_S
1779865515.119927,2046,2475,7_S
1779865515.121727,2052,2276,7_S
1779865515.129573,2138,2227,7_S
1779865515.13494,2025,2203,7_S
1779865515.140689,2134,2715,7_S
1779865515.141727,2435,2515,7_S
1779865515.142046,1486,2238,7_S
1779865515.142427,1311,2357,7_S
1779865515.144958,1884,2679,7_S
1779865515.1459231,2443,3193,7_S
1779865515.146101,1897,2770,7_S
1779865515.146167,1454,2701,7_S
1779865515.1462998,1909,2811,7_S
1779865515.1465101,2531,3035,7_S
1779865515.1466932,2722,2903,7_S
1779865515.1494122,2145,2679,7_S
1779865515.151587,1674,2589,7_S
1779865515.152979,2027,3050,7_S
1779865515.161003,2424,2839,7_S
1779865515.161695,2322,2594,7_S
1779865515.165746,2110,2450,7_S
1779865515.170214,1455,2339,7_S
1779865515.176304,1970,2393,7_S
1779865515.176805,1820,2650,7_S
1779865515.177084,1762,2404,7_S
1779865515.180228,1943,2295,7_S
1779865515.18123,1831,2002,7_S
1779865515.18131,2212,2156,7_S
1779865515.181376,1885,2131,7_S
1779865515.18144,2003,2084,7_S
1779865515.181504,2041,2134,7_S
1779865515.1815932,2080,1921,7_S
1779865515.183061,2090,1830,7_S
1779865515.190763,2045,2088,7_S
1779865515.194039,2033,2052,7_S
1779865515.196357,1797,1829,7_S
1779865515.199352,1767,1845,7_S
1779865515.2040682,1903,1649,7_S
1779865515.2074292,2294,1574,7_S
1779865515.2075,2687,934,7_S
1779865515.207554,2787,1469,7_S
1779865515.207605,2352,1949,7_S
1779865515.207655,2451,1973,7_S
1779865515.207707,1955,1660,7_S
1779865515.2077608,1318,1845,7_S
1779865515.20911,1509,1659,7_S
1779865515.2118652,2704,1244,7_S
1779865515.213226,2450,1578,7_S
1779865515.224593,2811,973,7_S
1779865515.227795,3330,1586,7_S
1779865515.234627,3732,1746,7_S
1779865515.238827,1420,1840,7_S
1779865515.238899,2019,2321,7_S
1779865515.239285,1388,1959,7_S
1779865515.239372,984,2494,7_S
1779865515.239459,1701,2258,7_S
1779865515.2396421,1701,2060,7_S
1779865515.239837,1511,2346,7_S
1779865515.2398899,2874,1930,7_S
1779865515.24014,1350,2884,7_S
1779865515.2404292,1918,2053,7_S
1779865515.241904,3061,1546,7_S
1779865515.260819,3568,1924,7_S
1779865515.261447,1739,2210,7_S
1779865515.261968,489,2208,7_S
1779865515.26227,2300,1317,7_S
1779865515.26269,1429,2532,7_S
1779865515.2662258,0,2893,7_S
1779865515.2665799,492,2386,7_S
1779865515.2666829,2076,1682,7_S
1779865515.266786,3172,1765,7_S
1779865515.26688,2771,2024,7_S
1779865515.266952,2917,1839,7_S
1779865515.267019,3077,2240,7_S
1779865515.267083,3371,1016,7_S
1779865515.2699242,301,3558,7_S
1779865515.271231,1036,2215,7_S
1779865515.272641,1338,1640,7_S
1779865515.288576,2151,1467,7_S
1779865515.294915,1557,2196,7_S
1779865515.295167,853,2159,7_S
1779865515.295323,1527,1995,7_S
1779865515.295559,1546,2323,7_S
1779865515.296027,2159,2075,7_S
1779865515.2964559,1907,1976,7_S
1779865515.2966552,2333,1561,7_S
1779865515.2998111,2837,1508,7_S
1779865515.29994,2749,1797,7_S
1779865515.300448,2066,2064,7_S
1779865515.300579,1376,1971,7_S
1779865515.300692,1356,1910,7_S
1779865515.300761,1720,1984,7_S
1779865515.308544,2165,1976,7_S
1779865515.3092911,2413,1684,7_S
1779865515.310466,2424,1591,7_S
1779865515.31741,2217,1677,7_S
1779865515.321663,1991,1898,7_S
1779865515.322165,1765,2003,7_S
1779865515.324424,1658,2048,7_S
1779865515.3245802,1852,2293,7_S
1779865515.325475,1799,2396,7_S
1779865515.3255339,2212,2280,7_S
1779865515.325581,2310,2184,7_S
1779865515.325631,2169,2339,7_S
1779865515.3268821,2068,2544,7_S
1779865515.329516,1945,2401,7_S
1779865515.330844,1901,2319,7_S
1779865515.3372061,1880,2406,7_S
1779865515.340837,1925,2227,7_S
1779865515.3411682,2086,2010,7_S
1779865515.341405,2186,1864,7_S
1779865515.349864,2212,1840,7_S
1779865515.35373,2072,1873,7_S
1779865515.354065,2035,1874,7_S
1779865515.354126,1968,1763,7_S
1779865515.354176,1910,1842,7_S
1779865515.354223,1916,2078,7_S
1779865515.3542678,2021,2105,7_S
1779865515.3556511,2089,1922,7_S
1779865515.360752,2085,1827,7_S
1779865515.361365,2084,1860,7_S
1779865515.363294,2024,2059,7_S
1779865515.365319,2055,1976,7_S
1779865515.368315,2028,2064,7_S
1779865515.370209,1935,2255,7_S
1779865515.374027,1925,2356,7_S
1779865515.374558,2007,2139,7_S
1779865515.374851,2112,2045,7_S
1779865515.375016,2118,2029,7_S
1779865515.377834,2076,2188,7_S
1779865515.379232,2025,2115,7_S
1779865515.380594,2044,2060,7_S
1779865515.383392,1945,2200,7_S
1779865515.38858,1922,2326,7_S
1779865515.392288,1989,2259,7_S
1779865515.392462,2066,2180,7_S
1779865515.392742,2053,2065,7_S
1779865515.392977,1987,2114,7_S
1779865515.400554,1990,2189,7_S
1779865515.401195,2080,2086,7_S
1779865515.4014049,2041,2173,7_S
1779865515.403905,1937,2364,7_S
1779865515.40479,1915,2265,7_S
1779865515.4048572,2015,2178,7_S
1779865515.411784,2134,2062,7_S
1779865515.4123561,2043,2100,7_S
1779865515.412965,1968,2198,7_S
1779865515.413669,2018,2125,7_S
1779865515.4198961,2001,2030,7_S
1779865515.423893,1987,2164,7_S
1779865515.4242802,1982,2379,7_S
1779865515.424609,2049,2090,7_S
1779865515.427522,2057,1966,7_S
1779865515.42784,2080,2030,7_S
1779865515.4278982,1989,2206,7_S
1779865515.429215,2090,2080,7_S
1779865515.430614,2074,2098,7_S
1779865515.433168,1984,2179,7_S
1779865515.442195,1955,2304,7_S
1779865515.4424121,2057,2248,7_S
1779865515.442678,2074,2112,7_S
1779865515.444576,2022,2103,7_S
1779865515.450559,2032,2148,7_S
1779865515.4512079,2052,2137,7_S
1779865515.454072,2071,1962,7_S
1779865515.4543848,2033,2092,7_S
1779865515.454488,1976,2242,7_S
1779865515.45457,1924,2235,7_S
1779865515.454637,2075,1943,7_S
1779865515.461257,2164,1883,7_S
1779865515.462288,2203,1900,7_S
1779865515.4724102,2119,1980,7_S
1779865515.472882,2105,1897,7_S
1779865515.476135,2091,1943,7_S
1779865515.476224,2077,2081,7_S
1779865515.476276,2033,2226,7_S
1779865515.476322,2089,2105,7_S
1779865515.476367,2076,2065,7_S
1779865515.476413,2066,2018,7_S
1779865515.476523,2042,2056,7_S
1779865515.479118,2140,1879,7_S
1779865515.480522,2107,1622,7_S
1779865515.49158,2040,1673,7_S
1779865515.4917681,1957,1872,7_S
1779865515.492084,2081,1854,7_S
1779865515.494617,2083,1744,7_S
1779865515.49616,2104,1711,7_S
1779865515.496431,2123,1825,7_S
1779865515.5037482,2050,1838,7_S
1779865515.504019,2069,1877,7_S
1779865515.504077,2033,2023,7_S
1779865515.504128,1970,2204,7_S
1779865515.5041752,1989,2191,7_S
1779865515.505755,2081,1979,7_S
1779865515.511872,2116,1946,7_S
1779865515.512942,2079,2065,7_S
1779865515.5148969,2042,2056,7_S
1779865515.522656,2140,1976,7_S
1779865515.52321,2092,1944,7_S
1779865515.525983,2060,2084,7_S
1779865515.526224,1990,2188,7_S
1779865515.526294,2052,1989,7_S
1779865515.5263538,2045,1861,7_S
1779865515.526489,2037,1832,7_S
1779865515.526599,1989,1901,7_S
1779865515.52921,2027,1936,7_S
1779865515.53056,2048,1951,7_S
1779865515.5413408,2033,2153,7_S
1779865515.541599,2007,2352,7_S
1779865515.541881,2079,2267,7_S
1779865515.543332,2023,2100,7_S
1779865515.545749,2027,2013,7_S
1779865515.552932,2005,2114,7_S
1779865515.553313,2054,2208,7_S
1779865515.5533981,2071,2029,7_S
1779865515.553524,2000,2089,7_S
1779865515.553586,1975,2160,7_S
1779865515.5536342,1947,2109,7_S
1779865515.555073,2044,1899,7_S
1779865515.560909,2075,1830,7_S
1779865515.561076,2039,1928,7_S
1779865515.561716,2037,1989,7_S
1779865515.571875,2103,1872,7_S
1779865515.572505,2110,2023,7_S
1779865515.575547,2056,2151,7_S
1779865515.5756102,1972,2179,7_S
1779865515.575658,2039,2032,7_S
1779865515.575704,2099,1932,7_S
1779865515.5757482,2123,2075,7_S
1779865515.5770838,2051,2163,7_S
1779865515.579679,2059,2046,7_S
1779865515.581136,2062,1937,7_S
1779865515.5875049,2003,2074,7_S
1779865515.588074,1967,2259,7_S
1779865515.588598,2023,2171,7_S
1779865515.590799,2078,2062,7_S
1779865515.592724,2094,1970,7_S
1779865515.594879,2095,2036,7_S
1779865515.599154,2060,2073,7_S
1779865515.599781,2113,2000,7_S
1779865515.602047,2074,2041,7_S
1779865515.603046,2014,2215,7_S
1779865515.603155,1914,2302,7_S
1779865515.604518,2066,2144,7_S
1779865515.6111329,2094,2139,7_S
1779865515.6136,2102,2109,7_S
1779865515.61536,2036,2186,7_S
1779865515.6181839,2077,2113,7_S
1779865515.621977,2114,2095,7_S
1779865515.6253471,2005,2231,7_S
1779865515.625679,1946,2379,7_S
1779865515.6257422,2029,2165,7_S
1779865515.625791,2042,1984,7_S
1779865515.625837,2078,2139,7_S
1779865515.6271732,1990,2114,7_S
1779865515.6285372,2013,2106,7_S
1779865515.631395,2017,2048,7_S
1779865515.638562,2047,2171,7_S
1779865515.640769,1928,2310,7_S
1779865515.6431308,1973,2361,7_S
1779865515.6447308,2119,2160,7_S
1779865515.6488729,2165,2029,7_S
1779865515.652483,2099,2053,7_S
1779865515.652631,1993,2188,7_S
1779865515.652755,2038,2041,7_S
1779865515.652838,1930,2067,7_S
1779865515.652906,1885,2226,7_S
1779865515.652971,2045,2235,7_S
1779865515.660827,2198,2171,7_S
1779865515.661418,2070,2069,7_S
1779865515.663342,1912,1954,7_S
1779865515.665795,1998,2022,7_S
1779865515.667806,2064,1908,7_S
1779865515.67209,2116,1925,7_S
1779865515.6724439,2001,2065,7_S
1779865515.675097,1891,2149,7_S
1779865515.6753001,2019,2028,7_S
1779865515.6753511,2069,1906,7_S
1779865515.6753972,2081,1841,7_S
1779865515.67676,2080,2055,7_S
1779865515.679349,2148,1944,7_S
1779865515.680547,2083,1839,7_S
1779865515.686615,2014,1887,7_S
1779865515.687687,1999,2130,7_S
1779865515.692003,2070,1855,7_S
1779865515.692203,2073,1793,7_S
1779865515.694217,2025,1832,7_S
1779865515.700886,2078,1971,7_S
1779865515.701173,2103,1978,7_S
1779865515.701233,2140,1876,7_S
1779865515.7013419,2091,1961,7_S
1779865515.701455,2164,2154,7_S
1779865515.7029278,2055,2069,7_S
1779865515.7085462,1971,1738,7_S
1779865515.7092202,1955,1724,7_S
1779865515.710233,1964,1840,7_S
1779865515.712136,1968,1966,7_S
1779865515.7193348,2044,1748,7_S
1779865515.719622,2020,1613,7_S
1779865515.720038,1857,1855,7_S
1779865515.720397,1864,2219,7_S
1779865515.723288,2115,2109,7_S
1779865515.723383,2236,2069,7_S
1779865515.724807,2167,2229,7_S
1779865515.727339,2094,2254,7_S
1779865515.728658,2089,1819,7_S
1779865515.733803,2072,2044,7_S
1779865515.735349,2078,2411,7_S
1779865515.736031,2003,2342,7_S
1779865515.741954,1928,2128,7_S
1779865515.7457862,1981,1981,7_S
1779865515.746117,2119,1967,7_S
1779865515.7462962,2014,2186,7_S
1779865515.748776,2094,2328,7_S
1779865515.7495801,1940,2149,7_S
1779865515.749717,1899,2130,7_S
1779865515.751049,2066,2118,7_S
1779865515.758285,2073,2299,7_S
1779865515.7601511,2036,1961,7_S
1779865515.761905,2093,1842,7_S
1779865515.763964,2099,2077,7_S
1779865515.767703,1989,2156,7_S
1779865515.767942,2118,2052,7_S
1779865515.768414,2176,1938,7_S
1779865515.768723,2173,2081,7_S
1779865515.771359,1960,2279,7_S
1779865515.771415,2019,2272,7_S
1779865515.772941,1940,2121,7_S
1779865515.775538,2026,2003,7_S
1779865515.776852,2093,1886,7_S
1779865515.783387,2153,1832,7_S
1779865515.7856169,2133,1773,7_S
1779865515.785959,2016,1864,7_S
1779865515.787734,2034,1998,7_S
1779865515.7932081,1953,1904,7_S
1779865515.793786,2140,1838,7_S
1779865515.79408,2288,1996,7_S
1779865515.796223,2120,1946,7_S
1779865515.796787,2008,1819,7_S
1779865515.7970629,2039,1790,7_S
1779865515.7985868,1998,1969,7_S
1779865515.804517,2003,2115,7_S
1779865515.80509,1871,2114,7_S
1779865515.809082,1911,2124,7_S
1779865515.810185,2111,2020,7_S
1779865515.8116548,2065,2004,7_S
1779865515.8117828,1953,2142,7_S
1779865515.815788,2142,2111,7_S
1779865515.8187242,2111,2156,7_S
1779865515.8190022,2002,2320,7_S
1779865515.819051,1901,2388,7_S
1779865515.820416,2126,2199,7_S
1779865515.823196,2180,1947,7_S
1779865515.824554,2129,1869,7_S
1779865515.829858,2162,2039,7_S
1779865515.831559,2066,2008,7_S
1779865515.8351119,1996,1738,7_S
1779865515.835854,2053,1977,7_S
1779865515.837354,2121,2118,7_S
1779865515.841135,2077,2031,7_S
1779865515.841589,2158,1867,7_S
1779865515.8418381,2149,1832,7_S
1779865515.844821,2055,1961,7_S
1779865515.844877,2095,2061,7_S
1779865515.851406,2195,2033,7_S
1779865515.8525288,2110,2122,7_S
1779865515.855032,2109,2263,7_S
1779865515.8551521,2115,2291,7_S
1779865515.855337,2157,2280,7_S
1779865515.859218,2240,2230,7_S
1779865515.859423,2036,2326,7_S
1779865515.8631082,1987,2333,7_S
1779865515.863651,2180,2150,7_S
1779865515.866566,2182,2109,7_S
1779865515.866691,2079,2258,7_S
1779865515.869333,1987,2394,7_S
1779865515.8706508,2059,2158,7_S
1779865515.877114,2188,2049,7_S
1779865515.877283,2182,1881,7_S
1779865515.877811,2105,1933,7_S
1779865515.884902,2057,1875,7_S
1779865515.888619,2084,1803,7_S
1779865515.8890119,2043,1915,7_S
1779865515.8918731,2012,2095,7_S
1779865515.892212,2076,2098,7_S
1779865515.89226,2079,1995,7_S
1779865515.8923059,2087,1952,7_S
1779865515.892419,2089,1934,7_S
1779865515.902427,2133,2022,7_S
1779865515.904779,2113,1966,7_S
1779865515.909905,2076,2009,7_S
1779865515.910293,1971,2095,7_S
1779865515.913496,1944,2179,7_S
1779865515.913606,2099,2049,7_S
1779865515.913704,2109,2035,7_S
1779865515.913841,2096,2085,7_S
1779865515.9139168,2029,2196,7_S
1779865515.914034,2105,2051,7_S
1779865515.915328,2127,1993,7_S
1779865515.9167,2093,2092,7_S
1779865515.9197729,1996,2197,7_S
1779865515.9393039,2039,2081,7_S
1779865515.940056,2142,1986,7_S
1779865515.940107,2110,1888,7_S
1779865515.94015,2043,1968,7_S
1779865515.940193,2080,1999,7_S
1779865515.940717,2054,1970,7_S
1779865515.941026,2029,2137,7_S
1779865515.9410849,2056,2254,7_S
1779865515.9631228,2055,2175,7_S
1779865515.963191,2060,2034,7_S
1779865515.963237,2108,1983,7_S
1779865515.963281,2094,1952,7_S
1779865515.964216,2054,2023,7_S
1779865515.964276,2140,1942,7_S
1779865515.964322,2053,2013,7_S
1779865515.964726,1981,2195,7_S
1779865515.96478,2004,2259,7_S
1779865515.964882,2132,2037,7_S
1779865515.964937,2049,1969,7_S
1779865515.964982,2007,1923,7_S
1779865515.9650261,2093,2089,7_S
1779865515.96507,2168,2017,7_S
1779865515.96513,2149,1986,7_S
1779865515.968747,2060,2154,7_S
1779865515.989166,1966,2265,7_S
1779865515.989683,2030,2132,7_S
1779865515.9901,2107,2042,7_S
1779865516.008937,2102,2008,7_S
1779865516.009004,2033,2078,7_S
1779865516.0090508,2074,2000,7_S
1779865516.009095,2085,1978,7_S
1779865516.0091379,2021,2087,7_S
1779865516.0091798,1996,2236,7_S
1779865516.009221,2073,2126,7_S
1779865516.009263,2129,2054,7_S
1779865516.009305,2085,2082,7_S
1779865516.0093482,2064,2164,7_S
1779865516.009391,2056,2237,7_S
1779865516.009433,2104,2127,7_S
1779865516.0094762,2128,2209,7_S
1779865516.009517,2059,2352,7_S
1779865516.0100129,1935,2338,7_S
1779865516.0100749,2075,2155,7_S
1779865516.010577,2186,2118,7_S
1779865516.010623,2119,2091,7_S
1779865516.010666,2067,2180,7_S
1779865516.0140228,2131,2028,7_S
1779865516.015424,2121,2038,7_S
1779865516.01709,2023,2202,7_S
1779865516.0262039,1894,2335,7_S
1779865516.034461,2112,2152,7_S
1779865516.037461,2107,2086,7_S
1779865516.037746,2093,2041,7_S
1779865516.037845,2007,2153,7_S
1779865516.0379388,2039,2099,7_S
1779865516.0379908,2061,1989,7_S
1779865516.038076,2077,2087,7_S
1779865516.038249,2018,2248,7_S
1779865516.0384068,2037,2230,7_S
1779865516.038487,2017,2087,7_S
1779865516.046263,2124,1976,7_S
1779865516.0486321,2109,2023,7_S
1779865516.0500932,2077,2056,7_S
1779865516.05121,2097,1973,7_S
1779865516.0588338,2038,2003,7_S
1779865516.0597062,1978,2149,7_S
1779865516.0598369,1960,2220,7_S
1779865516.05989,2085,1961,7_S
1779865516.059936,2072,1900,7_S
1779865516.060025,2087,1922,7_S
1779865516.0613382,2025,2101,7_S
1779865516.0626729,2082,1987,7_S
1779865516.0652192,2053,1979,7_S
1779865516.0710258,2010,2091,7_S
1779865516.072266,1941,2226,7_S
1779865516.073995,2027,2087,7_S
1779865516.074409,2062,1954,7_S
1779865516.078198,2098,1952,7_S
1779865516.078412,2075,2049,7_S
1779865516.081964,2076,2009,7_S
1779865516.082334,2088,1871,7_S
1779865516.084769,2017,2000,7_S
1779865516.0856462,1980,2185,7_S
1779865516.086978,2054,2186,7_S
1779865516.092335,2119,2008,7_S
1779865516.0935402,2060,1969,7_S
1779865516.094079,2035,2013,7_S
1779865516.096107,2037,2115,7_S
1779865516.1029398,2128,2042,7_S
1779865516.1032078,2173,2145,7_S
1779865516.103657,2020,2245,7_S
1779865516.106436,1968,2334,7_S
1779865516.106567,2057,2155,7_S
1779865516.106726,2139,2054,7_S
1779865516.1093812,2161,2141,7_S
1779865516.110785,2035,2156,7_S
1779865516.1185548,1940,2021,7_S
1779865516.120357,2036,2082,7_S
1779865516.120739,2059,2149,7_S
1779865516.120955,1965,2257,7_S
1779865516.1276522,2037,2166,7_S
1779865516.1279511,2112,2080,7_S
1779865516.128265,2101,2048,7_S
1779865516.128547,2037,2137,7_S
1779865516.128691,2078,2116,7_S
1779865516.131584,2058,2004,7_S
1779865516.133006,1954,2093,7_S
1779865516.141696,2001,2225,7_S
1779865516.141873,2054,2204,7_S
1779865516.142076,2104,2045,7_S
1779865516.142329,2103,2003,7_S
1779865516.14248,2131,2089,7_S
1779865516.145994,2105,2107,7_S
1779865516.1493208,2077,1934,7_S
1779865516.149715,2141,1993,7_S
1779865516.1525052,2042,2210,7_S
1779865516.153217,1962,2290,7_S
1779865516.155126,2070,2072,7_S
1779865516.156617,2080,1938,7_S
1779865516.163303,2079,1993,7_S
1779865516.164406,2083,2155,7_S
1779865516.1649961,2104,2065,7_S
1779865516.167449,2040,2046,7_S
1779865516.171317,2034,2150,7_S
1779865516.1748512,2010,2260,7_S
1779865516.175252,2088,2144,7_S
1779865516.175515,2089,2068,7_S
1779865516.175766,2067,2042,7_S
1779865516.178431,2055,2096,7_S
1779865516.1788201,2098,2073,7_S
1779865516.186112,2134,2039,7_S
1779865516.187617,2045,2095,7_S
1779865516.187825,1957,2224,7_S
1779865516.189613,2063,2237,7_S
1779865516.18981,2097,2097,7_S
1779865516.192084,2049,2022,7_S
1779865516.19355,2050,2005,7_S
1779865516.197592,2073,2050,7_S
1779865516.20066,2137,1964,7_S
1779865516.2007492,2050,1995,7_S
1779865516.2008169,1987,2130,7_S
1779865516.203719,1995,2237,7_S
1779865516.2050822,2050,2096,7_S
1779865516.2065668,2132,2049,7_S
1779865516.212799,2102,2032,7_S
1779865516.225569,2009,2140,7_S
1779865516.226023,2062,2089,7_S
1779865516.2260969,2138,2107,7_S
1779865516.226144,2040,2218,7_S
1779865516.226202,1954,2234,7_S
1779865516.2265248,1993,2067,7_S
1779865516.226725,2106,2049,7_S
1779865516.226818,2087,2021,7_S
1779865516.226937,2015,2050,7_S
1779865516.2284632,2065,2008,7_S
1779865516.235314,2094,1951,7_S
1779865516.2374048,2037,2173,7_S
1779865516.237698,1996,2263,7_S
1779865516.237945,2040,2169,7_S
1779865516.2418811,2101,1970,7_S
1779865516.242033,2099,1984,7_S
1779865516.245535,2066,2089,7_S
1779865516.245881,2073,2113,7_S
1779865516.24875,2121,1951,7_S
1779865516.248835,2047,2045,7_S
1779865516.250299,1964,2191,7_S
1779865516.252982,1990,2243,7_S
1779865516.254905,2115,2095,7_S
1779865516.259818,2120,2114,7_S
1779865516.26211,2078,2086,7_S
1779865516.264245,2016,2106,7_S
1779865516.266554,2103,2015,7_S
1779865516.27096,2168,2055,7_S
1779865516.2711911,2061,2219,7_S
1779865516.2714958,1945,2299,7_S
1779865516.271729,2109,2150,7_S
1779865516.274642,2141,2107,7_S
1779865516.274703,2178,2034,7_S
1779865516.2772639,2067,2162,7_S
1779865516.281863,2235,2063,7_S
1779865516.285003,2166,1987,7_S
1779865516.285294,1959,2157,7_S
1779865516.2872121,1893,2232,7_S
1779865516.291988,2026,2206,7_S
1779865516.292217,2387,1975,7_S
1779865516.292419,2256,2010,7_S
1779865516.292594,2084,2242,7_S
1779865516.2956219,2252,2035,7_S
1779865516.297408,2311,1985,7_S
1779865516.29874,2285,2059,7_S
1779865516.3100019,1668,2328,7_S
1779865516.3119922,1670,2224,7_S
1779865516.312761,2543,1824,7_S
1779865516.3129401,2609,1875,7_S
1779865516.320118,2021,2400,7_S
1779865516.3208919,1724,1986,7_S
1779865516.3209548,2409,2048,7_S
1779865516.321003,2408,1974,7_S
1779865516.3210502,1500,2259,7_S
1779865516.3211288,1573,2295,7_S
1779865516.3212512,1770,2241,7_S
1779865516.3225951,1753,2119,7_S
1779865516.3292181,1825,1980,7_S
1779865516.3326468,2037,2013,7_S
1779865516.336954,2313,2120,7_S
1779865516.343601,2228,1939,7_S
1779865516.343893,2059,2030,7_S
1779865516.344105,2263,2216,7_S
1779865516.344223,2489,2203,7_S
1779865516.344318,2636,2050,7_S
1779865516.3444748,1797,2079,7_S
1779865516.3445618,1475,2080,7_S
1779865516.344691,1715,1979,7_S
1779865516.3474271,1922,1959,7_S
1779865516.34883,2063,2032,7_S
1779865516.354594,2130,2224,7_S
1779865516.358836,2889,2023,7_S
1779865516.361485,2735,2028,7_S
1779865516.3663502,2617,2072,7_S
1779865516.3667042,2775,1811,7_S
1779865516.369827,1236,2217,7_S
1779865516.3701398,2027,1815,7_S
1779865516.370247,2111,1997,7_S
1779865516.370302,1568,2162,7_S
1779865516.3703501,1327,2226,7_S
1779865516.3703969,1522,2064,7_S
1779865516.377238,1743,1991,7_S
1779865516.3827689,2163,1999,7_S
1779865516.38532,2275,2026,7_S
1779865516.388324,2945,1901,7_S
1779865516.3909361,3806,1638,7_S
1779865516.391801,1934,2077,7_S
1779865516.391883,1144,2173,7_S
1779865516.39194,1145,2142,7_S
1779865516.391993,1579,2005,7_S
1779865516.392041,1846,1996,7_S
1779865516.393365,1713,2096,7_S
1779865516.3947651,1498,2118,7_S
1779865516.397491,1785,1985,7_S
1779865516.398976,2044,2012,7_S
1779865516.40388,2266,2101,7_S
1779865516.405041,2469,2085,7_S
1779865516.408096,3095,1707,7_S
1779865516.408455,2630,1758,7_S
1779865516.411072,1764,1866,7_S
1779865516.415745,1714,1991,7_S
1779865516.4198122,2920,1700,7_S
1779865516.420029,3041,1889,7_S
1779865516.420089,2262,2059,7_S
1779865516.420137,1369,2467,7_S
1779865516.4201841,1375,2171,7_S
1779865516.426805,1442,2044,7_S
1779865516.4323971,1755,1988,7_S
1779865516.438208,1789,2104,7_S
1779865516.441004,1691,2079,7_S
1779865516.441728,2078,1949,7_S
1779865516.441982,1979,1971,7_S
1779865516.4420469,1924,2098,7_S
1779865516.4421,2493,2236,7_S
1779865516.4421499,3717,1872,7_S
1779865516.442195,2572,2149,7_S
1779865516.442237,989,2095,7_S
1779865516.444888,1642,1996,7_S
1779865516.446248,2056,1987,7_S
1779865516.453151,1836,1985,7_S
1779865516.455401,1646,2105,7_S
1779865516.457222,1920,2061,7_S
1779865516.457546,2077,1844,7_S
1779865516.459726,2257,1863,7_S
1779865516.461733,2384,1940,7_S
1779865516.465794,2079,2043,7_S
1779865516.4687638,1999,1976,7_S
1779865516.469038,2200,1807,7_S
1779865516.4690921,1840,2096,7_S
1779865516.469173,1950,2166,7_S
1779865516.470518,2131,2049,7_S
1779865516.47717,2971,1618,7_S
1779865516.478354,2047,1912,7_S
1779865516.482642,2806,1853,7_S
1779865516.487634,2946,1835,7_S
1779865516.488377,1337,2124,7_S
1779865516.49102,1380,1961,7_S
1779865516.4913778,1952,1888,7_S
1779865516.49153,1217,2292,7_S
1779865516.4916081,2590,1873,7_S
1779865516.4918249,2048,2102,7_S
1779865516.493214,848,2129,7_S
1779865516.494613,2163,1833,7_S
1779865516.4973388,2332,1915,7_S
1779865516.5037,1841,2034,7_S
1779865516.504879,1934,1925,7_S
1779865516.508859,2164,2175,7_S
1779865516.510987,2486,2032,7_S
1779865516.51427,2598,1791,7_S
1779865516.514536,1620,1886,7_S
1779865516.5148978,2710,1630,7_S
1779865516.517268,2363,2116,7_S
1779865516.5179908,1753,1972,7_S
1779865516.518233,2015,1935,7_S
1779865516.518286,3108,1879,7_S
1779865516.521117,2485,2055,7_S
1779865516.5257301,1838,2157,7_S
1779865516.527381,1602,1845,7_S
1779865516.529707,1724,1820,7_S
1779865516.532011,1700,2092,7_S
1779865516.5376482,2000,1941,7_S
1779865516.537983,2424,1999,7_S
1779865516.5383282,1627,2328,7_S
1779865516.538562,1793,2157,7_S
1779865516.5387578,2820,1970,7_S
1779865516.541142,2516,1873,7_S
1779865516.542486,1105,2012,7_S
1779865516.5451121,1765,1949,7_S
1779865516.546444,2543,1746,7_S
1779865516.5529869,2721,1643,7_S
1779865516.554433,2527,2214,7_S
1779865516.558126,1824,2074,7_S
1779865516.560123,1912,1886,7_S
1779865516.566062,2488,1900,7_S
1779865516.566997,1984,2048,7_S
1779865516.56708,2684,2065,7_S
1779865516.567193,2370,2179,7_S
1779865516.567281,1394,1858,7_S
1779865516.5674,1291,1924,7_S
1779865516.568809,1797,2161,7_S
1779865516.574568,2416,2431,7_S
1779865516.575686,1965,1981,7_S
1779865516.576663,1802,1852,7_S
1779865516.5785751,2622,1962,7_S
1779865516.578784,2347,1893,7_S
1779865516.5858119,2411,1935,7_S
1779865516.586018,1832,2032,7_S
1779865516.586275,1914,2244,7_S
1779865516.5865548,1805,2162,7_S
1779865516.589429,1765,2046,7_S
1779865516.5907662,2309,1926,7_S
1779865516.592174,2408,1912,7_S
1779865516.594812,2420,1761,7_S
1779865516.600082,2773,1963,7_S
1779865516.600706,2489,1999,7_S
1779865516.60209,2319,1999,7_S
1779865516.603828,1337,2185,7_S
1779865516.6107252,2060,1799,7_S
1779865516.610983,2005,2143,7_S
1779865516.6114938,1961,1970,7_S
1779865516.611677,1991,1988,7_S
1779865516.6146472,2080,2051,7_S
1779865516.614738,1918,2155,7_S
1779865516.621248,2287,2006,7_S
1779865516.621857,2013,2160,7_S
1779865516.624825,2214,1973,7_S
1779865516.625054,2106,1923,7_S
1779865516.627599,1992,1955,7_S
1779865516.627841,2096,1904,7_S
1779865516.629236,1999,1974,7_S
1779865516.6327748,2256,1896,7_S
1779865516.635477,2190,1921,7_S
1779865516.636287,2252,2054,7_S
1779865516.636343,2354,2013,7_S
1779865516.6392488,2308,2011,7_S
1779865516.640574,2231,2033,7_S
1779865516.646304,2075,2092,7_S
1779865516.647635,2027,2133,7_S
1779865516.649003,2046,2047,7_S
1779865516.652609,2015,2106,7_S
1779865516.6532211,2102,2251,7_S
1779865516.65484,2219,2343,7_S
1779865516.6581829,2110,2233,7_S
1779865516.658737,1962,2112,7_S
1779865516.6589491,1986,2240,7_S
1779865516.66182,1984,2330,7_S
1779865516.663147,1924,2271,7_S
1779865516.669888,2172,2184,7_S
1779865516.67194,1900,2195,7_S
1779865516.672318,1940,2293,7_S
1779865516.6747038,1938,2262,7_S
1779865516.679483,2088,2397,7_S
1779865516.67994,2237,2380,7_S
1779865516.680419,2321,2276,7_S
1779865516.6824598,2007,2245,7_S
1779865516.68308,2122,2183,7_S
1779865516.683298,2060,2235,7_S
1779865516.6846259,2238,2443,7_S
1779865516.6872299,2358,2538,7_S
1779865516.688546,2175,2226,7_S
1779865516.694002,2027,2100,7_S
1779865516.6946769,1866,2142,7_S
1779865516.694863,1789,2085,7_S
1779865516.697788,1829,1939,7_S
1779865516.701233,1919,2048,7_S
1779865516.704705,1829,2316,7_S
1779865516.7050529,2121,2318,7_S
1779865516.708085,1988,2058,7_S
1779865516.708257,1877,1956,7_S
1779865516.708353,1926,1913,7_S
1779865516.719454,1848,1961,7_S
1779865516.727159,1922,2073,7_S
1779865516.727506,2121,2045,7_S
1779865516.7278562,1966,2151,7_S
1779865516.7281148,1763,2318,7_S
1779865516.730657,1446,2072,7_S
1779865516.731115,1668,2105,7_S
1779865516.731225,2001,2268,7_S
1779865516.731393,2083,2321,7_S
1779865516.73144,1946,2205,7_S
1779865516.731483,1964,2079,7_S
1779865516.7328188,2119,2165,7_S
1779865516.734245,2072,2278,7_S
1779865516.736914,1875,2300,7_S
1779865516.741982,1970,2082,7_S
1779865516.742144,1800,1975,7_S
1779865516.742902,1862,2074,7_S
1779865516.7461429,1949,2175,7_S
1779865516.750205,1994,1895,7_S
1779865516.754128,2101,2082,7_S
1779865516.7543218,2289,2479,7_S
1779865516.7544398,2212,2426,7_S
1779865516.754723,2312,2360,7_S
1779865516.7578602,2103,2279,7_S
1779865516.759253,2022,2236,7_S
1779865516.760608,2045,2278,7_S
1779865516.77139,1906,2258,7_S
1779865516.776649,1929,2171,7_S
1779865516.7772539,1488,2023,7_S
1779865516.777517,1378,2049,7_S
1779865516.780176,2393,2219,7_S
1779865516.780308,2335,2381,7_S
1779865516.780406,1774,2045,7_S
1779865516.78045,1489,1853,7_S
1779865516.780493,1921,2126,7_S
1779865516.7805629,1994,2577,7_S
1779865516.783145,2245,2665,7_S
1779865516.784456,1966,2513,7_S
1779865516.7918148,1669,2669,7_S
1779865516.793515,1746,2509,7_S
1779865516.795258,1759,2505,7_S
1779865516.795421,1420,2461,7_S
1779865516.7956722,2060,2704,7_S
1779865516.7991319,2324,2202,7_S
1779865516.802568,2346,2086,7_S
1779865516.803091,1887,2427,7_S
1779865516.8033862,2018,2464,7_S
1779865516.806334,2468,2353,7_S
1779865516.8065379,2328,2181,7_S
1779865516.813317,2363,2068,7_S
1779865516.8142982,2382,2310,7_S
1779865516.8168929,2274,2188,7_S
1779865516.818882,2161,1952,7_S
1779865516.8208299,1963,2084,7_S
1779865516.821001,1745,2253,7_S
1779865516.8212018,1906,2261,7_S
1779865516.824845,2151,2250,7_S
1779865516.825186,2113,2006,7_S
1779865516.8280692,2285,2087,7_S
1779865516.828164,2473,2110,7_S
1779865516.8313322,2425,2276,7_S
1779865516.832801,2275,2204,7_S
1779865516.8409102,2392,2381,7_S
1779865516.845194,2624,2126,7_S
1779865516.8458922,2924,1899,7_S
1779865516.851063,2937,1728,7_S
1779865516.854302,3745,1607,7_S
1779865516.8553312,3067,1715,7_S
1779865516.8554492,2275,1912,7_S
1779865516.8562171,1811,1296,7_S
1779865516.856467,3060,1491,7_S
1779865516.8567822,1230,2513,7_S
1779865516.856895,680,2319,7_S
1779865516.857016,2010,1663,7_S
1779865516.867407,2336,1354,7_S
1779865516.8681548,3292,1304,7_S
1779865516.875515,2392,2044,7_S
1779865516.876273,3613,1424,7_S
1779865516.876729,3921,1106,7_S
1779865516.876852,1027,2362,7_S
1779865516.876975,3180,1971,7_S
1779865516.877533,2098,1546,7_S
1779865516.880608,439,2099,7_S
1779865516.880693,74,2514,7_S
1779865516.880745,1247,1465,7_S
1779865516.88079,2403,1532,7_S
1779865516.8834019,2553,1854,7_S
1779865516.884802,84,2950,7_S
1779865516.886282,557,2324,7_S
1779865516.893665,2853,1474,7_S
1779865516.8992698,4095,1485,7_S
1779865516.908843,2607,2242,7_S
1779865516.908936,1699,2356,7_S
1779865516.908988,1310,2084,7_S
1779865516.909033,1243,2235,7_S
1779865516.9090922,2888,1785,7_S
1779865516.909176,1221,2693,7_S
1779865516.9092171,682,2230,7_S
1779865516.909261,1236,1958,7_S
1779865516.909303,1913,2187,7_S
1779865516.910662,2666,2192,7_S
1779865516.929446,1879,2170,7_S
1779865516.930038,2094,1998,7_S
1779865516.930772,1604,2234,7_S
1779865516.9311638,1709,2238,7_S
1779865516.934026,2361,2001,7_S
1779865516.934162,3194,1897,7_S
1779865516.9343328,3678,1779,7_S
1779865516.9344032,1425,2358,7_S
1779865516.9345238,698,2369,7_S
1779865516.934647,2437,1837,7_S
1779865516.934912,2822,2267,7_S
1779865516.934983,1417,2683,7_S
1779865516.936374,1660,2464,7_S
1779865516.939296,1823,2269,7_S
1779865516.941056,1757,2341,7_S
1779865516.9537559,1631,2282,7_S
1779865516.961579,1628,2236,7_S
1779865516.962079,1754,2145,7_S
1779865516.9622478,1925,1986,7_S
1779865516.962373,2047,2107,7_S
1779865516.962431,2181,2221,7_S
1779865516.9625542,2305,2013,7_S
1779865516.96265,2182,2025,7_S
1779865516.962705,2068,2156,7_S
1779865516.962804,1890,2388,7_S
1779865516.962882,1857,2391,7_S
1779865516.9769092,1875,2349,7_S
1779865516.9822981,1958,2460,7_S
1779865516.9859562,2035,2591,7_S
1779865516.986491,2150,2369,7_S
1779865516.9866009,2172,2236,7_S
1779865516.9866638,2126,2176,7_S
1779865516.9867158,1952,2206,7_S
1779865516.986884,1878,2237,7_S
1779865516.98696,2129,2181,7_S
1779865516.987026,2196,2373,7_S
1779865516.987094,1991,2519,7_S
1779865516.9871628,1878,2327,7_S
1779865516.988616,1988,2042,7_S
1779865516.991252,2062,1949,7_S
1779865516.992723,1998,2030,7_S
1779865516.9947689,1971,2020,7_S
1779865517.0153449,1958,1974,7_S
1779865517.018813,2071,2021,7_S
1779865517.018882,1912,2275,7_S
1779865517.018982,1954,2224,7_S
1779865517.0190651,2111,2018,7_S
1779865517.019119,2114,1909,7_S
1779865517.01917,2071,1983,7_S
1779865517.0192199,2001,2046,7_S
1779865517.019271,2033,1972,7_S
1779865517.0193212,2161,1909,7_S
1779865517.019369,1933,2023,7_S
1779865517.019418,1795,2124,7_S
1779865517.020767,1927,2070,7_S
1779865517.02211,2079,1970,7_S
1779865517.033731,2092,1984,7_S
1779865517.034213,2081,2001,7_S
1779865517.043364,1936,2091,7_S
1779865517.046874,1885,1972,7_S
1779865517.048042,1932,2029,7_S
1779865517.048139,1798,2217,7_S
1779865517.0482078,1896,2180,7_S
1779865517.048272,2190,1972,7_S
1779865517.0483341,2192,2104,7_S
1779865517.048396,1932,2057,7_S
1779865517.048501,1787,2077,7_S
1779865517.0486221,1682,1959,7_S
1779865517.048689,2107,1979,7_S
1779865517.050088,2039,2110,7_S
1779865517.052875,1803,2237,7_S
1779865517.0542889,1873,1994,7_S
1779865517.061169,1951,2114,7_S
1779865517.062794,2022,2012,7_S
1779865517.065618,1919,2197,7_S
1779865517.065899,1905,2024,7_S
1779865517.066276,1981,2007,7_S
1779865517.069247,2062,2206,7_S
1779865517.072054,2042,2362,7_S
1779865517.0807219,2060,2198,7_S
1779865517.0809972,2101,2116,7_S
1779865517.081284,2120,2046,7_S
1779865517.081355,2130,2068,7_S
1779865517.0814579,2124,2065,7_S
1779865517.081522,2170,1979,7_S
1779865517.082867,2096,2097,7_S
1779865517.090081,2014,2231,7_S
1779865517.092064,2018,2217,7_S
1779865517.094337,2077,2094,7_S
1779865517.0972328,2082,2055,7_S
1779865517.104887,2124,2077,7_S
1779865517.1054342,2093,2110,7_S
1779865517.108329,2193,1984,7_S
1779865517.109505,2103,2101,7_S
1779865517.109594,2076,2313,7_S
1779865517.109716,2027,2384,7_S
1779865517.109798,2065,2177,7_S
1779865517.1098921,2122,2038,7_S
1779865517.110005,2049,2094,7_S
1779865517.1101031,2032,2184,7_S
1779865517.1129248,2026,2066,7_S
1779865517.114435,2070,1920,7_S
1779865517.124157,2034,2031,7_S
1779865517.127362,1992,2211,7_S
1779865517.127742,2052,2030,7_S
1779865517.132426,2107,1930,7_S
1779865517.137595,2179,1976,7_S
1779865517.141184,2054,2107,7_S
1779865517.141767,2048,2151,7_S
1779865517.141873,2121,2051,7_S
1779865517.1420522,2070,2016,7_S
1779865517.1421251,1987,2136,7_S
1779865517.142197,2006,2226,7_S
1779865517.14226,2068,2086,7_S
1779865517.142323,2088,2141,7_S
1779865517.142389,2152,2081,7_S
1779865517.151621,2116,2175,7_S
1779865517.154685,2156,2073,7_S
1779865517.1552708,2108,2134,7_S
1779865517.1585448,2035,2116,7_S
1779865517.1602519,1994,2153,7_S
1779865517.1607292,2076,1981,7_S
1779865517.1658602,2060,1839,7_S
1779865517.1665962,2050,1881,7_S
1779865517.1700768,2021,1941,7_S
1779865517.1703339,2130,1959,7_S
1779865517.170392,2129,1939,7_S
1779865517.170444,2033,2030,7_S
1779865517.170511,1944,2209,7_S
1779865517.170903,2075,2318,7_S
1779865517.172419,2084,2243,7_S
1779865517.175152,2029,2047,7_S
1779865517.1765518,2033,2077,7_S
1779865517.190926,2105,2088,7_S
1779865517.1974778,2098,1916,7_S
1779865517.197941,2045,2092,7_S
1779865517.201513,1975,2240,7_S
1779865517.2016551,1933,2216,7_S
1779865517.201731,1952,2046,7_S
1779865517.201853,2128,2053,7_S
1779865517.201966,2046,2087,7_S
1779865517.202019,1969,2174,7_S
1779865517.202069,2041,1997,7_S
1779865517.202197,2031,2032,7_S
1779865517.202294,1996,2145,7_S
1779865517.2023768,1982,2344,7_S
1779865517.210019,2145,2039,7_S
1779865517.210091,2117,1923,7_S
1779865517.2111979,2043,1932,7_S
1779865517.212011,2009,2052,7_S
1779865517.2130291,2069,1987,7_S
1779865517.221023,2051,1949,7_S
1779865517.230137,1994,2117,7_S
1779865517.230216,1994,2218,7_S
1779865517.230272,2034,2180,7_S
1779865517.2303228,2004,2094,7_S
1779865517.230838,2155,2098,7_S
1779865517.2309408,2099,2119,7_S
1779865517.231013,1969,2062,7_S
1779865517.2310798,2059,1986,7_S
1779865517.2325041,2138,2099,7_S
1779865517.234159,2001,2296,7_S
1779865517.236896,2015,2344,7_S
1779865517.249187,2028,2150,7_S
1779865517.254812,2021,2049,7_S
1779865517.259703,2046,2149,7_S
1779865517.260166,2003,2178,7_S
1779865517.260643,2081,2000,7_S
1779865517.261133,1984,2018,7_S
1779865517.2616901,1918,2261,7_S
1779865517.264873,1939,2341,7_S
1779865517.265107,1993,2136,7_S
1779865517.2652678,2085,2162,7_S
1779865517.265336,2224,1989,7_S
1779865517.265398,2210,1945,7_S
1779865517.265459,1946,1881,7_S
1779865517.26552,1974,1878,7_S
1779865517.266903,2135,2060,7_S
1779865517.274247,2052,2272,7_S
1779865517.276293,1927,2006,7_S
1779865517.278929,1939,1750,7_S
1779865517.288183,2014,1931,7_S
1779865517.2884731,2050,1954,7_S
1779865517.2887921,2058,2022,7_S
1779865517.29184,2165,2044,7_S
1779865517.292881,2205,2127,7_S
1779865517.29295,1971,2007,7_S
1779865517.293002,1983,1994,7_S
1779865517.293084,1952,1952,7_S
1779865517.293191,2098,2045,7_S
1779865517.2932749,2208,2136,7_S
1779865517.294614,2040,2021,7_S
1779865517.2959502,2168,1910,7_S
1779865517.298563,1885,1940,7_S
1779865517.3063931,1840,2057,7_S
1779865517.3084219,2045,2148,7_S
1779865517.31154,2089,1982,7_S
1779865517.3118029,2152,2190,7_S
1779865517.315038,2144,2274,7_S
1779865517.322069,2083,1930,7_S
1779865517.3256378,1863,1917,7_S
1779865517.3257332,2023,2121,7_S
1779865517.325801,1870,2342,7_S
1779865517.325866,2022,2519,7_S
1779865517.3259342,2311,2396,7_S
1779865517.325997,2097,2005,7_S
1779865517.32606,1851,2041,7_S
1779865517.326124,1969,2012,7_S
1779865517.3354518,2199,2132,7_S
1779865517.3415291,2219,2029,7_S
1779865517.349256,1956,1955,7_S
1779865517.350037,1808,2056,7_S
1779865517.3542762,1968,2198,7_S
1779865517.354375,1948,1760,7_S
1779865517.3544981,1956,1632,7_S
1779865517.3545752,2158,2157,7_S
1779865517.354708,2104,2115,7_S
1779865517.3547862,2008,1811,7_S
1779865517.3548522,1971,1888,7_S
1779865517.3549151,1920,2309,7_S
1779865517.354984,2108,2432,7_S
1779865517.3550878,2187,2185,7_S
1779865517.356611,2269,2183,7_S
1779865517.357991,2112,2181,7_S
1779865517.3616781,1986,2027,7_S
1779865517.371955,2122,1943,7_S
1779865517.382119,2096,1997,7_S
1779865517.3852658,2041,2372,7_S
1779865517.386391,1855,2547,7_S
1779865517.3865972,2013,2210,7_S
1779865517.386681,2207,1886,7_S
1779865517.3867571,1932,1625,7_S
1779865517.386821,1773,1949,7_S
1779865517.386882,1903,2405,7_S
1779865517.386942,2235,2080,7_S
1779865517.387202,2208,1817,7_S
1779865517.3873432,2082,1832,7_S
1779865517.387423,2069,1919,7_S
1779865517.389028,1977,1921,7_S
1779865517.402357,2055,2071,7_S
1779865517.4135199,2055,2007,7_S
1779865517.4146078,2057,1949,7_S
1779865517.41477,2084,1902,7_S
1779865517.414853,2042,1979,7_S
1779865517.414921,2032,1982,7_S
1779865517.415023,2013,2347,7_S
1779865517.4150872,2056,2130,7_S
1779865517.415158,2026,2095,7_S
1779865517.4152489,2036,2194,7_S
1779865517.415306,2071,2295,7_S
1779865517.415423,2116,2298,7_S
1779865517.415482,2003,2082,7_S
1779865517.416817,1886,2168,7_S
1779865517.418229,2051,2369,7_S
1779865517.4210382,2054,2231,7_S
1779865517.43501,2014,2077,7_S
1779865517.438166,2094,1898,7_S
1779865517.438566,2034,2060,7_S
1779865517.443054,2006,2094,7_S
1779865517.4439318,2037,1982,7_S
1779865517.44766,2005,2069,7_S
1779865517.448363,2011,2257,7_S
1779865517.4484422,1980,2308,7_S
1779865517.4485068,2042,2185,7_S
1779865517.448569,2067,2148,7_S
1779865517.448631,2092,2159,7_S
1779865517.448693,2113,2217,7_S
1779865517.4487529,2117,2111,7_S
1779865517.4488142,2056,2147,7_S
1779865517.450549,1945,1996,7_S
1779865517.459478,1945,2150,7_S
1779865517.46625,2020,1931,7_S
1779865517.47321,2050,1849,7_S
1779865517.476259,2032,1730,7_S
1779865517.4775429,2079,1750,7_S
1779865517.477611,2110,1671,7_S
1779865517.477667,2069,1631,7_S
1779865517.477976,2035,1811,7_S
1779865517.47803,1969,2041,7_S
1779865517.478173,2034,2070,7_S
1779865517.478341,2071,1978,7_S
1779865517.478533,2066,1927,7_S
1779865517.478949,2083,1954,7_S
1779865517.479022,2062,1993,7_S
1779865517.480425,2048,1848,7_S
1779865517.4819431,2051,1994,7_S
1779865517.484652,2026,2132,7_S
1779865517.492841,2006,2301,7_S
1779865517.494432,2074,1975,7_S
1779865517.49807,2107,1859,7_S
1779865517.49861,2121,1925,7_S
1779865517.499011,2048,2045,7_S
1779865517.504268,2098,1799,7_S
1779865517.509217,2061,1861,7_S
1779865517.509584,1981,2090,7_S
1779865517.509995,1960,2358,7_S
1779865517.513091,2047,2223,7_S
1779865517.514414,2065,2151,7_S
1779865517.5144892,2053,2173,7_S
1779865517.5146382,2054,2320,7_S
1779865517.5148191,2125,2283,7_S
1779865517.514873,2130,2055,7_S
1779865517.516315,2077,2235,7_S
1779865517.5281658,1963,2360,7_S
1779865517.537698,2109,2175,7_S
1779865517.538049,2178,1902,7_S
1779865517.541615,2197,1787,7_S
1779865517.541739,2092,1828,7_S
1779865517.5418901,2066,1789,7_S
1779865517.542031,2157,1693,7_S
1779865517.542409,2159,1779,7_S
1779865517.542549,2110,1960,7_S
1779865517.542637,2038,2034,7_S
1779865517.5427032,2117,1867,7_S
1779865517.5427809,2156,1903,7_S
1779865517.542836,2107,1978,7_S
1779865517.5443258,2120,2135,7_S
1779865517.547232,2083,1960,7_S
1779865517.548695,2092,1923,7_S
1779865517.5613801,2085,2095,7_S
1779865517.571023,2002,2190,7_S
1779865517.574773,2044,2098,7_S
1779865517.575753,2148,1994,7_S
1779865517.576027,2112,1970,7_S
1779865517.5761862,2030,2059,7_S
1779865517.576282,2103,2030,7_S
1779865517.576351,2131,1955,7_S
1779865517.576415,2033,2092,7_S
1779865517.576483,1988,2245,7_S
1779865517.576545,2079,2192,7_S
1779865517.576608,2092,2021,7_S
1779865517.5766761,2110,1968,7_S
1779865517.576743,2096,2029,7_S
1779865517.578091,2076,2116,7_S
1779865517.5862038,2096,1981,7_S
1779865517.5944169,2058,2019,7_S
1779865517.5988328,2023,2197,7_S
1779865517.5994291,1984,2238,7_S
1779865517.600105,2090,2010,7_S
1779865517.602805,2095,1952,7_S
1779865517.6037812,2108,2022,7_S
1779865517.603938,2043,2053,7_S
1779865517.604001,2090,1981,7_S
1779865517.604152,2065,1975,7_S
1779865517.604249,2074,2113,7_S
1779865517.6043189,1979,2287,7_S
1779865517.604384,2070,2069,7_S
1779865517.607109,2089,1979,7_S
1779865517.608463,2115,1954,7_S
1779865517.617551,2067,2044,7_S
1779865517.6227589,2136,2015,7_S
1779865517.62549,2172,1985,7_S
1779865517.6263008,2010,2039,7_S
1779865517.6285179,1960,2190,7_S
1779865517.633364,2054,2168,7_S
1779865517.633852,2134,2013,7_S
1779865517.634243,2113,2012,7_S
1779865517.637692,2049,2037,7_S
1779865517.637863,2073,2003,7_S
1779865517.63798,2101,1895,7_S
1779865517.638089,2116,1883,7_S
1779865517.6382852,1970,2087,7_S
1779865517.638535,1929,2190,7_S
1779865517.6386182,2108,2033,7_S
1779865517.640063,2150,1965,7_S
1779865517.647583,2068,1989,7_S
1779865517.648968,2044,2123,7_S
1779865517.651456,2122,2032,7_S
1779865517.653924,2087,2067,7_S
1779865517.660831,2033,2237,7_S
1779865517.6613388,2033,2369,7_S
1779865517.661875,2137,2099,7_S
1779865517.662316,2129,2079,7_S
1779865517.6627479,2118,2030,7_S
1779865517.6667268,2031,2049,7_S
1779865517.666951,2048,2069,7_S
1779865517.667101,2096,2006,7_S
1779865517.66718,2088,2089,7_S
1779865517.668689,2029,2257,7_S
1779865517.6700459,2019,2139,7_S
1779865517.672904,2094,2048,7_S
1779865517.679043,2199,2035,7_S
1779865517.682333,2044,2014,7_S
1779865517.6846,2001,2033,7_S
1779865517.6899898,2090,1927,7_S
1779865517.6979961,2068,1980,7_S
1779865517.6980941,2044,2100,7_S
1779865517.698164,2024,2211,7_S
1779865517.698228,2083,1973,7_S
1779865517.698292,2020,1864,7_S
1779865517.6983612,2070,1912,7_S
1779865517.6985128,2082,1989,7_S
1779865517.69859,2135,1914,7_S
1779865517.698658,2143,2003,7_S
1779865517.700036,2013,2101,7_S
1779865517.716727,1979,2261,7_S
1779865517.7220962,2072,2025,7_S
1779865517.7253602,2095,1952,7_S
1779865517.725549,2060,1937,7_S
1779865517.725655,2066,1942,7_S
1779865517.725866,2097,1958,7_S
1779865517.726013,2091,1899,7_S
1779865517.726145,2031,2021,7_S
1779865517.726228,1988,2126,7_S
1779865517.7263,2050,2148,7_S
1779865517.7263649,2137,2031,7_S
1779865517.72643,2121,1934,7_S
1779865517.726499,2068,1987,7_S
1779865517.729002,2015,2071,7_S
1779865517.7304919,2115,1916,7_S
1779865517.731911,2041,2033,7_S
1779865517.746281,2002,2255,7_S
1779865517.747661,2016,2326,7_S
1779865517.74986,2100,2183,7_S
1779865517.754304,2109,2080,7_S
1779865517.7549472,2074,2073,7_S
1779865517.755218,2048,2099,7_S
1779865517.758989,2119,1998,7_S
1779865517.759104,2059,2018,7_S
1779865517.759181,1996,2193,7_S
1779865517.759249,1965,2286,7_S
1779865517.759326,2057,2101,7_S
1779865517.759433,2086,1989,7_S
1779865517.759548,2114,2059,7_S
1779865517.761031,2063,2059,7_S
1779865517.769583,2090,2037,7_S
1779865517.7729049,2139,2026,7_S
1779865517.775918,2116,2109,7_S
1779865517.777855,1962,2235,7_S
1779865517.7825139,1991,2088,7_S
1779865517.785679,2028,2022,7_S
1779865517.7867892,2092,2008,7_S
1779865517.786936,2050,2021,7_S
1779865517.787033,2054,2085,7_S
1779865517.7870898,2073,1998,7_S
1779865517.787144,2023,2047,7_S
1779865517.787199,2047,2227,7_S
1779865517.7872498,2035,2283,7_S
1779865517.7886772,2084,2097,7_S
1779865517.7901099,2094,1992,7_S
1779865517.792746,2035,2006,7_S
1779865517.794338,2073,2086,7_S
1779865517.804186,2122,2019,7_S
1779865517.804645,2093,1984,7_S
1779865517.813109,2116,2164,7_S
1779865517.8141382,1964,2275,7_S
1779865517.8176482,1974,2120,7_S
1779865517.817746,2054,2022,7_S
1779865517.817866,2134,1961,7_S
1779865517.817939,2095,2062,7_S
1779865517.81801,2096,2054,7_S
1779865517.8180742,2085,1981,7_S
1779865517.8181372,1907,2090,7_S
1779865517.8182,1964,2211,7_S
1779865517.830979,2079,2134,7_S
1779865517.831188,2100,2015,7_S
1779865517.83126,2123,1973,7_S
1779865517.831315,2070,2041,7_S
1779865517.831368,2053,2079,7_S
1779865517.833697,2115,1990,7_S
1779865517.840814,2051,1995,7_S
1779865517.844409,1999,2122,7_S
1779865517.8445928,2035,2270,7_S
1779865517.844666,2101,2074,7_S
1779865517.844865,2084,1994,7_S
1779865517.8449762,2039,2060,7_S
1779865517.84504,2011,2118,7_S
1779865517.846761,2051,2053,7_S
1779865517.848214,2016,2078,7_S
1779865517.850934,2026,2175,7_S
1779865517.852406,1987,2259,7_S
1779865517.86423,2058,2080,7_S
1779865517.8691032,2081,1985,7_S
1779865517.877184,2088,1963,7_S
1779865517.87741,2073,2051,7_S
1779865517.8774981,2073,2050,7_S
1779865517.877572,2084,1982,7_S
1779865517.877707,2048,2073,7_S
1779865517.8778281,1992,2245,7_S
1779865517.877949,2029,2210,7_S
1779865517.8781729,2067,2045,7_S
1779865517.878251,2117,1993,7_S
1779865517.8783412,2086,2063,7_S
1779865517.878442,2072,2093,7_S
1779865517.880144,2122,2002,7_S
1779865517.8959239,2035,2023,7_S
1779865517.903989,1990,2229,7_S
1779865517.9042041,1968,2315,7_S
1779865517.904382,2062,2135,7_S
1779865517.904514,2057,2057,7_S
1779865517.90462,2022,2034,7_S
1779865517.904774,2037,2102,7_S
1779865517.9048681,2093,2020,7_S
1779865517.904935,2089,1951,7_S
1779865517.905028,1997,2060,7_S
1779865517.905151,1947,2238,7_S
1779865517.9052439,2077,2104,7_S
1779865517.90763,2117,2040,7_S
1779865517.907867,2139,1950,7_S
1779865517.910984,2092,2087,7_S
1779865517.931787,2062,2050,7_S
1779865517.935673,2066,1984,7_S
1779865517.935952,2034,2013,7_S
1779865517.9360309,1983,2142,7_S
1779865517.9361029,2017,2203,7_S
1779865517.936171,2094,1955,7_S
1779865517.9362729,2098,1892,7_S
1779865517.936346,2111,2042,7_S
1779865517.9364119,2060,2147,7_S
1779865517.936467,2116,1878,7_S
1779865517.936522,2082,2058,7_S
1779865517.936577,2006,2203,7_S
1779865517.9366322,1958,2311,7_S
1779865517.9380941,2042,2035,7_S
1779865517.945977,2097,1965,7_S
1779865517.946378,2100,2041,7_S
1779865517.9488928,2031,2099,7_S
1779865517.9513972,2093,1974,7_S
1779865517.956405,2098,1929,7_S
1779865517.959892,2056,2062,7_S
1779865517.960196,1972,2263,7_S
1779865517.960557,2077,2101,7_S
1779865517.961319,2083,1975,7_S
1779865517.964562,2091,1986,7_S
1779865517.965649,2025,2007,7_S
1779865517.965875,2089,1967,7_S
1779865517.966044,2057,1922,7_S
1779865517.966123,2006,2058,7_S
1779865517.968744,2051,2269,7_S
1779865517.970093,2061,2197,7_S
1779865518.00577,2062,2058,7_S
1779865518.006604,2141,2006,7_S
1779865518.006679,2048,2050,7_S
1779865518.0107808,2081,2064,7_S
1779865518.01086,2167,1953,7_S
1779865518.0109282,2086,2047,7_S
1779865518.010994,2052,2199,7_S
1779865518.011096,2015,2198,7_S
1779865518.011155,2059,2023,7_S
1779865518.011212,2151,1944,7_S
1779865518.012223,2135,1988,7_S
1779865518.0123498,2053,2089,7_S
1779865518.0127769,2026,2008,7_S
1779865518.012886,1975,1995,7_S
1779865518.012952,1953,2140,7_S
1779865518.013128,1880,2240,7_S
1779865518.013265,2041,2169,7_S
1779865518.013725,2158,2074,7_S
1779865518.013791,2410,1952,7_S
1779865518.0138502,2518,1993,7_S
1779865518.014005,2506,1990,7_S
1779865518.014069,2424,1924,7_S
1779865518.017159,1991,2129,7_S
1779865518.043726,1829,2217,7_S
1779865518.043856,2435,1894,7_S
1779865518.043929,2050,2069,7_S
1779865518.043991,1507,2143,7_S
1779865518.044053,1433,2073,7_S
1779865518.044113,1558,1967,7_S
1779865518.044173,1848,1913,7_S
1779865518.044234,1896,1920,7_S
1779865518.044415,2152,2185,7_S
1779865518.044599,3528,1808,7_S
1779865518.044898,2462,2078,7_S
1779865518.0451279,1674,2120,7_S
1779865518.045197,1490,1977,7_S
1779865518.04554,2031,1908,7_S
1779865518.052607,3634,1606,7_S
1779865518.054681,2893,1886,7_S
1779865518.054801,580,2616,7_S
1779865518.060281,667,2339,7_S
1779865518.060622,1565,2049,7_S
1779865518.0610409,2150,1893,7_S
1779865518.064202,2711,1868,7_S
1779865518.064587,2375,1823,7_S
1779865518.0654871,2247,1998,7_S
1779865518.0682108,1537,2103,7_S
1779865518.0729852,1556,2078,7_S
1779865518.073705,2091,2121,7_S
1779865518.074517,2377,2073,7_S
1779865518.077625,2592,2026,7_S
1779865518.078967,3021,1812,7_S
1779865518.079224,1582,2217,7_S
1779865518.0793002,1823,2083,7_S
1779865518.0806558,2298,1868,7_S
1779865518.0820282,2241,1847,7_S
1779865518.0847418,1704,2333,7_S
1779865518.086147,1606,2238,7_S
1779865518.0957189,1746,1988,7_S
1779865518.0966542,1979,1974,7_S
1779865518.097717,2358,2011,7_S
1779865518.10096,2208,2107,7_S
1779865518.103292,1956,2155,7_S
1779865518.105195,1755,2146,7_S
1779865518.107353,1968,2218,7_S
1779865518.111989,3030,2232,7_S
1779865518.112294,2462,2112,7_S
1779865518.11328,1287,2291,7_S
1779865518.113924,1562,1885,7_S
1779865518.117423,2342,2025,7_S
1779865518.117901,2480,2211,7_S
1779865518.117982,2524,1597,7_S
1779865518.1180532,1836,2119,7_S
1779865518.1181161,1522,2376,7_S
1779865518.120811,1939,2194,7_S
1779865518.128028,1735,2028,7_S
1779865518.129056,1868,1864,7_S
1779865518.129981,1867,2065,7_S
1779865518.131289,1824,2116,7_S
1779865518.134829,1714,1954,7_S
1779865518.135412,2607,1890,7_S
1779865518.138567,2784,1821,7_S
1779865518.138915,1765,2398,7_S
1779865518.142171,2587,1829,7_S
1779865518.142782,2144,1958,7_S
1779865518.1504,1723,1954,7_S
1779865518.15168,1470,2069,7_S
1779865518.151857,1701,1897,7_S
1779865518.151928,1937,1953,7_S
1779865518.151992,2190,2029,7_S
1779865518.152054,2194,2130,7_S
1779865518.154838,2330,2048,7_S
1779865518.156289,3020,1628,7_S
1779865518.1590211,2089,2023,7_S
1779865518.1667469,1420,2116,7_S
1779865518.172553,1837,1913,7_S
1779865518.173148,1954,1794,7_S
1779865518.176526,2050,1982,7_S
1779865518.177578,2136,2193,7_S
1779865518.180227,1803,2105,7_S
1779865518.1848161,1926,2055,7_S
1779865518.1851451,2719,1774,7_S
1779865518.1857972,2184,1957,7_S
1779865518.186097,2048,2091,7_S
1779865518.1917791,2427,1882,7_S
1779865518.191898,2187,1953,7_S
1779865518.191971,2074,2248,7_S
1779865518.192043,2111,2250,7_S
1779865518.192107,1695,1981,7_S
1779865518.192171,2587,1959,7_S
1779865518.192234,2848,1954,7_S
1779865518.1949859,1455,2088,7_S
1779865518.2036228,1974,1738,7_S
1779865518.206547,2573,1734,7_S
1779865518.206922,2554,2164,7_S
1779865518.209733,1979,2317,7_S
1779865518.2127411,843,1828,7_S
1779865518.213303,1353,1810,7_S
1779865518.213512,2499,1689,7_S
1779865518.21372,1902,2274,7_S
1779865518.218018,1596,2198,7_S
1779865518.218482,1677,1946,7_S
1779865518.218802,2337,1894,7_S
1779865518.219106,1682,2249,7_S
1779865518.224158,3558,1810,7_S
1779865518.2242959,3472,2115,7_S
1779865518.224473,1313,2150,7_S
1779865518.225963,1005,2039,7_S
1779865518.2285829,2718,1705,7_S
1779865518.2299252,2226,1822,7_S
1779865518.232647,1915,1978,7_S
1779865518.240355,1528,2133,7_S
1779865518.241271,1605,2335,7_S
1779865518.242197,999,2168,7_S
1779865518.2431989,1271,1879,7_S
1779865518.2457888,2128,1977,7_S
1779865518.248172,2453,2023,7_S
1779865518.2489228,2700,2008,7_S
1779865518.250081,1909,2059,7_S
1779865518.252366,1768,1951,7_S
1779865518.257974,1939,2245,7_S
1779865518.258093,2180,2102,7_S
1779865518.258278,3351,1816,7_S
1779865518.2584581,3811,1759,7_S
1779865518.262896,1358,2340,7_S
1779865518.263005,1202,2141,7_S
1779865518.264363,2894,1863,7_S
1779865518.2659142,1666,2326,7_S
1779865518.274,1582,2166,7_S
1779865518.275359,1958,2168,7_S
1779865518.278039,1639,2122,7_S
1779865518.28045,2277,1906,7_S
1779865518.285335,3378,1955,7_S
1779865518.2913432,2244,2231,7_S
1779865518.292065,1804,1821,7_S
1779865518.293045,1833,1836,7_S
1779865518.293482,2038,2078,7_S
1779865518.293621,1908,2348,7_S
1779865518.293849,1638,2192,7_S
1779865518.294122,1826,2018,7_S
1779865518.294274,2197,2065,7_S
1779865518.29971,1957,1967,7_S
1779865518.299871,2072,1967,7_S
1779865518.2999659,3298,1751,7_S
1779865518.3001091,2864,2349,7_S
1779865518.302766,1673,2364,7_S
1779865518.304127,1387,2137,7_S
1779865518.310192,1448,1925,7_S
1779865518.310379,1928,1930,7_S
1779865518.321632,1922,2034,7_S
1779865518.325813,2066,2073,7_S
1779865518.329864,2306,1938,7_S
1779865518.333448,2532,1960,7_S
1779865518.339521,1599,2255,7_S
1779865518.340182,2011,2072,7_S
1779865518.3411698,2521,1872,7_S
1779865518.3417568,2394,1793,7_S
1779865518.3465111,2379,1858,7_S
1779865518.346813,2375,2002,7_S
1779865518.3473558,3445,1710,7_S
1779865518.347432,1360,2309,7_S
1779865518.347497,1620,2070,7_S
1779865518.347559,2066,2042,7_S
1779865518.347703,2207,1992,7_S
1779865518.34791,2156,1961,7_S
1779865518.347981,1952,1963,7_S
1779865518.348045,1532,1822,7_S
1779865518.348106,2739,1773,7_S
1779865518.348342,1261,1986,7_S
1779865518.3498318,1738,1803,7_S
1779865518.359454,3522,1910,7_S
1779865518.362381,2334,2352,7_S
1779865518.366506,1890,2062,7_S
1779865518.36686,1246,1915,7_S
1779865518.36725,1357,2074,7_S
1779865518.367819,1720,2122,7_S
1779865518.375089,1796,2033,7_S
1779865518.3755221,1907,2072,7_S
1779865518.38144,2546,2114,7_S
1779865518.3822029,2536,2086,7_S
1779865518.382611,2329,1979,7_S
1779865518.3831549,2421,1926,7_S
1779865518.383512,2298,2203,7_S
1779865518.383828,2212,2211,7_S
1779865518.3840902,2135,1952,7_S
1779865518.3844,1791,2137,7_S
1779865518.3880498,1708,2148,7_S
1779865518.3894742,1900,2160,7_S
1779865518.389617,2387,2095,7_S
1779865518.391417,2210,1975,7_S
1779865518.392828,2400,2057,7_S
1779865518.394021,2516,1987,7_S
1779865518.3967109,1963,1990,7_S
1779865518.398656,1925,1653,7_S
1779865518.4096682,2111,2154,7_S
1779865518.410667,1920,2384,7_S
1779865518.413711,2027,2147,7_S
1779865518.4141388,2172,2044,7_S
1779865518.414826,2077,1900,7_S
1779865518.418283,2216,1950,7_S
1779865518.419426,2293,1968,7_S
1779865518.428611,2331,2031,7_S
1779865518.428975,2153,2140,7_S
1779865518.429374,2126,2243,7_S
1779865518.4298391,2132,2300,7_S
1779865518.430773,2255,2091,7_S
1779865518.431029,2072,2039,7_S
1779865518.431554,1958,2202,7_S
1779865518.437094,2297,2423,7_S
1779865518.4371881,2321,2194,7_S
1779865518.437257,2195,2174,7_S
1779865518.437321,2063,2365,7_S
1779865518.437428,1966,2413,7_S
1779865518.439562,2192,2111,7_S
1779865518.4410398,2178,2051,7_S
1779865518.450549,2227,2071,7_S
1779865518.4611242,2126,2148,7_S
1779865518.469393,2234,2175,7_S
1779865518.469922,2340,2168,7_S
1779865518.470247,2239,2222,7_S
1779865518.470748,2051,2360,7_S
1779865518.471133,2128,2325,7_S
1779865518.477264,2160,2195,7_S
1779865518.477365,2348,2145,7_S
1779865518.4774451,2302,2169,7_S
1779865518.477518,1930,2086,7_S
1779865518.4775848,1806,2225,7_S
1779865518.477814,2179,2361,7_S
1779865518.477901,1787,2400,7_S
1779865518.4779751,1675,2387,7_S
1779865518.478179,2095,2282,7_S
1779865518.478247,2041,2259,7_S
1779865518.4783192,1864,2303,7_S
1779865518.4786491,1776,2305,7_S
1779865518.480125,2154,2058,7_S
1779865518.484709,1901,2054,7_S
1779865518.4848561,1615,2083,7_S
1779865518.52849,1749,2264,7_S
1779865518.531015,2069,2102,7_S
1779865518.5318751,1706,2060,7_S
1779865518.531957,1798,1999,7_S
1779865518.5320241,1865,2233,7_S
1779865518.532088,2141,2042,7_S
1779865518.532497,1702,1778,7_S
1779865518.5327182,1752,2010,7_S
1779865518.570079,1863,2348,7_S
1779865518.570297,1977,2071,7_S
1779865518.571048,1906,1973,7_S
1779865518.571413,2208,2313,7_S
1779865518.571496,1756,2084,7_S
1779865518.572305,1867,1953,7_S
1779865518.5725849,2224,2123,7_S
1779865518.57352,2105,2819,7_S
1779865518.5782,1780,2545,7_S
1779865518.578429,1461,1967,7_S
1779865518.5785851,1365,1958,7_S
1779865518.5788548,2354,2464,7_S
1779865518.578963,2019,2498,7_S
1779865518.579038,1956,1977,7_S
1779865518.579158,2030,1916,7_S
1779865518.5793521,1870,2122,7_S
1779865518.579511,2019,2195,7_S
1779865518.579856,2123,2400,7_S
1779865518.5799649,2063,2222,7_S
1779865518.580095,2073,2136,7_S
1779865518.5801651,1738,2069,7_S
1779865518.580229,1585,2035,7_S
1779865518.5803149,1703,1847,7_S
1779865518.580378,1780,2023,7_S
1779865518.580461,1507,2084,7_S
1779865518.580524,1666,2265,7_S
1779865518.580589,2149,2288,7_S
1779865518.580728,2196,2051,7_S
1779865518.580792,1499,1765,7_S
1779865518.580856,1764,2150,7_S
1779865518.580918,1619,2114,7_S
1779865518.58098,1321,1520,7_S
1779865518.5810418,1686,1995,7_S
1779865518.581248,2173,2686,7_S
1779865518.581828,2291,3210,7_S
1779865518.5819352,2366,2688,7_S
1779865518.582013,2004,2396,7_S
1779865518.58212,2094,2586,7_S
1779865518.58219,2595,2689,7_S
1779865518.5822551,2482,2501,7_S
1779865518.5823228,2064,2435,7_S
1779865518.5837839,2059,2548,7_S
1779865518.585762,2167,2497,7_S
1779865518.5892868,2109,1975,7_S
1779865518.658336,1845,1899,7_S
1779865518.659335,1854,2248,7_S
1779865518.6611211,1927,2568,7_S
1779865518.731128,2375,2402,7_S
1779865518.7330098,2454,2353,7_S
1779865518.733314,2202,2228,7_S
1779865518.736902,2006,2342,7_S
1779865518.737671,2146,2312,7_S
1779865518.7379231,2193,2194,7_S
1779865518.737997,2317,2041,7_S
1779865518.7380621,2198,1976,7_S
1779865518.738129,2287,1933,7_S
1779865518.738643,2057,1800,7_S
1779865518.740916,2217,2044,7_S
1779865518.741674,2614,2231,7_S
1779865518.7417622,2562,2066,7_S
1779865518.7427561,2409,2173,7_S
1779865518.7452888,2795,1809,7_S
1779865518.766772,2600,1681,7_S
1779865518.7670069,2392,2301,7_S
1779865518.7671711,2615,1820,7_S
1779865518.76724,2567,1881,7_S
1779865518.767304,2203,2165,7_S
1779865518.7673678,3551,1647,7_S
1779865518.767431,1739,2243,7_S
1779865518.767489,1779,1961,7_S
1779865518.767797,2684,1128,7_S
1779865518.7681348,2016,2541,7_S
1779865518.7682078,807,2513,7_S
1779865518.768301,777,2027,7_S
1779865518.7683682,2035,1937,7_S
1779865518.7684321,3108,2047,7_S
1779865518.768496,3464,2027,7_S
1779865518.768557,2989,1894,7_S
1779865518.768619,892,2099,7_S
1779865518.768681,1148,2445,7_S
1779865518.768744,3580,1537,7_S
1779865518.768807,1737,1952,7_S
1779865518.7688682,3582,1253,7_S
1779865518.7710452,2574,2478,7_S
1779865518.786807,1711,2409,7_S
1779865518.78707,0,3174,7_S
1779865518.7873092,599,2277,7_S
1779865518.787392,975,2205,7_S
1779865518.78755,1651,2185,7_S
1779865518.787751,2524,2030,7_S
1779865518.809833,2247,2273,7_S
1779865518.809932,2090,2293,7_S
1779865518.809986,3101,1913,7_S
1779865518.810036,3657,1331,7_S
1779865518.810266,4095,1846,7_S
1779865518.8103738,1318,2499,7_S
1779865518.8104289,1414,1693,7_S
1779865518.8104792,1121,1833,7_S
1779865518.8138292,1668,1827,7_S
1779865518.8139038,872,2775,7_S
1779865518.814186,527,2543,7_S
1779865518.814239,675,2172,7_S
1779865518.814285,917,1945,7_S
1779865518.8143349,2091,1854,7_S
1779865518.895689,3009,1906,7_S
1779865518.896071,3460,1890,7_S
1779865518.896173,2773,1987,7_S
1779865518.8962402,1969,2116,7_S
1779865518.896565,1532,2325,7_S
1779865518.896835,1489,2323,7_S
1779865518.8974562,1765,2177,7_S
1779865518.899063,2133,2021,7_S
1779865518.9000719,2403,1926,7_S
1779865518.900471,2418,2011,7_S
1779865518.903766,2345,2001,7_S
1779865518.903852,2046,1985,7_S
1779865518.9039161,1752,2231,7_S
1779865518.906123,1597,2414,7_S
1779865518.913119,1720,2217,7_S
1779865518.9132311,1864,2072,7_S
1779865518.9135711,2044,2147,7_S
1779865518.914237,2139,2381,7_S
1779865518.914346,2181,2261,7_S
1779865518.914633,2084,2238,7_S
1779865518.920706,2077,2262,7_S
1779865518.9326458,1765,2474,7_S
1779865518.947314,1740,2196,7_S
1779865518.9524422,1917,2017,7_S
1779865518.952524,2141,1866,7_S
1779865518.9525802,2101,1960,7_S
1779865518.9554062,2043,1919,7_S
1779865518.9793348,2056,1980,7_S
1779865518.9797308,1991,2099,7_S
1779865518.979892,1861,2261,7_S
1779865518.9799628,1950,2299,7_S
1779865518.9800918,1980,2288,7_S
1779865518.9801579,2095,2180,7_S
1779865518.980212,2142,2242,7_S
1779865518.980273,2059,2262,7_S
1779865518.9804878,2114,2202,7_S
1779865518.9806058,2269,2244,7_S
1779865518.980729,2149,2377,7_S
1779865518.980799,1876,2336,7_S
1779865518.980865,1812,2240,7_S
1779865518.9809651,1917,2074,7_S
1779865518.981036,2072,2049,7_S
1779865518.981099,1957,2126,7_S
1779865518.9811609,1987,2080,7_S
1779865518.981316,2164,2006,7_S
1779865518.981384,2239,2085,7_S
1779865518.9815302,1971,2324,7_S
1779865518.981631,1853,2152,7_S
1779865518.98174,2959,1893,7_S
1779865518.9818099,2059,2129,7_S
1779865518.981875,1541,2067,7_S
1779865518.981941,1749,2016,7_S
1779865518.982134,1996,1951,7_S
1779865518.9822059,1988,1966,7_S
1779865518.982263,1840,2057,7_S
1779865518.982316,2046,2140,7_S
1779865518.982368,2425,1904,7_S
1779865518.9824169,2643,1876,7_S
1779865518.982817,1377,2018,7_S
1779865518.982995,1789,1956,7_S
1779865518.983126,2126,1905,7_S
1779865518.9832692,2081,1889,7_S
1779865518.983434,1900,2033,7_S
1779865518.983486,1851,2137,7_S
1779865518.9835908,2580,1807,7_S
1779865518.983652,1806,1918,7_S
1779865518.9837089,1453,1730,7_S
1779865518.983767,1908,1809,7_S
1779865518.983823,2294,1911,7_S
1779865518.98388,2165,1908,7_S
1779865518.983938,1931,2024,7_S
1779865518.9842,1838,2205,7_S
1779865518.9844348,1834,2211,7_S
1779865518.9845219,2086,2049,7_S
1779865518.984592,2210,1999,7_S
1779865518.984698,2297,2017,7_S
1779865518.984767,2326,2006,7_S
1779865518.984833,2308,1948,7_S
1779865518.984898,2262,2008,7_S
1779865518.984961,1908,2255,7_S
1779865518.985023,1856,2119,7_S
1779865518.985085,1905,1949,7_S
1779865518.985279,2055,1954,7_S
1779865518.985384,2134,2000,7_S
1779865518.985524,2177,2073,7_S
1779865518.985614,2258,2031,7_S
1779865518.985719,2132,2167,7_S
1779865518.9858072,2026,2313,7_S
1779865518.985877,1949,2398,7_S
1779865518.985944,1989,2249,7_S
1779865518.986023,2062,2099,7_S
1779865518.9860868,2101,2013,7_S
1779865518.986155,2139,2156,7_S
1779865518.986217,2204,2183,7_S
1779865518.98628,2209,2032,7_S
1779865518.9863412,2253,2174,7_S
1779865518.9864478,2046,2349,7_S
1779865518.9865332,1986,2179,7_S
1779865518.9866612,2176,2039,7_S
1779865518.986745,2039,2033,7_S
1779865518.9871192,1938,2217,7_S
1779865518.9873972,1962,2188,7_S
1779865518.995291,1955,2020,7_S
1779865519.013258,1951,2099,7_S
1779865519.01362,1868,2325,7_S
1779865519.013847,1932,2265,7_S
1779865519.018877,2013,1994,7_S
1779865519.0189672,2121,1971,7_S
1779865519.019031,2162,2062,7_S
1779865519.01909,2117,2010,7_S
1779865519.0191512,2156,1845,7_S
1779865519.019208,2122,1996,7_S
1779865519.0192661,1988,2162,7_S
1779865519.0193222,1947,2364,7_S
1779865519.019534,2033,2115,7_S
1779865519.019745,2053,2048,7_S
1779865519.019834,2066,2067,7_S
1779865519.019905,2050,2188,7_S
1779865519.0199711,2118,2132,7_S
1779865519.020086,2107,2071,7_S
1779865519.020152,2033,2119,7_S
1779865519.020215,1993,2300,7_S
1779865519.0202749,2029,2255,7_S
1779865519.020349,2028,2030,7_S
1779865519.0204108,2074,2048,7_S
1779865519.020656,2067,2105,7_S
1779865519.0207381,2115,2134,7_S
1779865519.0208871,2144,1993,7_S
1779865519.020992,2078,2000,7_S
1779865519.021069,2016,2162,7_S
1779865519.021129,2013,2241,7_S
1779865519.021187,2071,1940,7_S
1779865519.021934,2111,2007,7_S
1779865519.022042,2117,2165,7_S
1779865519.0312011,2013,2091,7_S
1779865519.044061,2073,1983,7_S
1779865519.0443609,2072,2068,7_S
1779865519.044537,2012,2145,7_S
1779865519.051541,1987,2198,7_S
1779865519.056927,2067,2060,7_S
1779865519.057019,2116,1957,7_S
1779865519.0573509,2106,2022,7_S
1779865519.057417,2062,2106,7_S
1779865519.05776,2074,1943,7_S
1779865519.058016,2141,1970,7_S
1779865519.058177,2050,2071,7_S
1779865519.05825,2010,2216,7_S
1779865519.058323,2128,2117,7_S
1779865519.058389,2139,2038,7_S
1779865519.058454,2098,2025,7_S
1779865519.0585222,2096,2087,7_S
1779865519.05859,2071,2104,7_S
1779865519.0586529,2102,2022,7_S
1779865519.0593438,2089,2088,7_S
1779865519.059412,2010,2281,7_S
1779865519.059474,2004,2294,7_S
1779865519.059603,2007,2119,7_S
1779865519.059793,2012,1933,7_S
1779865519.059857,2080,1890,7_S
1779865519.059965,2085,1996,7_S
1779865519.0600588,2032,1812,7_S
1779865519.0601301,2019,1794,7_S
1779865519.060203,1982,2047,7_S
1779865519.0602639,1965,2234,7_S
1779865519.061216,2048,2057,7_S
1779865519.061377,2092,1852,7_S
1779865519.061493,2074,1907,7_S
1779865519.061731,2054,1965,7_S
1779865519.061829,2059,2043,7_S
1779865519.061986,2056,2070,7_S
1779865519.062075,1990,2200,7_S
1779865519.06229,1977,2248,7_S
1779865519.0623648,2071,2305,7_S
1779865519.06246,2074,2103,7_S
1779865519.062529,2054,2031,7_S
1779865519.0633001,2036,2317,7_S
1779865519.063532,2106,2333,7_S
1779865519.064969,2096,2131,7_S
1779865519.075948,2004,2174,7_S
1779865519.076285,1948,2330,7_S
1779865519.086449,1998,2319,7_S
1779865519.094223,2073,2113,7_S
1779865519.099225,2103,2008,7_S
1779865519.1004689,2066,2056,7_S
1779865519.100539,2035,2136,7_S
1779865519.100715,2105,1959,7_S
1779865519.101835,2043,1950,7_S
1779865519.101936,2047,1990,7_S
1779865519.102638,2014,1998,7_S
1779865519.102709,2078,1892,7_S
1779865519.1152399,2049,1855,7_S
1779865519.1244538,2113,1830,7_S
1779865519.125504,2045,1878,7_S
1779865519.130919,2066,1696,7_S
1779865519.1310232,2022,1668,7_S
1779865519.1310961,1999,1850,7_S
1779865519.131166,1961,1999,7_S
1779865519.1312299,2011,1948,7_S
1779865519.131294,2030,1840,7_S
1779865519.131358,2067,1776,7_S
1779865519.131575,2080,1900,7_S
1779865519.1317089,2076,1965,7_S
1779865519.1317801,2124,1821,7_S
1779865519.131893,2074,1951,7_S
1779865519.132013,1999,2149,7_S
1779865519.132092,2060,2236,7_S
1779865519.1321568,2129,2044,7_S
1779865519.1322198,2103,1974,7_S
1779865519.132283,2063,1923,7_S
1779865519.1323452,2008,1973,7_S
1779865519.132407,2067,1882,7_S
1779865519.132468,2032,1897,7_S
1779865519.134193,2005,2074,7_S
1779865519.137611,2014,2207,7_S
1779865519.137856,2072,2011,7_S
1779865519.141713,2100,2015,7_S
1779865519.151401,2170,2002,7_S
1779865519.161,2054,2092,7_S
1779865519.170725,2051,2056,7_S
1779865519.17618,2083,2020,7_S
1779865519.176778,2029,2119,7_S
1779865519.17696,1989,2286,7_S
1779865519.177061,2076,2118,7_S
1779865519.1771278,1985,1942,7_S
1779865519.177231,1970,1984,7_S
1779865519.177363,2103,1998,7_S
1779865519.177459,2104,1993,7_S
1779865519.177578,2159,1937,7_S
1779865519.1777222,2145,2062,7_S
1779865519.1778061,2029,2193,7_S
1779865519.178096,2007,2202,7_S
1779865519.178182,2065,2043,7_S
1779865519.17825,2081,1980,7_S
1779865519.178328,2066,2085,7_S
1779865519.1785002,2051,2128,7_S
1779865519.180991,2092,2050,7_S
1779865519.182451,2008,2001,7_S
1779865519.195182,1961,2182,7_S
1779865519.196382,2013,2286,7_S
1779865519.210392,2118,2122,7_S
1779865519.2108102,2026,2018,7_S
1779865519.215862,2057,1990,7_S
1779865519.2160761,2047,2101,7_S
1779865519.2163641,2127,2086,7_S
1779865519.216465,2192,2019,7_S
1779865519.216532,2071,2107,7_S
1779865519.216596,1871,2264,7_S
1779865519.2166579,2018,2187,7_S
1779865519.216946,2102,2082,7_S
1779865519.21707,2072,2007,7_S
1779865519.2171462,2007,2135,7_S
1779865519.2172108,2105,2145,7_S
1779865519.2172742,2112,2003,7_S
1779865519.217335,2007,2087,7_S
1779865519.218734,1960,2301,7_S
1779865519.2202082,2066,2360,7_S
1779865519.2431931,2073,2198,7_S
1779865519.2573152,2098,2078,7_S
1779865519.258018,2067,2097,7_S
1779865519.258174,2070,2235,7_S
1779865519.258328,2053,2101,7_S
1779865519.258534,2001,2078,7_S
1779865519.258623,1963,2200,7_S
1779865519.2586932,1956,2329,7_S
1779865519.259006,2092,2190,7_S
1779865519.259134,1994,2105,7_S
1779865519.2600589,2027,1975,7_S
1779865519.2602408,2040,2056,7_S
1779865519.2606878,1982,2070,7_S
1779865519.268163,1977,2024,7_S
1779865519.280562,2090,2209,7_S
1779865519.280937,2144,2350,7_S
1779865519.29281,2121,1992,7_S
1779865519.293379,2061,1860,7_S
1779865519.2939,2229,1786,7_S
1779865519.294064,2197,1870,7_S
1779865519.294228,2031,1734,7_S
1779865519.294299,2111,1641,7_S
1779865519.294436,2018,1669,7_S
1779865519.294516,1943,1903,7_S
1779865519.2945962,1965,2009,7_S
1779865519.294805,2115,1906,7_S
1779865519.295229,1970,1876,7_S
1779865519.2953112,2041,1820,7_S
1779865519.295892,1998,1881,7_S
1779865519.2960691,2052,1886,7_S
1779865519.296183,2043,1898,7_S
1779865519.2977228,2001,2001,7_S
1779865519.298856,1991,2069,7_S
1779865519.299083,2077,2012,7_S
1779865519.299165,2082,1910,7_S
1779865519.2992342,2064,1996,7_S
1779865519.299298,2100,2176,7_S
1779865519.299387,2059,2063,7_S
1779865519.299496,2130,2019,7_S
1779865519.299726,1996,2005,7_S
1779865519.302926,1961,2228,7_S
1779865519.319337,2093,2218,7_S
1779865519.3368452,2062,2040,7_S
1779865519.336998,2057,1967,7_S
1779865519.3370728,2009,2070,7_S
1779865519.337137,2073,2084,7_S
1779865519.337263,2081,2042,7_S
1779865519.337485,2092,2013,7_S
1779865519.337636,1885,2211,7_S
1779865519.33779,1939,2187,7_S
1779865519.3378701,2050,1938,7_S
1779865519.3379378,2140,1840,7_S
1779865519.3380039,2120,1793,7_S
1779865519.338067,2104,1878,7_S
1779865519.338131,2132,1768,7_S
1779865519.338197,2020,1722,7_S
1779865519.3383949,2057,1966,7_S
1779865519.3385742,2049,2133,7_S
1779865519.339612,2059,1899,7_S
1779865519.33989,2027,1871,7_S
1779865519.363605,2106,1921,7_S
1779865519.364244,2071,2096,7_S
1779865519.369843,2064,2044,7_S
1779865519.3713028,2057,1990,7_S
1779865519.373733,1999,2031,7_S
1779865519.373811,1987,2192,7_S
1779865519.3738759,2111,2185,7_S
1779865519.3744059,2160,2057,7_S
1779865519.374544,1918,1949,7_S
1779865519.3746078,2061,2041,7_S
1779865519.374667,2142,2007,7_S
1779865519.3748229,2077,1882,7_S
1779865519.37824,1996,2022,7_S
1779865519.378422,2084,2161,7_S
1779865519.3785431,2081,2216,7_S
1779865519.378614,2117,2090,7_S
1779865519.3787441,2075,2003,7_S
1779865519.3789499,2051,2045,7_S
1779865519.379029,2080,2083,7_S
1779865519.3936582,2094,1931,7_S
1779865519.398137,2134,1952,7_S
1779865519.406512,2050,2039,7_S
1779865519.411096,1894,2165,7_S
1779865519.411626,2014,1981,7_S
1779865519.4117608,2150,1854,7_S
1779865519.4118478,2048,1810,7_S
1779865519.4119208,1990,1930,7_S
1779865519.411984,2073,1839,7_S
1779865519.4120471,2189,1719,7_S
1779865519.412176,2065,1988,7_S
1779865519.412318,2026,2440,7_S
1779865519.41252,2058,2509,7_S
1779865519.4126568,2115,2116,7_S
1779865519.41281,2148,1969,7_S
1779865519.412914,2138,2122,7_S
1779865519.4131498,2134,2209,7_S
1779865519.4144409,2093,2070,7_S
1779865519.438106,2093,2137,7_S
1779865519.4432378,2073,2242,7_S
1779865519.4436018,2227,2197,7_S
1779865519.443776,2210,1897,7_S
1779865519.4438531,1799,1943,7_S
1779865519.4439209,2252,2227,7_S
1779865519.444187,2394,2178,7_S
1779865519.4442618,2345,2072,7_S
1779865519.4443378,1959,2279,7_S
1779865519.444404,1895,2063,7_S
1779865519.444476,1995,1988,7_S
1779865519.444543,2184,1829,7_S
1779865519.444654,2175,1831,7_S
1779865519.4448361,2051,1790,7_S
1779865519.4449081,2112,1919,7_S
1779865519.4462342,2110,1917,7_S
1779865519.4477,2085,1848,7_S
1779865519.4508731,2079,2092,7_S
1779865519.45244,2015,2221,7_S
1779865519.461335,2051,2095,7_S
1779865519.464542,2078,1988,7_S
1779865519.4786282,2088,1975,7_S
1779865519.478755,2075,2115,7_S
1779865519.478834,2104,1976,7_S
1779865519.4801369,2116,1897,7_S
1779865519.4866931,2088,2138,7_S
1779865519.486861,2012,2382,7_S
1779865519.4870772,2053,2341,7_S
1779865519.487267,2129,2169,7_S
1779865519.487571,2115,2135,7_S
1779865519.487732,2057,2210,7_S
1779865519.487802,1969,2199,7_S
1779865519.487865,2051,2074,7_S
1779865519.488513,2112,2128,7_S
1779865519.49028,1994,2233,7_S
1779865519.5029309,2010,2363,7_S
1779865519.517164,2107,2220,7_S
1779865519.518508,2016,2102,7_S
1779865519.518618,2048,2053,7_S
1779865519.5188868,2135,2090,7_S
1779865519.518965,2141,2054,7_S
1779865519.5190358,2124,1961,7_S
1779865519.519108,2001,2105,7_S
1779865519.519217,2005,2212,7_S
1779865519.519281,2057,2198,7_S
1779865519.519398,2061,2108,7_S
1779865519.5195909,2092,2022,7_S
1779865519.519669,2170,2156,7_S
1779865519.519736,2036,2212,7_S
1779865519.519876,2052,2046,7_S
1779865519.519997,2029,2024,7_S
1779865519.520266,2015,2177,7_S
1779865519.520336,2041,2260,7_S
1779865519.525554,2085,2123,7_S
1779865519.525697,2165,2015,7_S
1779865519.526121,2115,2057,7_S
1779865519.544845,2001,2080,7_S
1779865519.557268,2077,2013,7_S
1779865519.5580428,2063,2084,7_S
1779865519.558199,2000,2261,7_S
1779865519.5583758,2036,2368,7_S
1779865519.558561,2087,2071,7_S
1779865519.558689,2014,2066,7_S
1779865519.558849,2111,2039,7_S
1779865519.5590038,2111,2160,7_S
1779865519.5591948,2087,2091,7_S
1779865519.55926,2132,2041,7_S
1779865519.559358,2015,2041,7_S
1779865519.559445,1972,2266,7_S
1779865519.559637,2064,2185,7_S
1779865519.559781,2132,2032,7_S
1779865519.55992,2175,1947,7_S
1779865519.560033,2045,2003,7_S
1779865519.5698361,2065,2057,7_S
1779865519.574395,2146,2022,7_S
1779865519.5845408,2060,2057,7_S
1779865519.589616,1960,2226,7_S
1779865519.589749,2010,2320,7_S
1779865519.58992,2127,2130,7_S
1779865519.590086,2093,2087,7_S
1779865519.5904078,2059,2056,7_S
1779865519.59064,2004,2137,7_S
1779865519.5908968,2056,1994,7_S
1779865519.591226,2095,2037,7_S
1779865519.591572,2065,2243,7_S
1779865519.591653,1996,2342,7_S
1779865519.5917199,2141,2146,7_S
1779865519.591786,2068,2034,7_S
1779865519.591983,2053,2020,7_S
1779865519.594781,1999,2095,7_S
1779865519.5966,2083,2065,7_S
1779865519.598358,2064,2030,7_S
1779865519.609261,2019,2115,7_S
1779865519.609344,1955,2256,7_S
1779865519.609401,2041,2256,7_S
1779865519.609514,2083,2204,7_S
1779865519.609653,2079,2122,7_S
1779865519.609754,2074,2179,7_S
1779865519.620244,2194,2314,7_S
1779865519.6264472,2101,2153,7_S
1779865519.6265879,1976,2162,7_S
1779865519.626667,1971,2337,7_S
1779865519.6267362,2133,2397,7_S
1779865519.626799,2141,2106,7_S
1779865519.6268601,2090,2063,7_S
1779865519.626919,2083,2146,7_S
1779865519.628293,2063,2213,7_S
1779865519.634411,2144,2062,7_S
1779865519.637442,2141,2046,7_S
1779865519.64112,2038,2194,7_S
1779865519.644738,1979,2387,7_S
1779865519.647542,2028,2132,7_S
1779865519.6533482,2062,2045,7_S
1779865519.657944,2087,2071,7_S
1779865519.658127,2068,2178,7_S
1779865519.658261,2093,2107,7_S
1779865519.658327,2025,2026,7_S
1779865519.658514,1960,2133,7_S
1779865519.658595,1961,2298,7_S
1779865519.658668,2084,2222,7_S
1779865519.65874,1985,2067,7_S
1779865519.658868,2076,2000,7_S
1779865519.66022,2126,2067,7_S
1779865519.66165,2059,2084,7_S
1779865519.664581,2097,1927,7_S
1779865519.6754198,2057,2074,7_S
1779865519.686044,2027,2217,7_S
1779865519.691484,2007,2234,7_S
1779865519.694645,2081,2113,7_S
1779865519.6961348,2026,2082,7_S
1779865519.696495,2121,2106,7_S
1779865519.696629,2056,2154,7_S
1779865519.696716,2154,2032,7_S
1779865519.696788,2087,2084,7_S
1779865519.6969311,2030,2223,7_S
1779865519.697029,1965,2272,7_S
1779865519.697093,2010,2128,7_S
1779865519.6971562,2159,2033,7_S
1779865519.697442,2090,2038,7_S
1779865519.69753,2026,2085,7_S
1779865519.697657,2050,2026,7_S
1779865519.6977339,2138,2039,7_S
1779865519.711597,2096,2163,7_S
1779865519.711921,1993,2220,7_S
1779865519.7124338,2011,2187,7_S
1779865519.7160718,2075,2087,7_S
1779865519.7274518,2077,2051,7_S
1779865519.728118,2037,2038,7_S
1779865519.72832,2073,2084,7_S
1779865519.7284338,2037,1969,7_S
1779865519.7286,2018,2091,7_S
1779865519.728739,1979,2254,7_S
1779865519.728826,2013,2253,7_S
1779865519.7290509,2139,2091,7_S
1779865519.729195,2045,2038,7_S
1779865519.72927,2047,2054,7_S
1779865519.7293398,2046,2153,7_S
1779865519.730617,2107,2015,7_S
1779865519.7322109,2059,2030,7_S
1779865519.73387,1959,2189,7_S
1779865519.7469912,1913,2323,7_S
1779865519.747854,2100,2125,7_S
1779865519.7479339,2164,1990,7_S
1779865519.747999,2064,1973,7_S
1779865519.74806,2008,2095,7_S
1779865519.7481222,2035,2049,7_S
1779865519.748183,2100,1968,7_S
1779865519.756532,2039,2106,7_S
1779865519.7592142,1924,2250,7_S
1779865519.763833,2001,2189,7_S
1779865519.764169,2072,2060,7_S
1779865519.7642481,2084,1999,7_S
1779865519.7643452,2061,2079,7_S
1779865519.764547,2129,2113,7_S
1779865519.764916,2082,1958,7_S
1779865519.7680352,2049,2019,7_S
1779865519.76914,2058,2191,7_S
1779865519.770646,2045,2289,7_S
1779865519.772044,2085,2109,7_S
1779865519.785058,2027,2072,7_S
1779865519.785878,1988,2017,7_S
1779865519.791113,2002,2117,7_S
1779865519.796059,2077,2012,7_S
1779865519.7966468,2094,2001,7_S
1779865519.7969432,2025,2136,7_S
1779865519.8009658,1993,2261,7_S
1779865519.8012218,2043,2101,7_S
1779865519.801339,2028,2023,7_S
1779865519.80163,2053,1942,7_S
1779865519.801724,2186,2034,7_S
1779865519.801827,2432,1993,7_S
1779865519.80194,2535,1846,7_S
1779865519.802063,2221,2074,7_S
1779865519.802192,2164,2084,7_S
1779865519.803749,2026,2235,7_S
1779865519.806635,2530,1913,7_S
1779865519.8080692,1746,2145,7_S
1779865519.822168,1424,2237,7_S
1779865519.826286,1609,2005,7_S
1779865519.832942,2570,1708,7_S
1779865519.837056,1720,2172,7_S
1779865519.837153,1338,2347,7_S
1779865519.837257,2221,2292,7_S
1779865519.837333,3803,1695,7_S
1779865519.837402,2945,1754,7_S
1779865519.8374689,1540,2398,7_S
1779865519.837541,2066,2079,7_S
1779865519.837603,2141,1931,7_S
1779865519.837663,1506,2060,7_S
1779865519.837848,1587,2242,7_S
1779865519.837963,1137,2361,7_S
1779865519.8380291,1286,2174,7_S
1779865519.8569028,1419,2023,7_S
1779865519.861668,2041,2009,7_S
1779865519.8656352,2236,2015,7_S
1779865519.866703,2778,1953,7_S
1779865519.866786,2509,1879,7_S
1779865519.8669848,1965,2127,7_S
1779865519.867585,2639,2152,7_S
1779865519.867929,2521,2044,7_S
1779865519.868053,2896,1867,7_S
1779865519.868172,1560,2081,7_S
1779865519.868237,1724,1958,7_S
1779865519.868298,1723,1888,7_S
1779865519.868358,1724,2043,7_S
1779865519.8684192,2230,1848,7_S
1779865519.868479,1723,2383,7_S
1779865519.869859,2071,2064,7_S
1779865519.872677,1841,2077,7_S
1779865519.874182,1770,2102,7_S
1779865519.882244,2077,1901,7_S
1779865519.882331,2090,2055,7_S
1779865519.882396,2458,1925,7_S
1779865519.882459,1853,2091,7_S
1779865519.889652,1502,2071,7_S
1779865519.896749,1623,2183,7_S
1779865519.8975658,1917,1947,7_S
1779865519.901788,1976,1759,7_S
1779865519.901879,1994,1687,7_S
1779865519.901945,2121,1762,7_S
1779865519.902007,2226,1655,7_S
1779865519.902375,2503,1536,7_S
1779865519.902524,2572,1525,7_S
1779865519.90259,2589,1975,7_S
1779865519.9041998,1462,2091,7_S
1779865519.9112582,1473,1852,7_S
1779865519.912407,1866,1773,7_S
1779865519.9272141,2300,1937,7_S
1779865519.927926,2546,1898,7_S
1779865519.9324422,2037,2030,7_S
1779865519.932587,1403,2160,7_S
1779865519.932663,1635,2217,7_S
1779865519.932725,2299,2137,7_S
1779865519.9328692,2513,1766,7_S
1779865519.932968,2470,2014,7_S
1779865519.933037,2118,2018,7_S
1779865519.933103,1491,2207,7_S
1779865519.9331682,2239,1789,7_S
1779865519.933236,1378,2144,7_S
1779865519.934648,1747,2146,7_S
1779865519.9361331,2178,2166,7_S
1779865519.937599,2289,2035,7_S
1779865519.94883,1861,1987,7_S
1779865519.9527721,1871,2026,7_S
1779865519.953217,2613,1986,7_S
1779865519.953711,2719,2144,7_S
1779865519.956497,2140,1849,7_S
1779865519.964021,1475,2291,7_S
1779865519.964426,2644,2153,7_S
1779865519.9645078,2134,2342,7_S
1779865519.964573,1674,1905,7_S
1779865519.9650161,1763,1922,7_S
1779865519.9656441,1793,2181,7_S
1779865519.970419,1946,2212,7_S
1779865519.970735,2126,1926,7_S
1779865519.9709911,1780,2120,7_S
1779865519.97137,1684,2193,7_S
1779865519.9715688,2021,2267,7_S
1779865519.9716558,2346,2196,7_S
1779865519.974741,2400,1978,7_S
1779865519.986536,2046,1947,7_S
1779865519.987069,2235,1978,7_S
1779865519.997637,2326,1774,7_S
1779865519.998192,2119,1861,7_S
1779865519.99828,2113,1996,7_S
1779865519.998349,2202,2321,7_S
1779865519.9986072,2150,1995,7_S
1779865519.999267,1927,1839,7_S
1779865519.999346,2056,1813,7_S
1779865520.003909,2195,2157,7_S
1779865520.004032,2396,2066,7_S
1779865520.004199,2986,1741,7_S
1779865520.004268,1878,2184,7_S
1779865520.0047538,1596,2293,7_S
1779865520.004918,2391,1972,7_S
1779865520.00636,2610,2014,7_S
1779865520.009205,1798,2138,7_S
1779865520.0108979,1544,2181,7_S
1779865520.019697,1845,1872,7_S
1779865520.025959,2665,1859,7_S
1779865520.0287948,1326,2004,7_S
1779865520.036563,1223,2178,7_S
1779865520.037428,2661,2071,7_S
1779865520.037955,2663,2019,7_S
1779865520.0431309,2135,2009,7_S
1779865520.043273,2389,1989,7_S
1779865520.043349,1157,2229,7_S
1779865520.043416,1415,1789,7_S
1779865520.043485,1873,1910,7_S
1779865520.043638,1834,2166,7_S
1779865520.0437162,1829,2391,7_S
1779865520.043802,2470,2064,7_S
1779865520.044009,2711,2033,7_S
1779865520.044171,2363,1954,7_S
1779865520.0442939,1967,2158,7_S
1779865520.0456572,2249,2122,7_S
1779865520.063137,1986,2212,7_S
1779865520.063236,2494,2125,7_S
1779865520.063304,2477,2199,7_S
1779865520.0718982,1236,2239,7_S
1779865520.0734642,1773,1981,7_S
1779865520.0737112,1646,1925,7_S
1779865520.073878,2124,1916,7_S
1779865520.073961,2777,1647,7_S
1779865520.0741582,2973,2031,7_S
1779865520.074247,1808,2236,7_S
1779865520.074313,1614,2098,7_S
1779865520.074378,2981,1911,7_S
1779865520.0744388,2432,2180,7_S
1779865520.074506,1316,1924,7_S
1779865520.076343,1753,1869,7_S
1779865520.077749,2325,2094,7_S
1779865520.080556,2056,1881,7_S
1779865520.082344,1813,1915,7_S
1779865520.095458,1476,1999,7_S
1779865520.098939,1457,2330,7_S
1779865520.104087,2370,2294,7_S
1779865520.108256,3513,1898,7_S
1779865520.108875,2810,1991,7_S
1779865520.109068,1553,1949,7_S
1779865520.109146,1347,2037,7_S
1779865520.1092129,1549,1817,7_S
1779865520.1093261,3103,1822,7_S
1779865520.109389,2248,1994,7_S
1779865520.109448,1266,1936,7_S
1779865520.1095302,1824,1772,7_S
1779865520.109591,3752,1774,7_S
1779865520.109649,1994,2185,7_S
1779865520.112577,1558,1868,7_S
1779865520.1275148,1810,1986,7_S
1779865520.127914,2010,2028,7_S
1779865520.130333,2224,2337,7_S
1779865520.130472,1954,2195,7_S
1779865520.1357272,2009,2147,7_S
1779865520.140146,1961,2088,7_S
1779865520.140254,2568,2042,7_S
1779865520.140345,1953,2410,7_S
1779865520.140418,2391,1735,7_S
1779865520.140491,2536,2051,7_S
1779865520.140794,2363,1948,7_S
1779865520.140863,3259,2200,7_S
1779865520.140928,2555,2198,7_S
1779865520.1409888,1107,1953,7_S
1779865520.1423411,1628,1840,7_S
1779865520.14368,2353,2009,7_S
1779865520.146385,2529,1967,7_S
1779865520.147775,2543,2074,7_S
1779865520.160558,2763,2099,7_S
1779865520.163436,2032,2340,7_S
1779865520.171768,1916,2139,7_S
1779865520.176878,2091,2018,7_S
1779865520.1770391,2153,2069,7_S
1779865520.177119,2556,1878,7_S
1779865520.177186,2606,2071,7_S
1779865520.177252,2311,2142,7_S
1779865520.1773162,2467,2044,7_S
1779865520.1774569,2528,2188,7_S
1779865520.17765,2472,2182,7_S
1779865520.177771,2617,2132,7_S
1779865520.177917,2770,2036,7_S
1779865520.177993,2738,1909,7_S
1779865520.1780841,2604,2032,7_S
1779865520.1917272,2935,2683,7_S
1779865520.1924338,2888,2625,7_S
1779865520.1978948,2781,2118,7_S
1779865520.207737,2666,2224,7_S
1779865520.207946,2750,2165,7_S
1779865520.208042,2372,2100,7_S
1779865520.2081122,2201,2136,7_S
1779865520.2082171,2528,2204,7_S
1779865520.2083,2764,2056,7_S
1779865520.208362,2675,1963,7_S
1779865520.208427,2604,2312,7_S
1779865520.208491,2471,2407,7_S
1779865520.208552,2483,2488,7_S
1779865520.20866,2748,2262,7_S
1779865520.208797,2552,2132,7_S
1779865520.210156,2538,2161,7_S
1779865520.211637,2389,2189,7_S
1779865520.214165,2237,2025,7_S
1779865520.2156281,2216,1941,7_S
1779865520.244403,2178,2060,7_S
1779865520.256959,1967,1913,7_S
1779865520.257503,2008,2101,7_S
1779865520.257757,2484,2493,7_S
1779865520.257851,2527,2522,7_S
1779865520.2579231,2220,2031,7_S
1779865520.2580302,2231,1988,7_S
1779865520.25822,2373,2146,7_S
1779865520.2583401,2485,2406,7_S
1779865520.2584052,2300,2571,7_S
1779865520.258471,2162,2396,7_S
1779865520.258582,2309,2210,7_S
1779865520.2587242,2179,2185,7_S
1779865520.258809,2139,2196,7_S
1779865520.2589529,2149,2020,7_S
1779865520.2590148,2165,1928,7_S
1779865520.259073,1856,2113,7_S
1779865520.259132,1877,2264,7_S
1779865520.25926,2041,2217,7_S
1779865520.259347,2240,2079,7_S
1779865520.2594292,2139,2065,7_S
1779865520.259655,1801,1899,7_S
1779865520.271717,1855,1856,7_S
1779865520.275761,2141,2167,7_S
1779865520.2811189,2124,2171,7_S
1779865520.281218,2101,2344,7_S
1779865520.2812889,2011,2405,7_S
1779865520.281418,2026,2193,7_S
1779865520.281638,1795,2093,7_S
1779865520.287574,1478,2255,7_S
1779865520.293099,2043,2414,7_S
1779865520.2931871,2087,2145,7_S
1779865520.2932549,1794,2138,7_S
1779865520.293321,1995,2192,7_S
1779865520.293417,1797,2389,7_S
1779865520.2935948,1630,2067,7_S
1779865520.293712,1799,1932,7_S
1779865520.2938502,1948,2085,7_S
1779865520.293935,1594,2127,7_S
1779865520.296981,1161,1978,7_S
1779865520.2984881,1360,1755,7_S
1779865520.30067,1491,2074,7_S
1779865520.329688,1547,2916,7_S
1779865520.3299289,1886,2916,7_S
1779865520.330014,1652,2287,7_S
1779865520.330125,2338,1956,7_S
1779865520.330534,1748,2212,7_S
1779865520.330637,1660,2440,7_S
1779865520.330697,1699,2455,7_S
1779865520.3307571,1383,2276,7_S
1779865520.330817,1839,2565,7_S
1779865520.33099,1825,2329,7_S
1779865520.331146,1509,1889,7_S
1779865520.331472,1731,2095,7_S
1779865520.331864,2261,2421,7_S
1779865520.331994,2310,2481,7_S
1779865520.332054,1992,2150,7_S
1779865520.332124,1973,2244,7_S
1779865520.342645,2013,2385,7_S
1779865520.343646,1941,2415,7_S
1779865520.360172,1988,2212,7_S
1779865520.3660889,1827,2382,7_S
1779865520.366205,1928,2340,7_S
1779865520.366275,1935,2195,7_S
1779865520.366478,1894,2133,7_S
1779865520.366545,1989,1825,7_S
1779865520.366606,1596,1776,7_S
1779865520.366724,2071,2166,7_S
1779865520.366785,2235,2440,7_S
1779865520.366844,1977,1974,7_S
1779865520.366903,1788,1883,7_S
1779865520.366962,2370,2231,7_S
1779865520.367021,2441,2499,7_S
1779865520.36708,2619,2344,7_S
1779865520.3671381,2437,2294,7_S
1779865520.368525,2548,2648,7_S
1779865520.370048,2056,2605,7_S
1779865520.373097,2074,2158,7_S
1779865520.374906,2530,1743,7_S
1779865520.3842921,2161,2185,7_S
1779865520.391989,2326,2092,7_S
1779865520.393127,2302,1767,7_S
1779865520.4070468,2325,1904,7_S
1779865520.407149,3613,1171,7_S
1779865520.407218,2062,2435,7_S
1779865520.407278,644,2803,7_S
1779865520.408184,2137,1593,7_S
1779865520.408602,2851,1509,7_S
1779865520.408698,1689,2446,7_S
1779865520.4089139,3176,1527,7_S
1779865520.408997,2758,1467,7_S
1779865520.4090612,1457,2397,7_S
1779865520.409218,1021,2267,7_S
1779865520.409605,1126,2162,7_S
1779865520.4097018,3370,1606,7_S
1779865520.410218,1801,2176,7_S
1779865520.4103758,862,2233,7_S
1779865520.4267972,146,2383,7_S
1779865520.4356139,741,2088,7_S
1779865520.440303,2382,1755,7_S
1779865520.441741,2222,2112,7_S
1779865520.441909,1211,2570,7_S
1779865520.441986,1624,2249,7_S
1779865520.44205,2308,1937,7_S
1779865520.44211,2129,1953,7_S
1779865520.442335,1797,2291,7_S
1779865520.4423978,1854,2218,7_S
1779865520.4424582,1959,2227,7_S
1779865520.442653,2074,2311,7_S
1779865520.442733,2576,2265,7_S
1779865520.442796,2511,2399,7_S
1779865520.442899,1878,2081,7_S
1779865520.4429739,2562,1717,7_S
1779865520.444363,2454,2004,7_S
1779865520.445785,1724,2305,7_S
1779865520.4486048,1559,1843,7_S
1779865520.450023,1926,1705,7_S
1779865520.4522061,2059,2039,7_S
1779865520.4777448,1676,2150,7_S
1779865520.482653,1588,1868,7_S
1779865520.4827561,2182,1781,7_S
1779865520.482825,2223,1928,7_S
1779865520.482888,2033,2037,7_S
1779865520.48295,2104,1845,7_S
1779865520.483011,2018,1955,7_S
1779865520.4831932,1935,2150,7_S
1779865520.483265,1904,2180,7_S
1779865520.483329,1996,1927,7_S
1779865520.483445,2141,1832,7_S
1779865520.48371,2180,1865,7_S
1779865520.484066,2094,2098,7_S
1779865520.4844632,2136,2124,7_S
1779865520.484551,2049,2289,7_S
1779865520.484616,1896,2361,7_S
1779865520.4862359,1874,2526,7_S
1779865520.509963,2039,2303,7_S
1779865520.5153239,2044,2130,7_S
1779865520.5155761,1980,2132,7_S
1779865520.5158122,1978,2169,7_S
1779865520.5158882,2018,2188,7_S
1779865520.516012,2047,2170,7_S
1779865520.5160818,1994,2277,7_S
1779865520.516165,1889,2403,7_S
1779865520.516232,1943,2259,7_S
1779865520.5162969,2000,2145,7_S
1779865520.5163672,2123,2067,7_S
1779865520.516431,2049,2165,7_S
1779865520.516495,2041,2173,7_S
1779865520.5165598,2068,2022,7_S
1779865520.51662,1954,2151,7_S
1779865520.518185,1898,2225,7_S
1779865520.521109,1966,2163,7_S
1779865520.525182,2012,2162,7_S
1779865520.525273,1926,2090,7_S
1779865520.560948,1941,2102,7_S
1779865520.561733,2016,2121,7_S
1779865520.561849,1992,2116,7_S
1779865520.561919,1945,2068,7_S
1779865520.562041,1903,2180,7_S
1779865520.56218,1912,2290,7_S
1779865520.5622962,2017,2149,7_S
1779865520.562363,2044,2024,7_S
1779865520.5624478,2044,2000,7_S
1779865520.5625112,1955,2105,7_S
1779865520.562598,2025,2041,7_S
1779865520.562662,2118,1913,7_S
1779865520.562778,2051,1994,7_S
1779865520.562953,1936,2121,7_S
1779865520.563123,1881,2174,7_S
1779865520.5633621,1959,1943,7_S
1779865520.56344,2010,1879,7_S
1779865520.563508,1974,1957,7_S
1779865520.5635688,1985,2033,7_S
1779865520.563924,2083,1963,7_S
1779865520.566587,1983,2075,7_S
1779865520.580074,2017,2171,7_S
1779865520.5840058,2085,2255,7_S
1779865520.586914,1965,2098,7_S
1779865520.60733,1950,1973,7_S
1779865520.608109,1799,2034,7_S
1779865520.6086268,1868,2050,7_S
1779865520.608705,1943,2021,7_S
1779865520.608768,1951,2007,7_S
1779865520.608882,1931,2137,7_S
1779865520.6089642,1894,2207,7_S
1779865520.6090329,1976,2133,7_S
1779865520.609123,2068,2070,7_S
1779865520.60923,2141,1995,7_S
1779865520.609291,2170,2032,7_S
1779865520.609359,2162,2088,7_S
1779865520.609418,2192,2055,7_S
1779865520.6094809,2037,2011,7_S
1779865520.609636,1965,2092,7_S
1779865520.609708,2078,2162,7_S
1779865520.609816,2241,2126,7_S
1779865520.609966,2109,2048,7_S
1779865520.61009,2028,2013,7_S
1779865520.61298,2273,1999,7_S
1779865520.629599,2167,2074,7_S
1779865520.638707,1815,2116,7_S
1779865520.642506,1745,2219,7_S
1779865520.643779,1785,2249,7_S
1779865520.6438751,2002,1993,7_S
1779865520.643949,2014,2007,7_S
1779865520.644053,1974,2009,7_S
1779865520.644174,2054,2146,7_S
1779865520.6442938,2110,2062,7_S
1779865520.644407,2041,2132,7_S
1779865520.644475,2071,2242,7_S
1779865520.644541,2079,2388,7_S
1779865520.644602,2154,2230,7_S
1779865520.644665,2070,2085,7_S
1779865520.644728,2003,1865,7_S
1779865520.644789,1977,2058,7_S
1779865520.6462212,2046,2072,7_S
1779865520.6596491,2098,1779,7_S
1779865520.665975,2063,1867,7_S
1779865520.6721358,2035,2148,7_S
1779865520.676605,2087,2001,7_S
1779865520.677989,2069,1937,7_S
1779865520.678151,2118,2004,7_S
1779865520.678247,2053,2103,7_S
1779865520.678316,1989,2124,7_S
1779865520.678474,2015,2087,7_S
1779865520.678615,1941,2031,7_S
1779865520.678764,1912,2244,7_S
1779865520.678833,1969,2275,7_S
1779865520.678924,2084,2080,7_S
1779865520.679092,2086,2047,7_S
1779865520.6792479,2126,1976,7_S
1779865520.67933,2039,2041,7_S
1779865520.680722,2004,1942,7_S
1779865520.6821241,1978,1948,7_S
1779865520.683583,2006,2139,7_S
1779865520.686393,1942,2312,7_S
1779865520.6996748,1995,2229,7_S
1779865520.7117429,1994,2110,7_S
1779865520.7122052,2009,2058,7_S
1779865520.71297,2004,2086,7_S
1779865520.713239,2299,2086,7_S
1779865520.7136772,2191,2066,7_S
1779865520.7184372,1918,2142,7_S
1779865520.718945,1934,2252,7_S
1779865520.7190342,1980,2180,7_S
1779865520.7191029,2050,2084,7_S
1779865520.719167,1956,2018,7_S
1779865520.7192278,1923,2165,7_S
1779865520.719289,2019,2183,7_S
1779865520.719392,2005,2037,7_S
1779865520.719462,1998,2082,7_S
1779865520.719556,1985,2237,7_S
1779865520.7196212,1949,2296,7_S
1779865520.7301278,2057,2138,7_S
1779865520.73502,2072,2130,7_S
1779865520.735256,2002,2165,7_S
1779865520.744065,1963,2233,7_S
1779865520.750329,2078,2125,7_S
1779865520.75105,2015,2189,7_S
1779865520.7577689,1987,2276,7_S
1779865520.758071,1970,2291,7_S
1779865520.7582562,2081,2145,7_S
1779865520.7583659,2101,2153,7_S
1779865520.758484,2065,2187,7_S
1779865520.758623,2016,2227,7_S
1779865520.7586958,2033,2136,7_S
1779865520.758935,2069,1998,7_S
1779865520.759042,2031,2143,7_S
1779865520.759118,2003,2329,7_S
1779865520.7591932,2025,2245,7_S
1779865520.759268,2036,2100,7_S
1779865520.75935,2051,2011,7_S
1779865520.760912,2019,1961,7_S
1779865520.762284,2024,2072,7_S
1779865520.763642,2031,1979,7_S
1779865520.766392,1976,2078,7_S
1779865520.7929752,1903,2252,7_S
1779865520.793629,1935,2349,7_S
1779865520.7941172,2053,2115,7_S
1779865520.79475,2064,2040,7_S
1779865520.7951832,2037,2100,7_S
1779865520.799683,1963,2177,7_S
1779865520.799826,1995,2085,7_S
1779865520.800077,2070,2171,7_S
1779865520.800168,2010,2302,7_S
1779865520.800243,1930,2358,7_S
1779865520.800321,2023,2232,7_S
1779865520.800384,2070,2131,7_S
1779865520.8004532,2066,2116,7_S
1779865520.800558,1987,2171,7_S
1779865520.800771,2046,2135,7_S
1779865520.800873,2070,2050,7_S
1779865520.8010292,2012,2089,7_S
1779865520.803029,1986,2257,7_S
1779865520.812049,2009,2227,7_S
1779865520.818305,2000,2064,7_S
1779865520.821974,2042,1972,7_S
1779865520.8277838,2052,1916,7_S
1779865520.8283288,2055,1959,7_S
1779865520.828694,2085,1837,7_S
1779865520.8291469,1985,1908,7_S
1779865520.829356,1984,2069,7_S
1779865520.833579,1931,2158,7_S
1779865520.833683,2034,2021,7_S
1779865520.833927,2075,1894,7_S
1779865520.834033,2045,1899,7_S
1779865520.8341591,2025,1950,7_S
1779865520.834292,2073,1824,7_S
1779865520.8344488,2079,1977,7_S
1779865520.834522,2016,2145,7_S
1779865520.835868,2014,2129,7_S
1779865520.83854,2062,1927,7_S
1779865520.840071,2042,1794,7_S
1779865520.849259,2032,1847,7_S
1779865520.850315,2025,1869,7_S
1779865520.851866,2029,1793,7_S
1779865520.858019,2056,1664,7_S
1779865520.858876,1988,1881,7_S
1779865520.866604,1962,2000,7_S
1779865520.86735,2034,2009,7_S
1779865520.8682408,2014,1927,7_S
1779865520.8714309,2044,1965,7_S
1779865520.871684,1993,2029,7_S
1779865520.8731148,1998,2021,7_S
1779865520.874006,2090,1831,7_S
1779865520.874193,2117,1858,7_S
1779865520.874339,2088,1902,7_S
1779865520.874433,1939,1941,7_S
1779865520.8745751,1941,1781,7_S
1779865520.874651,2122,1864,7_S
1779865520.876363,2133,1938,7_S
1779865520.9105248,2001,2031,7_S
1779865520.9107149,2020,2020,7_S
1779865520.910856,2016,2119,7_S
1779865520.911082,1920,2172,7_S
1779865520.912022,1922,2243,7_S
1779865520.9132001,2043,2098,7_S
1779865520.9137049,2184,1990,7_S
1779865520.91397,2154,1993,7_S
1779865520.914042,2083,2091,7_S
1779865520.914167,2075,2029,7_S
1779865520.914232,2076,2017,7_S
1779865520.914294,1993,2155,7_S
1779865520.9143538,1939,2242,7_S
1779865520.9144168,1857,2208,7_S
1779865520.914477,1937,2073,7_S
1779865520.9145339,2104,2025,7_S
1779865520.914592,2075,2020,7_S
1779865520.9146519,2089,2075,7_S
1779865520.914711,2167,1994,7_S
1779865520.9167502,2115,2067,7_S
1779865520.9189079,1956,2304,7_S
1779865520.979367,1845,2347,7_S
1779865520.98241,1972,2117,7_S
1779865520.982771,2132,2065,7_S
1779865520.982851,2064,1992,7_S
1779865520.982934,1970,2022,7_S
1779865520.9831622,2013,1942,7_S
1779865520.983222,2040,1956,7_S
1779865520.9832802,2087,2087,7_S
1779865520.9833379,2075,2271,7_S
1779865520.9840598,2061,1980,7_S
1779865520.984124,2131,1842,7_S
1779865520.984185,2159,1902,7_S
1779865520.984242,2102,2016,7_S
1779865520.9843001,2004,1963,7_S
1779865520.9843562,1987,1923,7_S
1779865520.984413,2029,1923,7_S
1779865520.984469,1949,2117,7_S
1779865520.984525,1977,2146,7_S
1779865520.9845812,2058,1967,7_S
1779865520.984637,2095,1950,7_S
1779865520.984693,2106,2133,7_S
1779865520.984749,1986,1944,7_S
1779865520.984805,1835,1580,7_S
1779865520.984861,1953,1727,7_S
1779865520.985996,2157,2660,7_S
1779865520.986547,2145,2618,7_S
1779865520.986625,1908,1922,7_S
1779865520.9869282,2032,1745,7_S
1779865520.987094,2069,1970,7_S
1779865520.987233,2010,2235,7_S
1779865520.988,2200,2189,7_S
1779865520.988348,2072,2016,7_S
1779865520.988466,2062,1846,7_S
1779865520.9888,1935,2126,7_S
1779865520.9892921,2076,2090,7_S
1779865520.9908412,2066,2142,7_S
1779865521.027127,1909,1950,7_S
1779865521.027215,1942,2204,7_S
1779865521.027277,1969,2008,7_S
1779865521.02736,2212,1878,7_S
1779865521.027421,2121,1998,7_S
1779865521.027642,1996,2137,7_S
1779865521.028357,1927,1933,7_S
1779865521.029825,2003,1843,7_S
1779865521.029891,2103,1982,7_S
1779865521.02995,2117,2084,7_S
1779865521.0302532,2028,2161,7_S
1779865521.0303931,1781,1791,7_S
1779865521.031359,1991,1891,7_S
1779865521.031574,2061,2309,7_S
1779865521.0472078,1974,2219,7_S
1779865521.0563421,2101,1944,7_S
1779865521.0603552,2210,1839,7_S
1779865521.060579,2137,1785,7_S
1779865521.060687,1899,1806,7_S
1779865521.06079,2117,1959,7_S
1779865521.061003,2137,2023,7_S
1779865521.0612102,2007,2285,7_S
1779865521.0612879,1927,2127,7_S
1779865521.061353,1967,2054,7_S
1779865521.061457,2025,1919,7_S
1779865521.0616431,2095,2010,7_S
1779865521.0618088,2042,2089,7_S
1779865521.061878,2083,2176,7_S
1779865521.061943,2182,2070,7_S
1779865521.0620081,1889,2022,7_S
1779865521.062072,1906,2251,7_S
1779865521.062135,1978,2345,7_S
1779865521.062196,1993,2201,7_S
1779865521.06228,2136,2169,7_S
1779865521.0623748,2076,2135,7_S
1779865521.062478,1956,2095,7_S
1779865521.0639648,2099,1874,7_S
1779865521.066696,2078,1915,7_S
1779865521.076731,2117,2145,7_S
1779865521.0836182,2002,2107,7_S
1779865521.090484,1990,2055,7_S
1779865521.096546,2091,2075,7_S
1779865521.10094,2029,2099,7_S
1779865521.1010501,1978,2090,7_S
1779865521.101174,2061,2033,7_S
1779865521.101249,2132,2031,7_S
1779865521.1013818,2032,2117,7_S
1779865521.1014552,1877,2079,7_S
1779865521.101535,1990,1808,7_S
1779865521.101599,2110,1742,7_S
1779865521.101675,2119,1635,7_S
1779865521.1017432,2080,1767,7_S
1779865521.1018171,2099,1798,7_S
1779865521.101946,2074,1711,7_S
1779865521.10213,1981,1866,7_S
1779865521.102221,1983,2053,7_S
1779865521.103651,2019,2180,7_S
1779865521.127367,2033,1937,7_S
1779865521.1277409,2152,1968,7_S
1779865521.1281788,2150,1996,7_S
1779865521.129067,2057,2123,7_S
1779865521.132701,2027,2069,7_S
1779865521.133166,2021,2107,7_S
1779865521.133504,1999,2412,7_S
1779865521.1336598,1926,2505,7_S
1779865521.133734,2015,2254,7_S
1779865521.133806,2061,2162,7_S
1779865521.1338701,2076,2228,7_S
1779865521.1339352,1995,2169,7_S
1779865521.133999,2043,2082,7_S
1779865521.134062,1962,2025,7_S
1779865521.1341288,2013,2170,7_S
1779865521.13687,1883,2323,7_S
1779865521.138289,1909,2244,7_S
1779865521.1397629,2155,2046,7_S
1779865521.142674,2162,2163,7_S
1779865521.156051,2052,2204,7_S
1779865521.165879,2021,2110,7_S
1779865521.170479,2109,2166,7_S
1779865521.17065,2130,2261,7_S
1779865521.170725,1986,2442,7_S
1779865521.170898,1902,2309,7_S
1779865521.1710348,2248,2155,7_S
1779865521.1711528,2141,2142,7_S
1779865521.171262,1896,2163,7_S
1779865521.171382,2078,2237,7_S
1779865521.171586,2180,2042,7_S
1779865521.171695,2078,2001,7_S
1779865521.1718311,1917,2072,7_S
1779865521.171919,1823,2163,7_S
1779865521.171984,2025,2054,7_S
1779865521.182861,2193,2112,7_S
1779865521.186576,1985,2019,7_S
1779865521.198208,1901,1884,7_S
1779865521.1985831,1988,1811,7_S
1779865521.1989372,1990,1881,7_S
1779865521.1995,1989,2042,7_S
1779865521.20023,2041,2181,7_S
1779865521.200305,2173,1969,7_S
1779865521.2005918,2018,1795,7_S
1779865521.205228,1974,1837,7_S
1779865521.2053702,2042,1898,7_S
1779865521.205469,2094,2009,7_S
1779865521.2057521,2117,2023,7_S
1779865521.205833,2108,2140,7_S
1779865521.205961,1933,2296,7_S
1779865521.206033,2048,2082,7_S
1779865521.206207,2092,1968,7_S
1779865521.2077749,2101,1981,7_S
1779865521.210437,2023,2061,7_S
1779865521.21189,2005,2181,7_S
1779865521.2146509,2082,2011,7_S
1779865521.229352,2011,1988,7_S
1779865521.2355158,1956,2181,7_S
1779865521.240693,1946,2276,7_S
1779865521.241653,2027,2044,7_S
1779865521.242097,2080,1949,7_S
1779865521.242499,2077,1992,7_S
1779865521.242999,2029,2109,7_S
1779865521.2434042,2061,1983,7_S
1779865521.2439098,2063,1979,7_S
1779865521.248527,2054,2150,7_S
1779865521.248938,1994,2263,7_S
1779865521.249015,2123,2149,7_S
1779865521.249079,2133,2050,7_S
1779865521.2491782,2101,2053,7_S
1779865521.249242,2085,2147,7_S
1779865521.249304,2148,2033,7_S
1779865521.249364,2230,1973,7_S
1779865521.250763,2120,2109,7_S
1779865521.2522008,2028,2263,7_S
1779865521.261566,2058,2220,7_S
1779865521.263444,2098,2015,7_S
1779865521.26388,2062,2002,7_S
1779865521.267563,2132,2060,7_S
1779865521.271007,2091,2118,7_S
1779865521.27497,2077,1923,7_S
1779865521.281159,2077,1834,7_S
1779865521.281366,2063,2067,7_S
1779865521.281457,2029,2146,7_S
1779865521.281806,2030,1962,7_S
1779865521.282219,2105,1895,7_S
1779865521.282506,2098,1913,7_S
1779865521.282899,2053,1995,7_S
1779865521.283499,2104,1902,7_S
1779865521.288874,2082,1931,7_S
1779865521.2891462,2077,2104,7_S
1779865521.28928,1917,2239,7_S
1779865521.289493,2061,2196,7_S
1779865521.290869,2096,2163,7_S
1779865521.292476,2110,2140,7_S
1779865521.2938602,2085,2245,7_S
1779865521.296814,2031,2193,7_S
1779865521.298219,2057,2046,7_S
1779865521.315182,2027,2259,7_S
1779865521.3216908,2044,2413,7_S
1779865521.327699,2060,2329,7_S
1779865521.3325791,2110,2033,7_S
1779865521.333024,2061,1998,7_S
1779865521.333188,2091,2071,7_S
1779865521.333257,2109,2100,7_S
1779865521.333411,2110,1988,7_S
1779865521.3335738,2040,2118,7_S
1779865521.333699,1989,2244,7_S
1779865521.333807,1964,2234,7_S
1779865521.333888,2089,2084,7_S
1779865521.333955,2112,2062,7_S
1779865521.334021,2063,2038,7_S
1779865521.334086,2031,2086,7_S
1779865521.3341491,2071,2042,7_S
1779865521.334219,2018,2014,7_S
1779865521.334288,1976,2182,7_S
1779865521.3357902,1990,2305,7_S
1779865521.345634,2076,2173,7_S
1779865521.353935,2104,2086,7_S
1779865521.358964,2108,2095,7_S
1779865521.364864,2095,2089,7_S
1779865521.369316,2101,2026,7_S
1779865521.370956,2102,2041,7_S
1779865521.371038,2048,2098,7_S
1779865521.371211,1921,2225,7_S
1779865521.371336,1976,2225,7_S
1779865521.371409,2063,2084,7_S
1779865521.371474,2071,1985,7_S
1779865521.3716211,2031,2051,7_S
1779865521.371731,2059,1932,7_S
1779865521.3719091,2121,1863,7_S
1779865521.372004,2057,1988,7_S
1779865521.3730729,2009,2113,7_S
1779865521.3731542,2009,2165,7_S
1779865521.373379,2069,1989,7_S
1779865521.374897,2052,1972,7_S
1779865521.376381,2009,2024,7_S
1779865521.377755,2005,2104,7_S
1779865521.380683,2089,2022,7_S
1779865521.393099,2062,2036,7_S
1779865521.398004,1982,2158,7_S
1779865521.398614,2023,2272,7_S
1779865521.40165,2138,2092,7_S
1779865521.4046028,2128,2046,7_S
1779865521.409322,2090,1992,7_S
1779865521.409515,2009,2013,7_S
1779865521.409921,2072,2017,7_S
1779865521.410432,2095,1905,7_S
1779865521.4107141,1984,2087,7_S
1779865521.411031,1948,2270,7_S
1779865521.411385,2005,2183,7_S
1779865521.411836,2058,2056,7_S
1779865521.412035,2098,2023,7_S
1779865521.4170291,2062,2116,7_S
1779865521.417525,2076,2130,7_S
1779865521.417665,2095,1983,7_S
1779865521.417797,2149,2071,7_S
1779865521.417911,2078,2216,7_S
1779865521.420546,1985,2265,7_S
1779865521.432778,2041,2047,7_S
1779865521.4355059,2069,2026,7_S
1779865521.4415371,2109,2037,7_S
1779865521.441934,2089,2131,7_S
1779865521.446581,2161,1987,7_S
1779865521.447326,2052,1968,7_S
1779865521.448163,2017,2174,7_S
1779865521.448534,1970,2315,7_S
1779865521.452158,2022,2199,7_S
1779865521.45348,2075,2072,7_S
1779865521.453622,2029,2027,7_S
1779865521.4537349,2026,2093,7_S
1779865521.4538062,2030,2047,7_S
1779865521.453962,2023,1986,7_S
1779865521.454037,1967,2112,7_S
1779865521.454101,1970,2202,7_S
1779865521.454164,2095,2182,7_S
1779865521.4567199,2109,2020,7_S
1779865521.458258,2133,1973,7_S
1779865521.460743,2073,2054,7_S
1779865521.462222,1951,2113,7_S
1779865521.478167,2126,2122,7_S
1779865521.4945862,2115,2183,7_S
1779865521.4961438,1982,2314,7_S
1779865521.496588,1938,2374,7_S
1779865521.496681,2043,2184,7_S
1779865521.496748,2121,2092,7_S
1779865521.496811,2083,2152,7_S
1779865521.496873,2013,2168,7_S
1779865521.496934,2087,2070,7_S
1779865521.4969978,2055,2008,7_S
1779865521.4971619,2036,2188,7_S
1779865521.497232,1967,2300,7_S
1779865521.497293,2059,2158,7_S
1779865521.497355,2009,2029,7_S
1779865521.497419,2127,2010,7_S
1779865521.497479,2159,2130,7_S
1779865521.4976058,2124,2064,7_S
1779865521.4977212,2040,1982,7_S
1779865521.5078652,2024,2087,7_S
1779865521.5097978,1964,2237,7_S
1779865521.5100958,2015,2174,7_S
1779865521.512189,2084,2050,7_S
1779865521.5126138,2056,2019,7_S
1779865521.5164092,2027,2031,7_S
1779865521.52092,2032,2071,7_S
1779865521.52446,2094,1947,7_S
1779865521.5305338,2042,1959,7_S
1779865521.5307798,2002,2207,7_S
1779865521.5347588,1976,2358,7_S
1779865521.536551,2079,2117,7_S
1779865521.5367181,2111,1979,7_S
1779865521.536795,2069,2017,7_S
1779865521.53686,2012,2107,7_S
1779865521.536923,2044,2009,7_S
1779865521.5369852,2053,2007,7_S
1779865521.537046,1993,2199,7_S
1779865521.537109,1989,2284,7_S
1779865521.5385559,2077,2140,7_S
1779865521.539994,2091,1979,7_S
1779865521.543238,2078,2050,7_S
1779865521.5446138,2035,2087,7_S
1779865521.556847,2101,2017,7_S
1779865521.571998,2121,1989,7_S
1779865521.572779,2058,2080,7_S
1779865521.573026,1980,2247,7_S
1779865521.5734808,2052,2244,7_S
1779865521.574212,2082,2047,7_S
1779865521.57918,2138,1972,7_S
1779865521.579561,2060,2014,7_S
1779865521.579974,2013,2035,7_S
1779865521.580276,2084,1992,7_S
1779865521.580789,2033,2062,7_S
1779865521.580864,1963,2139,7_S
1779865521.580929,1999,2257,7_S
1779865521.580991,2155,2064,7_S
1779865521.581053,2106,1977,7_S
1779865521.581116,2224,2010,7_S
1779865521.581176,2202,2077,7_S
1779865521.5812402,2354,1923,7_S
1779865521.582783,2284,1906,7_S
1779865521.59341,1907,2262,7_S
1779865521.6048582,1769,2344,7_S
1779865521.609941,2074,2153,7_S
1779865521.610657,2589,1791,7_S
