timestamp,ch1,ch2,label
1788787658.792289,2564,2226,0
1788787658.793772,2574,2127,0
1788787658.795948,2543,2753,0
1788787658.7978802,2505,1895,0
1788787658.799941,2515,1765,0
1788787658.801167,2500,2513,0
1788787658.801445,2356,542,0
1788787658.8034072,2211,2097,0
1788787658.804857,2350,2402,0
1788787658.807484,2408,1776,0
1788787658.8088372,2383,2721,0
1788787658.81624,2300,2187,0
1788787658.817947,2290,1641,0
1788787658.818593,2363,2361,0
1788787658.821235,2289,1169,0
1788787658.822639,2220,1681,0
1788787658.8230212,2156,2440,0
1788787658.823182,2259,1900,0
1788787658.8256772,2377,2413,0
1788787658.8270788,2350,2621,0
1788787658.829716,2326,1675,0
1788787658.836511,2336,2009,0
1788787658.838612,2329,2076,0
1788787658.840226,2210,1131,0
1788787658.842101,2059,2332,0
1788787658.843241,2148,2220,0
1788787658.843476,2257,2189,0
1788787658.845663,2304,2739,0
1788787658.8458612,2264,1884,0
1788787658.847272,2260,1778,0
1788787658.849918,2292,2483,0
1788787658.851264,2271,557,0
1788787658.859172,2239,2100,0
1788787658.863793,2290,2392,0
1788787658.864116,2224,1769,0
1788787658.864459,2175,2667,0
1788787658.864971,2172,2193,0
1788787658.8671849,2155,1648,0
1788787658.8678882,2256,2371,0
1788787658.867958,2166,1062,0
1788787658.869326,2071,1695,0
1788787658.87199,2168,2438,0
1788787658.873395,2261,1884,0
1788787658.87847,2296,2420,0
1788787658.8795562,2308,2615,0
1788787658.881592,2266,1675,0
1788787658.881866,2271,2018,0
1788787658.885275,2140,1997,0
1788787658.8871439,2091,1156,0
1788787658.887299,2034,2337,0
1788787658.8898392,2207,2205,0
1788787658.8912058,2228,2156,0
1788787658.893619,2202,2748,0
1788787658.894997,2122,1875,0
1788787658.901691,2191,1795,0
1788787658.9028878,2188,2430,0
1788787658.9048152,2098,584,0
1788787658.908364,2021,2111,0
1788787658.909889,2104,2385,0
1788787658.9102778,2111,1789,0
1788787658.913037,2199,2594,0
1788787658.913159,2125,2183,0
1788787658.913226,2075,1652,0
1788787658.914853,2141,2380,0
1788787658.917493,2109,992,0
1788787658.926294,2034,1710,0
1788787658.9281201,2035,2435,0
1788787658.931572,2099,1868,0
1788787658.933203,2146,2463,0
1788787658.9334311,2157,2596,0
1788787658.9337971,2140,1672,0
1788787658.934156,2157,2033,0
1788787658.9344902,2109,1985,0
1788787658.938271,2035,1177,0
1788787658.938554,1984,2341,0
1788787658.9399009,2106,2194,0
1788787658.9445179,2134,2216,0
1788787658.9456,2135,2690,0
1788787658.9465868,2064,1878,0
1788787658.948319,2151,1797,0
1788787658.954192,2193,2403,0
1788787658.9544902,2035,607,0
1788787658.954877,1956,2117,0
1788787658.9556942,2130,2373,0
1788787658.9581828,2214,1856,0
1788787658.959525,2209,2641,0
1788787658.96086,2130,2179,0
1788787658.963735,2152,1667,0
1788787658.970762,2231,2408,0
1788787658.971071,2164,923,0
1788787658.971328,2102,1740,0
1788787658.973717,2116,2432,0
1788787658.9762702,2135,1838,0
1788787658.9764621,2139,2440,0
1788787658.978239,2079,2570,0
1788787658.981005,2076,1664,0
1788787658.9810848,2195,2055,0
1788787658.9837189,2137,1905,0
1788787658.985078,2028,1212,0
1788787658.9950469,1970,2349,0
1788787658.998882,2088,2174,0
1788787659.001315,2092,2238,0
1788787659.00157,2117,2690,0
1788787659.001931,2068,1874,0
1788787659.002723,2153,1811,0
1788787659.005552,2140,2357,0
1788787659.005864,2082,648,0
1788787659.005941,1970,2134,0
1788787659.006005,2058,2361,0
1788787659.007349,2139,1918,0
1788787659.015828,2188,2574,0
1788787659.0187252,2136,2155,0
1788787659.022099,2088,1680,0
1788787659.0225742,2149,2448,0
1788787659.023055,2064,919,0
1788787659.0234802,2020,1757,0
1788787659.0261471,2004,2428,0
1788787659.026407,2087,1818,0
1788787659.0264719,2123,2435,0
1788787659.027808,2099,2549,0
1788787659.029011,2056,1667,0
1788787659.03176,2148,2068,0
1788787659.0376441,2106,1889,0
1788787659.038811,2001,1232,0
1788787659.0406988,1935,2353,0
1788787659.042759,2092,2176,0
1788787659.046924,2119,2219,0
1788787659.047284,2057,2724,0
1788787659.047505,2006,1848,0
1788787659.048178,2149,1822,0
1788787659.050928,2148,2343,0
1788787659.05125,2026,669,0
1788787659.0538292,1921,2142,0
1788787659.063817,2027,2355,0
1788787659.0640588,2101,1958,0
1788787659.064337,2112,2593,0
1788787659.068359,2061,2142,0
1788787659.071022,2073,1687,0
1788787659.071498,2132,2460,0
1788787659.0741582,2073,901,0
1788787659.074496,1994,1775,0
1788787659.074562,2011,2426,0
1788787659.074624,2071,1800,0
1788787659.075966,2109,2435,0
1788787659.0773041,2108,2541,0
1788787659.0788538,2104,1666,0
1788787659.0861068,2178,2078,0
1788787659.093508,2120,1864,0
1788787659.095953,2030,1253,0
1788787659.096533,1966,2358,0
1788787659.09676,2083,2152,0
1788787659.09902,2120,2255,0
1788787659.09967,2129,2690,0
1788787659.099804,2056,1842,0
1788787659.09988,2128,1829,0
1788787659.099941,2105,2322,0
1788787659.101283,2008,690,0
1788787659.108171,1907,2151,0
1788787659.109979,2057,2348,0
1788787659.111872,2128,1969,0
1788787659.11243,2148,2623,0
1788787659.1148748,2119,2132,0
1788787659.11671,2071,1689,0
1788787659.1188731,2135,2479,0
1788787659.119169,2074,837,0
1788787659.1196601,1977,1798,0
1788787659.122599,1985,2426,0
1788787659.123948,2041,1781,0
1788787659.125296,2100,2471,0
1788787659.1279051,2127,2516,0
1788787659.134558,2084,1655,0
1788787659.137501,2145,2095,0
1788787659.137852,2085,1832,0
1788787659.139849,2049,1281,0
1788787659.140743,1991,2365,0
1788787659.1426182,2076,2138,0
1788787659.14515,2098,2235,0
1788787659.148711,2116,2691,0
1788787659.148878,2055,1828,0
1788787659.14895,2113,1837,0
1788787659.149014,2109,2305,0
1788787659.1516852,2060,715,0
1788787659.158144,1960,2162,0
1788787659.159105,2064,2343,0
1788787659.161258,2112,2017,0
1788787659.162813,2150,2671,0
1788787659.1633978,2097,2106,0
1788787659.16397,2096,1699,0
1788787659.1676538,2158,2505,0
1788787659.168038,2072,788,0
1788787659.171309,1994,1824,0
1788787659.171513,2041,2425,0
1788787659.1728761,2109,1758,0
1788787659.175498,2120,2478,0
1788787659.1768901,2099,2492,0
1788787659.181603,2070,1656,0
1788787659.183199,2135,2111,0
1788787659.183924,2088,1794,0
1788787659.186154,2017,1311,0
1788787659.189738,1932,2374,0
1788787659.1900082,2060,2124,0
1788787659.1924028,2099,2248,0
1788787659.195298,2083,2663,0
1788787659.195352,2049,1814,0
1788787659.198116,2140,1852,0
1788787659.2020211,2113,2300,0
1788787659.203713,2040,739,0
1788787659.20628,2034,2173,0
1788787659.206568,2120,2337,0
1788787659.208983,2090,2019,0
1788787659.210408,2057,2726,0
1788787659.212993,2058,2087,0
1788787659.213235,2069,1699,0
1788787659.215786,2112,2526,0
1788787659.21712,2022,774,0
1788787659.21969,1946,1845,0
1788787659.2211032,1965,2427,0
1788787659.226743,2060,1742,0
1788787659.227865,2148,2509,0
1788787659.228897,2120,2470,0
1788787659.229058,2061,1655,0
1788787659.234196,2131,2125,0
1788787659.2343621,2089,1770,0
1788787659.237101,2011,1336,0
1788787659.23763,1941,2382,0
1788787659.240391,2087,2114,0
1788787659.241729,2121,2277,0
1788787659.243049,2101,2696,0
1788787659.247754,2077,1814,0
1788787659.248406,2133,1854,0
1788787659.251124,2077,2275,0
1788787659.2512891,2028,774,0
1788787659.2534652,1964,2190,0
1788787659.257416,2055,2331,0
1788787659.2577212,2049,2071,0
1788787659.260418,2045,2725,0
1788787659.26175,2076,2068,0
1788787659.263058,2135,1705,0
1788787659.2656431,2144,2549,0
1788787659.267092,2038,732,0
1788787659.2722812,1951,1871,0
1788787659.274055,1983,2427,0
1788787659.274223,2079,1719,0
1788787659.275809,2141,2519,0
1788787659.277567,2099,2449,0
1788787659.279958,2052,1650,0
1788787659.2822862,2131,2141,0
1788787659.283604,2108,1696,0
1788787659.2849238,2025,1370,0
1788787659.287503,1946,2390,0
1788787659.29248,2063,2096,0
1788787659.292928,2127,2268,0
1788787659.2930748,2119,2668,0
1788787659.2952378,2058,1792,0
1788787659.2972858,2116,1865,0
1788787659.3007061,2083,2238,0
1788787659.3009112,2025,803,0
1788787659.303394,1944,2201,0
1788787659.305975,2049,2321,0
1788787659.307279,2116,2067,0
1788787659.312609,2145,2768,0
1788787659.313552,2082,2051,0
1788787659.314021,2059,1711,0
1788787659.315667,2124,2571,0
1788787659.317311,2067,701,0
1788787659.318978,1921,1896,0
1788787659.321753,1988,2427,0
1788787659.324213,2083,1699,0
1788787659.325525,2160,2570,0
1788787659.3268821,2075,2407,0
1788787659.329429,2027,1640,0
1788787659.332792,2149,2160,0
1788787659.333857,2135,1664,0
1788787659.336119,2018,1399,0
1788787659.3380659,1930,2397,0
1788787659.34177,2057,2080,0
1788787659.34196,2110,2299,0
1788787659.344374,2125,2697,0
1788787659.3456798,2040,1775,0
1788787659.3469539,2107,1879,0
1788787659.349431,2098,2211,0
1788787659.3547788,2033,841,0
1788787659.3565829,1941,2217,0
1788787659.3567731,2054,2311,0
1788787659.358258,2102,2102,0
1788787659.362348,2124,2772,0
1788787659.362707,2085,2034,0
1788787659.364888,2094,1709,0
1788787659.3651059,2165,2583,0
1788787659.3676732,2083,697,0
1788787659.368868,1986,1919,0
1788787659.374012,2001,2424,0
1788787659.3744462,2057,1675,0
1788787659.376742,2104,2562,0
1788787659.3801842,2084,2389,0
1788787659.381957,2071,1637,0
1788787659.382081,2140,2176,0
1788787659.384257,2068,1607,0
1788787659.385571,2003,1428,0
1788787659.386921,2002,2403,0
1788787659.389552,2100,2064,0
1788787659.3957682,2138,2299,0
1788787659.3983822,2129,2716,0
1788787659.4020932,2057,1763,0
1788787659.402576,2108,1889,0
1788787659.4056919,2083,2190,0
1788787659.4062238,2027,873,0
1788787659.406466,1944,2232,0
1788787659.4084969,2085,2304,0
1788787659.40865,2114,2166,0
1788787659.4099772,2124,2855,0
1788787659.4113522,2019,2002,0
1788787659.415644,2039,1729,0
1788787659.416605,2135,2584,0
1788787659.419202,2080,669,0
1788787659.42018,2011,1952,0
1788787659.42391,2022,2422,0
1788787659.424157,2037,1643,0
1788787659.426481,2073,2579,0
1788787659.427794,2100,2360,0
1788787659.429101,2057,1630,0
1788787659.4317608,2109,2199,0
1788787659.435832,2058,1540,0
1788787659.4367309,1982,1470,0
1788787659.439413,1967,2413,0
1788787659.439559,2065,2042,0
1788787659.441524,2127,2302,0
1788787659.4457102,2122,2661,0
1788787659.445983,2068,1749,0
1788787659.448462,2136,1904,0
1788787659.449784,2108,2145,0
1788787659.4512289,2020,909,0
1788787659.458587,1919,2245,0
1788787659.459402,2036,2291,0
1788787659.461348,2085,2156,0
1788787659.461569,2111,2789,0
1788787659.46184,2066,1993,0
1788787659.4637172,2085,1737,0
1788787659.468195,2141,2590,0
1788787659.468417,2084,623,0
1788787659.4710321,1965,1970,0
1788787659.471206,1993,2419,0
1788787659.473902,2072,1625,0
1788787659.475214,2127,2616,0
1788787659.480769,2110,2339,0
1788787659.483275,2062,1630,0
1788787659.483649,2126,2223,0
1788787659.485287,2075,1498,0
1788787659.487037,2006,1497,0
1788787659.4903061,1967,2420,0
1788787659.490867,2059,2029,0
1788787659.491005,2126,2324,0
1788787659.49407,2107,2702,0
1788787659.495446,2055,1735,0
1788787659.4980931,2129,1914,0
1788787659.5044081,2090,2129,0
1788787659.5060968,2015,943,0
1788787659.5076559,1928,2262,0
1788787659.508168,2058,2284,0
1788787659.509413,2097,2178,0
1788787659.509757,2139,2776,0
1788787659.5128372,2115,1975,0
1788787659.513068,2118,1730,0
1788787659.515556,2135,2582,0
1788787659.51705,2019,570,0
1788787659.519658,1904,1994,0
1788787659.5210361,1979,2416,0
1788787659.526693,2058,1606,0
1788787659.5276859,2099,2682,0
1788787659.529269,2059,2308,0
1788787659.529566,2042,1627,0
1788787659.5310998,2142,2241,0
1788787659.535882,2085,1435,0
1788787659.536096,2014,1535,0
1788787659.5389152,2004,2426,0
1788787659.5389922,2069,2005,0
1788787659.541578,2131,2335,0
1788787659.542999,2072,2684,0
1788787659.5492191,2021,1722,0
1788787659.5516648,2105,1929,0
1788787659.551806,2100,2093,0
1788787659.552005,2013,983,0
1788787659.5550652,1934,2276,0
1788787659.5585501,2083,2271,0
1788787659.558843,2114,2184,0
1788787659.5590951,2099,2766,0
1788787659.561408,2064,1957,0
1788787659.564079,2075,1747,0
1788787659.565408,2105,2557,0
1788787659.5718532,2038,578,0
1788787659.574174,1932,2016,0
1788787659.574434,2014,2411,0
1788787659.57461,2058,1624,0
1788787659.576558,2085,2639,0
1788787659.581026,2068,2284,0
1788787659.581385,2057,1630,0
1788787659.581604,2138,2269,0
1788787659.584024,2074,1368,0
1788787659.585367,1975,1561,0
1788787659.5879612,1981,2429,0
1788787659.58971,2068,1986,0
1788787659.594302,2114,2353,0
1788787659.594477,2103,2678,0
1788787659.596468,2061,1713,0
1788787659.597953,2126,1946,0
1788787659.603029,2097,2072,0
1788787659.603714,2019,1012,0
1788787659.604222,1940,2287,0
1788787659.606655,2046,2260,0
1788787659.6080089,2087,2177,0
1788787659.609385,2109,2779,0
1788787659.612054,2049,1940,0
1788787659.618001,2070,1757,0
1788787659.62054,2116,2510,0
1788787659.623133,2057,531,0
1788787659.628402,1938,2040,0
1788787659.628979,2020,2405,0
1788787659.629237,2073,1656,0
1788787659.6317928,2097,2664,0
1788787659.63221,2082,2258,0
1788787659.632324,2040,1635,0
1788787659.632389,2112,2290,0
1788787659.63377,2055,1315,0
1788787659.639613,1978,1598,0
1788787659.641362,1998,2431,0
1788787659.643141,2084,1959,0
1788787659.6434429,2125,2342,0
1788787659.651052,2111,2646,0
1788787659.651444,2044,1705,0
1788787659.651974,2134,1962,0
1788787659.652412,2109,2056,0
1788787659.652662,2024,1045,0
1788787659.6551611,1927,2298,0
1788787659.6552372,2045,2247,0
1788787659.657877,2096,2192,0
1788787659.659227,2127,2764,0
1788787659.6679418,2051,1924,0
1788787659.675106,2087,1768,0
1788787659.6752262,2121,2484,0
1788787659.677693,2033,529,0
1788787659.6777449,1957,2058,0
1788787659.677797,2017,2398,0
1788787659.677839,2047,1698,0
1788787659.677891,2103,2661,0
1788787659.6779299,2084,2239,0
1788787659.679605,2064,1594,0
1788787659.680984,2117,2322,0
1788787659.6912608,2072,1195,0
1788787659.6917498,1999,1629,0
1788787659.6936011,1987,2426,0
1788787659.697922,2067,1925,0
1788787659.6981592,2120,2350,0
1788787659.6986508,2098,2652,0
1788787659.698962,2061,1700,0
1788787659.701416,2145,1984,0
1788787659.7017899,2100,2023,0
1788787659.701859,2013,1087,0
1788787659.703351,1924,2310,0
1788787659.7104158,2067,2228,0
1788787659.712533,2106,2175,0
1788787659.713019,2102,2722,0
1788787659.7174919,2038,1912,0
1788787659.723809,2108,1776,0
1788787659.724749,2121,2460,0
1788787659.724853,2047,521,0
1788787659.7249448,1931,2076,0
1788787659.725009,2015,2390,0
1788787659.7250712,2084,1715,0
1788787659.725133,2108,2653,0
1788787659.7277582,2060,2217,0
1788787659.72911,2061,1642,0
1788787659.7367308,2151,2344,0
1788787659.739229,2072,1183,0
1788787659.741407,1976,1656,0
1788787659.743613,1961,2432,0
1788787659.748457,2069,1910,0
1788787659.751723,2119,2388,0
1788787659.7518258,2093,2638,0
1788787659.751893,2047,1687,0
1788787659.752011,2121,1998,0
1788787659.752151,2087,2025,0
1788787659.752234,2028,1114,0
1788787659.7536588,1940,2322,0
1788787659.760559,2070,2220,0
1788787659.7627552,2107,2201,0
1788787659.763299,2112,2722,0
1788787659.763527,2060,1893,0
1788787659.767123,2090,1781,0
1788787659.767457,2117,2476,0
1788787659.772453,2024,545,0
1788787659.772903,1937,2089,0
1788787659.77334,2023,2388,0
1788787659.77374,2081,1764,0
1788787659.776416,2100,2663,0
1788787659.7777762,2086,2199,0
1788787659.779131,2080,1649,0
1788787659.7819679,2140,2363,0
1788787659.789196,2081,1112,0
1788787659.789571,1993,1681,0
1788787659.792743,2000,2433,0
1788787659.7930229,2074,1890,0
1788787659.79334,2137,2388,0
1788787659.795425,2109,2618,0
1788787659.8017988,2051,1685,0
1788787659.802166,2129,2009,0
1788787659.802825,2082,2013,0
1788787659.8058612,2017,1139,0
1788787659.805996,1953,2330,0
1788787659.8060968,2062,2211,0
1788787659.807476,2104,2140,0
1788787659.814042,2108,2790,0
1788787659.8153632,2076,1880,0
1788787659.821516,2108,1782,0
1788787659.8263621,2123,2397,0
1788787659.82697,2033,577,0
1788787659.827589,1931,2106,0
1788787659.830349,2022,2383,0
1788787659.8304489,2067,1796,0
1788787659.83054,2076,2722,0
1788787659.830606,2065,2175,0
1788787659.83067,2055,1650,0
1788787659.8320231,2141,2384,0
1788787659.8333702,2064,1059,0
1788787659.835989,1983,1713,0
1788787659.845082,1994,2434,0
1788787659.845689,2081,1865,0
1788787659.847564,2137,2418,0
1788787659.8496032,2106,2592,0
1788787659.849911,2074,1674,0
1788787659.855405,2132,2028,0
1788787659.8556218,2093,2005,0
1788787659.8559659,2027,1172,0
1788787659.858475,1950,2340,0
1788787659.858538,2053,2197,0
1788787659.858598,2111,2221,0
1788787659.859935,2105,2719,0
1788787659.868747,2058,1872,0
1788787659.870487,2091,1796,0
1788787659.871742,2106,2403,0
1788787659.873245,2044,606,0
1788787659.873609,1939,2117,0
1788787659.878307,2039,2374,0
1788787659.879005,2112,1830,0
1788787659.8792808,2122,2538,0
1788787659.879516,2070,2182,0
1788787659.881876,2094,1665,0
1788787659.882894,2159,2399,0
1788787659.8842828,2060,959,0
1788787659.8857028,1945,1722,0
1788787659.887104,1958,2430,0
1788787659.89441,2054,1851,0
1788787659.897791,2121,2427,0
1788787659.8980072,2104,2594,0
1788787659.8998451,2060,1673,0
1788787659.902102,2123,2041,0
1788787659.9025128,2090,1985,0
1788787659.9073532,2043,1188,0
1788787659.90803,1968,2344,0
1788787659.9083881,2081,2188,0
1788787659.911181,2099,2160,0
1788787659.911262,2099,2736,0
1788787659.911326,2043,1864,0
1788787659.914368,2075,1796,0
1788787659.923418,2103,2426,0
1788787659.923838,2029,613,0
1788787659.9345999,1923,2123,0
1788787659.935903,2028,2377,0
1788787659.936172,2070,1870,0
1788787659.936259,2085,2630,0
1788787659.936358,2054,2167,0
1788787659.936476,2050,1673,0
1788787659.9366531,2130,2408,0
1788787659.936718,2071,923,0
1788787659.9367812,1971,1743,0
1788787659.939151,1991,2433,0
1788787659.939231,2067,1838,0
1788787659.942306,2125,2419,0
1788787659.9635148,2064,2574,0
1788787659.963661,2018,1666,0
1788787659.9637382,2099,2051,0
1788787659.963808,2062,1980,0
1788787659.96387,1982,1205,0
1788787659.9639318,1903,2350,0
1788787659.9639978,2028,2182,0
1788787659.9640582,2088,2166,0
1788787659.964118,2084,2738,0
1788787659.964179,2049,1856,0
1788787659.9642382,2069,1799,0
1788787659.966134,2090,2424,0
1788787659.972577,2029,628,0
1788787659.973472,1900,2132,0
1788787659.976137,2002,2375,0
1788787659.976529,2062,1865,0
1788787659.978511,2095,2611,0
1788787659.9812322,2069,2152,0
1788787659.98626,2066,1666,0
1788787659.987204,2134,2417,0
1788787659.987536,2035,899,0
1788787659.990358,1951,1750,0
1788787659.9907498,1992,2433,0
1788787659.990816,2086,1832,0
1788787659.9921532,2114,2419,0
1788787659.9935071,2078,2568,0
1788787659.996195,2043,1664,0
1788787660.002471,2146,2054,0
1788787660.005725,2089,1941,0
1788787660.007825,2004,1216,0
1788787660.0086951,1933,2352,0
1788787660.010397,2076,2176,0
1788787660.0107882,2127,2200,0
1788787660.0163012,2135,2746,0
1788787660.016601,2056,1850,0
1788787660.017149,2091,1808,0
1788787660.0175822,2101,2386,0
1788787660.0180202,2019,648,0
1788787660.02151,1918,2138,0
1788787660.021597,2033,2367,0
1788787660.024294,2092,1904,0
1788787660.0323699,2096,2669,0
1788787660.036652,2053,2143,0
1788787660.0375261,2045,1674,0
1788787660.039979,2122,2441,0
1788787660.0405,2060,838,0
1788787660.040677,1974,1777,0
1788787660.046207,2004,2433,0
1788787660.046613,2082,1808,0
1788787660.046793,2129,2429,0
1788787660.047233,2114,2557,0
1788787660.0478358,2072,1658,0
1788787660.0504792,2128,2074,0
1788787660.051478,2084,1941,0
1788787660.051578,2003,1244,0
1788787660.054323,1921,2362,0
1788787660.055742,2042,2165,0
1788787660.057139,2095,2140,0
1788787660.06379,2097,2777,0
1788787660.0653598,2019,1837,0
1788787660.068793,2087,1806,0
1788787660.0727859,2116,2396,0
1788787660.073091,2051,669,0
1788787660.077687,1940,2153,0
1788787660.078039,2042,2369,0
1788787660.0785651,2102,1918,0
1788787660.081391,2118,2675,0
1788787660.081732,2075,2128,0
1788787660.0818079,2053,1669,0
1788787660.081861,2132,2451,0
1788787660.083183,2079,724,0
1788787660.0894358,1973,1803,0
1788787660.0901508,2008,2436,0
1788787660.092299,2085,1790,0
1788787660.0925639,2133,2466,0
1788787660.09475,2085,2521,0
1788787660.100838,2061,1657,0
1788787660.1014452,2140,2087,0
1788787660.1016839,2070,1919,0
1788787660.101923,2019,1272,0
1788787660.104683,1973,2371,0
1788787660.1060102,2080,2154,0
1788787660.107323,2116,2166,0
1788787660.109893,2107,2762,0
1788787660.1163251,2040,1821,0
1788787660.117388,2112,1815,0
1788787660.119152,2134,2375,0
1788787660.1193259,2043,696,0
1788787660.1195068,1916,2164,0
1788787660.12182,2041,2362,0
1788787660.1274738,2117,1931,0
1788787660.127659,2128,2750,0
1788787660.128082,2034,2111,0
1788787660.130781,2046,1677,0
1788787660.132129,2125,2477,0
1788787660.133439,2061,669,0
1788787660.138891,1965,1834,0
1788787660.139541,2002,2438,0
1788787660.1414862,2055,1767,0
1788787660.141779,2113,2498,0
1788787660.1440718,2106,2493,0
1788787660.14563,2047,1642,0
1788787660.1501062,2146,2111,0
1788787660.150313,2108,1836,0
1788787660.1532469,2022,1312,0
1788787660.153302,1943,2381,0
1788787660.155888,2043,2134,0
1788787660.1572092,2106,2195,0
1788787660.163466,2121,2719,0
1788787660.164154,2077,1810,0
1788787660.164271,2117,1839,0
1788787660.166862,2150,2381,0
1788787660.170743,2055,729,0
1788787660.175292,1934,2180,0
1788787660.175617,2031,2355,0
1788787660.175814,2075,1957,0
1788787660.176019,2108,2845,0
1788787660.178826,2081,2075,0
1788787660.180154,2067,1682,0
1788787660.181511,2132,2511,0
1788787660.186048,2043,687,0
1788787660.187674,1956,1861,0
1788787660.1883059,2021,2440,0
1788787660.1899672,2093,1747,0
1788787660.1915278,2186,2506,0
1788787660.193352,2180,2478,0
1788787660.197758,2082,1638,0
1788787660.197946,2096,2122,0
1788787660.2004428,2074,1858,0
1788787660.20177,2004,1336,0
1788787660.203192,1930,2391,0
1788787660.2057228,2038,2126,0
1788787660.209756,2081,2147,0
1788787660.211052,2072,2766,0
1788787660.212047,2029,1793,0
1788787660.213498,2100,1833,0
1788787660.220576,2103,2346,0
1788787660.2209878,2055,753,0
1788787660.223218,1941,2193,0
1788787660.2238588,2040,2353,0
1788787660.2239301,2111,2013,0
1788787660.2252421,2131,2841,0
1788787660.227822,2055,2061,0
1788787660.229131,2079,1702,0
1788787660.233166,2120,2528,0
1788787660.233809,2071,671,0
1788787660.2365172,1969,1880,0
1788787660.238616,2037,2442,0
1788787660.2439208,2092,1733,0
1788787660.2441401,2122,2529,0
1788787660.244454,2066,2442,0
1788787660.246758,2045,1634,0
1788787660.248069,2121,2132,0
1788787660.249377,2062,1800,0
1788787660.251948,2006,1360,0
1788787660.25697,1961,2396,0
1788787660.2575428,2073,2113,0
1788787660.258018,2105,2180,0
1788787660.259847,2118,2774,0
1788787660.2618089,2138,1787,0
1788787660.266992,2150,1843,0
1788787660.267402,2087,2343,0
1788787660.267714,1977,781,0
1788787660.270133,1865,2206,0
1788787660.271474,1993,2346,0
1788787660.2740412,2069,2003,0
1788787660.275558,2112,2871,0
1788787660.2785878,2021,2043,0
1788787660.281653,2050,1688,0
1788787660.2819278,2095,2545,0
1788787660.2898052,2062,629,0
1788787660.290116,1984,1902,0
1788787660.2905679,2043,2442,0
1788787660.290851,2101,1714,0
1788787660.2934668,2103,2511,0
1788787660.293569,2080,2405,0
1788787660.296386,2057,1618,0
1788787660.301719,2161,2144,0
1788787660.302829,2104,1751,0
1788787660.304922,2056,1380,0
1788787660.307074,2038,2399,0
1788787660.307803,2083,2100,0
1788787660.309149,2124,2208,0
1788787660.313431,2149,2738,0
1788787660.313983,2050,1779,0
1788787660.314362,2063,1860,0
1788787660.317044,2209,2318,0
1788787660.318465,2091,802,0
1788787660.319823,1909,2212,0
1788787660.321215,2102,2337,0
1788787660.3276749,2219,1991,0
1788787660.3283572,2231,2872,0
1788787660.329322,2023,2036,0
1788787660.3310678,1954,1692,0
1788787660.331403,2093,2563,0
1788787660.3390641,2048,596,0
1788787660.339304,1928,1916,0
1788787660.3395462,1963,2441,0
1788787660.339634,2001,1701,0
1788787660.3418229,1996,2469,0
1788787660.343221,2040,2412,0
1788787660.348591,2040,1629,0
1788787660.350861,2113,2149,0
1788787660.351271,2059,1661,0
1788787660.35142,1982,1402,0
1788787660.359232,1951,2405,0
1788787660.359477,2043,2090,0
1788787660.359787,2135,2260,0
1788787660.359964,2107,2837,0
1788787660.362327,2087,1756,0
1788787660.363636,2177,1865,0
1788787660.3662,2164,2368,0
1788787660.367593,2079,836,0
1788787660.372483,1936,2232,0
1788787660.373754,2046,2335,0
1788787660.375521,2081,2016,0
1788787660.3758662,2125,2915,0
1788787660.3772402,2071,2008,0
1788787660.383596,2096,1694,0
1788787660.384128,2131,2578,0
1788787660.3842409,2058,590,0
1788787660.386773,1961,1943,0
1788787660.388153,2050,2445,0
1788787660.38979,2069,1684,0
1788787660.394757,2125,2538,0
1788787660.396947,2115,2378,0
1788787660.397295,2079,1621,0
1788787660.399519,2165,2181,0
1788787660.4008021,2097,1726,0
1788787660.40557,2010,1424,0
1788787660.405859,1964,2416,0
1788787660.406106,2078,2086,0
1788787660.4080079,2121,2162,0
1788787660.4093251,2120,2780,0
1788787660.4119701,2055,1751,0
1788787660.413245,2148,1860,0
1788787660.419067,2094,2386,0
1788787660.4211788,2054,831,0
1788787660.422689,1958,2235,0
1788787660.423075,2094,2343,0
1788787660.424344,2122,1991,0
1788787660.4264598,2138,2896,0
1788787660.430611,2063,2009,0
1788787660.430866,2087,1688,0
1788787660.4333382,2136,2562,0
1788787660.433432,2059,566,0
1788787660.43619,1966,1940,0
1788787660.43965,2014,2449,0
1788787660.4405692,2106,1691,0
1788787660.4431648,2117,2613,0
1788787660.44343,2090,2377,0
1788787660.450922,2064,1621,0
1788787660.4514601,2155,2167,0
1788787660.451665,2076,1643,0
1788787660.454598,2003,1438,0
1788787660.454688,1974,2418,0
1788787660.456031,2110,2076,0
1788787660.457344,2134,2157,0
1788787660.4602082,2099,2782,0
1788787660.465299,2169,1745,0
1788787660.4663072,2148,1877,0
1788787660.467944,2116,2403,0
1788787660.469992,1997,843,0
1788787660.471951,1896,2241,0
1788787660.476108,1984,2342,0
1788787660.4763122,2107,1999,0
1788787660.476541,2134,2896,0
1788787660.479105,2106,2005,0
1788787660.4793699,2126,1689,0
1788787660.485431,2131,2568,0
1788787660.486378,2000,533,0
1788787660.489262,2019,1951,0
1788787660.489522,2068,2450,0
1788787660.4907782,2116,1683,0
1788787660.492845,2065,2563,0
1788787660.4971972,2039,2371,0
1788787660.497493,2012,1619,0
1788787660.497741,2178,2164,0
1788787660.500184,2118,1588,0
1788787660.5016232,2048,1448,0
1788787660.504308,1945,2420,0
1788787660.509372,2068,2070,0
1788787660.510624,2151,2165,0
1788787660.510824,2161,2762,0
1788787660.515832,2086,1741,0
1788787660.516533,2160,1870,0
1788787660.517178,2094,2377,0
1788787660.51739,2027,853,0
1788787660.523139,1968,2243,0
1788787660.523712,2118,2335,0
1788787660.5239959,2128,2017,0
1788787660.526146,2091,2915,0
1788787660.527526,2009,1997,0
1788787660.532661,2075,1694,0
1788787660.5339048,2128,2588,0
1788787660.536798,2050,533,0
1788787660.540432,1947,1959,0
1788787660.5449228,2044,2448,0
1788787660.54578,2092,1673,0
1788787660.548265,2102,2633,0
1788787660.5483499,2078,2357,0
1788787660.548413,2073,1616,0
1788787660.548474,2119,2183,0
1788787660.5498161,2067,1565,0
1788787660.551255,1950,1467,0
1788787660.5538719,1950,2423,0
1788787660.5605278,2042,2059,0
1788787660.563,2135,2196,0
1788787660.563506,2126,2796,0
1788787660.563819,2096,1732,0
1788787660.565546,2138,1880,0
1788787660.567668,2083,2396,0
1788787660.5680509,2010,877,0
1788787660.572596,1953,2255,0
1788787660.57297,2080,2331,0
1788787660.575676,2109,2021,0
1788787660.575744,2108,2923,0
1788787660.582468,2047,1985,0
1788787660.586368,2059,1695,0
1788787660.5869372,2146,2541,0
1788787660.589566,2063,413,0
1788787660.5960698,1978,1988,0
1788787660.59646,2035,2444,0
1788787660.597108,2130,1644,0
1788787660.599696,2122,3002,0
1788787660.600082,2070,2285,0
1788787660.60015,2057,1611,0
1788787660.6002119,2157,2236,0
1788787660.600273,2086,1378,0
1788787660.6016178,2018,1555,0
1788787660.604288,2008,2439,0
1788787660.60566,2058,2005,0
1788787660.615087,2116,2167,0
1788787660.6232178,2105,2713,0
1788787660.623724,2055,1709,0
1788787660.626464,2122,1912,0
1788787660.6265569,2093,2299,0
1788787660.626621,2051,957,0
1788787660.626687,1934,2284,0
1788787660.6267562,2095,2303,0
1788787660.626824,2116,1987,0
1788787660.626891,2110,2845,0
1788787660.628341,2054,1955,0
1788787660.6391199,2084,1711,0
1788787660.648344,2102,2602,0
1788787660.648439,2065,621,0
1788787660.6485062,1970,2000,0
1788787660.648569,2055,2444,0
1788787660.6486778,2067,1634,0
1788787660.648751,2086,2676,0
1788787660.648814,2060,2307,0
1788787660.648876,2099,1610,0
1788787660.648939,2169,2213,0
1788787660.65039,2085,1488,0
1788787660.651728,1987,1518,0
1788787660.653499,1977,2435,0
1788787660.6612558,2079,2031,0
1788787660.6652532,2103,2253,0
1788787660.667917,2138,2798,0
1788787660.6744142,2097,1712,0
1788787660.674664,2164,1903,0
1788787660.674999,2076,2182,0
1788787660.6756842,2015,956,0
1788787660.6759071,1930,2280,0
1788787660.676338,2059,2298,0
1788787660.679119,2116,1993,0
1788787660.679271,2120,2857,0
1788787660.679395,2050,1954,0
1788787660.679491,2078,1713,0
1788787660.6869519,2112,2596,0
1788787660.688969,2040,410,0
1788787660.691453,1940,2023,0
1788787660.6953568,2027,2440,0
1788787660.700599,2074,1621,0
1788787660.701241,2118,2725,0
1788787660.701698,2089,2278,0
1788787660.704718,2097,1611,0
1788787660.704834,2171,2238,0
1788787660.7050939,2084,1357,0
1788787660.7052999,1997,1561,0
1788787660.7053702,1992,2441,0
1788787660.7054331,2064,2003,0
1788787660.708066,2111,2251,0
1788787660.709405,2113,2700,0
1788787660.71594,2050,1704,0
1788787660.719105,2126,1922,0
1788787660.721368,2079,2118,0
1788787660.723573,2016,991,0
1788787660.728742,1954,2288,0
1788787660.729407,2082,2280,0
1788787660.729933,2134,1968,0
1788787660.7326038,2098,2833,0
1788787660.732759,2011,1940,0
1788787660.73283,2069,1723,0
1788787660.732893,2112,2610,0
1788787660.734255,2055,408,0
1788787660.740644,1975,2038,0
1788787660.742765,2052,2437,0
1788787660.744865,2093,1636,0
1788787660.7473972,2135,2670,0
1788787660.748134,2132,2261,0
1788787660.748363,2108,1614,0
1788787660.754833,2146,2248,0
1788787660.755391,2043,1321,0
1788787660.755782,1960,1575,0
1788787660.756335,1965,2441,0
1788787660.7584891,2019,1991,0
1788787660.7594209,2082,2223,0
1788787660.759488,2060,2743,0
1788787660.7621078,2086,1699,0
1788787660.763455,2141,1926,0
1788787660.766164,2097,2324,0
1788787660.774257,2013,986,0
1788787660.776096,1909,2297,0
1788787660.777523,2016,2297,0
1788787660.7782989,2137,1996,0
1788787660.785376,2130,2867,0
1788787660.785784,2049,1948,0
1788787660.786379,2169,1707,0
1788787660.78947,2199,2583,0
1788787660.789556,2025,408,0
1788787660.7896268,1904,2043,0
1788787660.789691,2018,2442,0
1788787660.789752,2069,1713,0
1788787660.7926972,2148,2621,0
1788787660.797695,2104,2271,0
1788787660.8009758,2046,1613,0
1788787660.8053,2123,2250,0
1788787660.810588,2074,1169,0
1788787660.813453,1969,1593,0
1788787660.814353,2007,2440,0
1788787660.814435,2102,1975,0
1788787660.814501,2137,2140,0
1788787660.814562,2112,2729,0
1788787660.8146229,2045,1700,0
1788787660.814684,2134,1930,0
1788787660.816036,2075,2222,0
1788787660.817376,2032,1005,0
1788787660.820066,1992,2301,0
1788787660.826068,2101,2285,0
1788787660.8305202,2090,2082,0
1788787660.830831,2060,2835,0
1788787660.831312,1980,1929,0
1788787660.833452,2052,1729,0
1788787660.833695,2124,2561,0
1788787660.834477,2086,433,0
1788787660.84589,1959,2050,0
1788787660.846346,2067,2430,0
1788787660.846526,2121,1707,0
1788787660.8466198,2123,2692,0
1788787660.846717,2111,2250,0
1788787660.846774,2061,1622,0
1788787660.848151,2130,2269,0
1788787660.857505,2019,1100,0
1788787660.859725,1949,1622,0
1788787660.860092,1966,2439,0
1788787660.862588,2030,1949,0
1788787660.86356,2102,2251,0
1788787660.865351,2084,2687,0
1788787660.865619,2060,1693,0
1788787660.871767,2128,1958,0
1788787660.872431,2097,2192,0
1788787660.874812,2011,1046,0
1788787660.875783,1865,2310,0
1788787660.8758552,2059,2263,0
1788787660.8759181,2163,2092,0
1788787660.875979,2129,2825,0
1788787660.877323,2069,1915,0
1788787660.879997,2070,1743,0
1788787660.8813388,2096,2505,0
1788787660.889874,2046,477,0
1788787660.890636,1964,2068,0
1788787660.890885,2032,2416,0
1788787660.8925781,2067,1717,0
1788787660.894868,2090,2627,0
1788787660.899563,2047,2238,0
1788787660.905837,2048,1629,0
1788787660.906347,2161,2302,0
1788787660.906912,2059,1094,0
1788787660.907403,1952,1641,0
1788787660.9102762,1964,2438,0
1788787660.911359,2060,1932,0
1788787660.911446,2119,2298,0
1788787660.9115992,2082,2673,0
1788787660.911675,2057,1683,0
1788787660.9143522,2140,1972,0
1788787660.9204302,2067,2144,0
1788787660.922472,2011,1075,0
1788787660.926767,1927,2317,0
1788787660.928378,2050,2247,0
1788787660.930432,2083,2086,0
1788787660.930798,2065,2807,0
1788787660.936447,2025,1907,0
1788787660.936639,2103,1754,0
1788787660.937032,2100,2528,0
1788787660.93772,2024,499,0
1788787660.9408891,1913,2079,0
1788787660.941289,2033,2413,0
1788787660.941351,2097,1747,0
1788787660.941407,2111,2589,0
1788787660.9438689,2053,2226,0
1788787660.945267,2039,1634,0
1788787660.94793,2137,2313,0
1788787660.952221,2065,1040,0
1788787660.952897,1972,1656,0
1788787660.956149,1986,2438,0
1788787660.956291,2055,1918,0
1788787660.958215,2104,2374,0
1788787660.960166,2091,2658,0
1788787660.964978,2056,1684,0
1788787660.9651608,2129,1994,0
1788787660.9655318,2065,2123,0
1788787660.9680572,2032,1101,0
1788787660.9696698,1954,2324,0
1788787660.9755661,2080,2235,0
1788787660.976565,2148,2107,0
1788787660.977205,2123,2825,0
1788787660.9777842,2070,1892,0
1788787660.9795709,2107,1761,0
1788787660.981728,2121,2502,0
1788787660.987883,2029,530,0
1788787660.988325,1959,2092,0
1788787660.9885921,2035,2405,0
1788787660.991246,2091,1778,0
1788787660.9913,2121,2659,0
1788787660.993998,2063,2202,0
1788787660.9953432,2071,1634,0
1788787661.0019991,2149,2343,0
1788787661.002144,2070,960,0
1788787661.002694,1978,1690,0
1788787661.0055091,2001,2438,0
1788787661.0056791,2073,1889,0
1788787661.009056,2124,2367,0
1788787661.013725,2076,2644,0
1788787661.014074,2061,1670,0
1788787661.014213,2136,2010,0
1788787661.016771,2094,2088,0
1788787661.018081,2011,1138,0
1788787661.023048,1960,2335,0
1788787661.024857,2046,2219,0
1788787661.026392,2092,2091,0
1788787661.0265448,2099,2769,0
1788787661.0285518,2023,1869,0
1788787661.0304909,2111,1773,0
1788787661.035295,2142,2474,0
1788787661.0356328,2076,555,0
1788787661.0358431,1946,2102,0
1788787661.0385559,2037,2397,0
1788787661.039938,2098,1810,0
1788787661.041258,2133,2656,0
1788787661.043832,2106,2190,0
1788787661.048893,2087,1641,0
1788787661.0494568,2144,2367,0
1788787661.0504708,2078,922,0
1788787661.052556,1952,1709,0
1788787661.054104,1960,2436,0
1788787661.0602639,2056,1870,0
1788787661.06051,2149,2399,0
1788787661.060721,2136,2608,0
1788787661.0625181,2063,1672,0
1788787661.063835,2131,2025,0
1788787661.065272,2078,2040,0
1788787661.0691688,2026,1164,0
1788787661.070078,1957,2340,0
1788787661.0723772,2074,2204,0
1788787661.074306,2105,2126,0
1788787661.0795908,2099,2802,0
1788787661.079958,2016,1865,0
1788787661.0801642,2081,1789,0
1788787661.08222,2125,2462,0
1788787661.083542,2046,590,0
1788787661.086113,1940,2119,0
1788787661.08738,2036,2390,0
1788787661.092063,2108,1866,0
1788787661.0925848,2115,2654,0
1788787661.094303,2090,2170,0
1788787661.09582,2087,1660,0
1788787661.097427,2157,2393,0
1788787661.101449,2065,873,0
1788787661.1015732,1970,1738,0
1788787661.1041632,2002,2437,0
1788787661.1054988,2088,1847,0
1788787661.108074,2106,2408,0
1788787661.1127071,2077,2587,0
1788787661.113642,2072,1649,0
1788787661.1144261,2147,2045,0
1788787661.115864,2091,2006,0
1788787661.117749,2022,1194,0
1788787661.123344,1969,2348,0
1788787661.123764,2076,2188,0
1788787661.123932,2134,2149,0
1788787661.1261399,2116,2761,0
1788787661.127449,2050,1856,0
1788787661.1300302,2102,1796,0
1788787661.131335,2108,2438,0
1788787661.135792,2000,618,0
1788787661.13592,1867,2129,0
1788787661.1374972,2015,2380,0
1788787661.140453,2108,1863,0
1788787661.142252,2128,2658,0
1788787661.146256,2128,2160,0
1788787661.146572,2105,1661,0
1788787661.148968,2177,2412,0
1788787661.150275,2087,814,0
1788787661.151673,1972,1760,0
1788787661.154403,2019,2436,0
1788787661.161294,2143,1827,0
1788787661.163788,2105,2395,0
1788787661.166282,2083,2568,0
1788787661.1678982,2040,1661,0
1788787661.168129,2179,2057,0
1788787661.172666,2096,1968,0
1788787661.172815,2012,1219,0
1788787661.1730182,1969,2356,0
1788787661.1732259,2085,2179,0
1788787661.173554,2115,2100,0
1788787661.176109,1991,2746,0
1788787661.177258,2040,1847,0
1788787661.183161,2172,1796,0
1788787661.18527,2133,2410,0
1788787661.185492,2036,634,0
1788787661.185823,1968,2137,0
1788787661.189128,2072,2377,0
1788787661.193409,2137,1897,0
1788787661.193805,2164,2677,0
1788787661.194125,2091,2147,0
1788787661.1964312,2027,1666,0
1788787661.1977441,2101,2432,0
1788787661.200398,2061,796,0
1788787661.2017379,1939,1775,0
1788787661.207416,1990,2436,0
1788787661.207963,2087,1815,0
1788787661.208065,2094,2436,0
1788787661.210026,2087,2553,0
1788787661.211523,2090,1662,0
1788787661.213363,2199,2066,0
1788787661.217557,2100,1906,0
1788787661.21799,2003,1244,0
1788787661.220423,1936,2362,0
1788787661.22178,2114,2165,0
1788787661.224457,2154,2186,0
1788787661.225913,2125,2796,0
1788787661.231251,2025,1845,0
1788787661.2348711,2084,1810,0
1788787661.240331,2079,2363,0
1788787661.240521,2044,681,0
1788787661.240648,1921,2157,0
1788787661.240959,2024,2365,0
1788787661.241367,2097,1938,0
1788787661.2416918,2102,2665,0
1788787661.244051,2053,2122,0
1788787661.245427,2075,1675,0
1788787661.2511082,2132,2464,0
1788787661.253001,2046,805,0
1788787661.253289,1957,1801,0
1788787661.256259,1970,2435,0
1788787661.260447,2057,1791,0
1788787661.260753,2116,2499,0
1788787661.26093,2094,2516,0
1788787661.2631948,2046,1654,0
1788787661.26349,2135,2094,0
1788787661.2660859,2096,1854,0
1788787661.267502,2013,1281,0
1788787661.273692,1945,2370,0
1788787661.274312,2072,2145,0
1788787661.275136,2130,2206,0
1788787661.2765598,2108,2741,0
1788787661.283854,2037,1836,0
1788787661.284149,2105,1827,0
1788787661.284344,2119,2355,0
1788787661.28454,2035,711,0
1788787661.2872078,1941,2169,0
1788787661.287328,2049,2355,0
1788787661.290011,2092,1984,0
1788787661.291355,2111,2783,0
1788787661.2972312,2057,2094,0
1788787661.299528,2062,1683,0
1788787661.2998521,2130,2507,0
1788787661.3013802,2064,789,0
1788787661.3035378,1951,1833,0
1788787661.3078022,1984,2435,0
1788787661.308181,2059,1763,0
1788787661.3084202,2117,2443,0
1788787661.311022,2100,2494,0
1788787661.312331,2036,1646,0
1788787661.313844,2122,2106,0
1788787661.317941,2087,1841,0
1788787661.318126,1994,1306,0
1788787661.3224142,1949,2379,0
1788787661.323037,2057,2135,0
1788787661.328495,2145,2190,0
1788787661.3286731,2121,2731,0
1788787661.3289301,2049,1810,0
1788787661.33121,2138,1829,0
1788787661.3314161,2123,2352,0
1788787661.334025,2028,728,0
1788787661.335337,1951,2177,0
1788787661.341677,2045,2351,0
1788787661.342397,2097,1981,0
1788787661.342942,2110,2737,0
1788787661.345191,2056,2091,0
1788787661.345429,2066,1687,0
1788787661.352479,2126,2504,0
1788787661.3530781,2073,754,0
1788787661.353621,1967,1842,0
1788787661.356137,2006,2435,0
1788787661.3564212,2063,1755,0
1788787661.357743,2106,2494,0
1788787661.362226,2102,2477,0
1788787661.363151,2080,1646,0
1788787661.3655171,2161,2116,0
1788787661.365824,2086,1802,0
1788787661.367836,2014,1324,0
1788787661.3735948,1963,2382,0
1788787661.374155,2075,2125,0
1788787661.374513,2130,2215,0
1788787661.376914,2108,2712,0
1788787661.378304,2039,1788,0
1788787661.379688,2088,1839,0
1788787661.382462,2096,2333,0
1788787661.387601,2026,747,0
1788787661.390173,1942,2181,0
1788787661.39063,2038,2342,0
1788787661.3909628,2080,1989,0
1788787661.39259,2120,2751,0
1788787661.3985422,2069,2072,0
1788787661.399053,2064,1693,0
1788787661.3993669,2133,2524,0
1788787661.399673,2076,726,0
1788787661.402735,1971,1855,0
1788787661.404136,2007,2432,0
1788787661.4056,2076,1740,0
1788787661.4116402,2123,2518,0
1788787661.413753,2087,2463,0
1788787661.416826,2063,1646,0
1788787661.4252002,2139,2127,0
1788787661.425302,2078,1796,0
1788787661.425368,2006,1341,0
1788787661.425431,1964,2386,0
1788787661.425492,2068,2115,0
1788787661.4255528,2120,2203,0
1788787661.425614,2094,2716,0
1788787661.42868,2052,1801,0
1788787661.430054,2117,1843,0
1788787661.449714,2116,2312,0
1788787661.449811,2035,766,0
1788787661.449882,1946,2191,0
1788787661.4527192,2041,2340,0
1788787661.469884,2082,1985,0
1788787661.470102,2098,2804,0
1788787661.470711,2056,2066,0
1788787661.474943,2065,1692,0
1788787661.475143,2119,2538,0
1788787661.4752152,2056,713,0
1788787661.475279,1947,1875,0
1788787661.475341,1995,2436,0
1788787661.475403,2076,1729,0
1788787661.475463,2140,2501,0
1788787661.4755242,2102,2446,0
1788787661.475584,2056,1638,0
1788787661.475643,2132,2134,0
1788787661.475704,2092,1774,0
1788787661.475765,2007,1357,0
1788787661.475827,1953,2392,0
1788787661.475887,2085,2110,0
1788787661.475946,2119,2213,0
1788787661.4760058,2131,2697,0
1788787661.477371,2066,1796,0
1788787661.485582,2128,1850,0
1788787661.492915,2113,2295,0
1788787661.4935622,2027,780,0
1788787661.494016,1932,2198,0
1788787661.494454,2025,2337,0
1788787661.494806,2066,2025,0
1788787661.497322,2108,2801,0
1788787661.497629,2064,2055,0
1788787661.497698,2093,1712,0
1788787661.497746,2138,2548,0
1788787661.5004191,2073,692,0
1788787661.501908,1981,1888,0
1788787661.5033221,2030,2436,0
1788787661.5080588,2072,1719,0
1788787661.508724,2133,2528,0
1788787661.5117261,2101,2434,0
1788787661.5207949,2069,1636,0
1788787661.523367,2157,2140,0
1788787661.523712,2078,1755,0
1788787661.5237892,2012,1374,0
1788787661.523854,1961,2397,0
1788787661.523917,2077,2102,0
1788787661.523979,2131,2232,0
1788787661.5253289,2089,2722,0
1788787661.531533,2026,1780,0
1788787661.533941,2102,1854,0
1788787661.536554,2114,2311,0
1788787661.5431218,2027,799,0
1788787661.5437388,1934,2207,0
1788787661.5441449,2065,2333,0
1788787661.5445728,2105,2038,0
1788787661.546528,2117,2816,0
1788787661.5472682,2057,2046,0
1788787661.547343,2056,1701,0
1788787661.54741,2101,2559,0
1788787661.549997,2044,689,0
1788787661.551409,1950,1900,0
1788787661.55845,1988,2436,0
1788787661.559212,2091,1707,0
1788787661.5604491,2132,2575,0
1788787661.56233,2106,2397,0
1788787661.5646698,2061,1636,0
1788787661.571357,2148,2156,0
1788787661.572365,2088,1646,0
1788787661.572732,1980,1401,0
1788787661.5748532,1918,2400,0
1788787661.575758,2035,2083,0
1788787661.575834,2097,2340,0
1788787661.5758982,2106,2616,0
1788787661.5772429,2028,1783,0
1788787661.584481,2143,1882,0
1788787661.586915,2137,2319,0
1788787661.587241,2042,823,0
1788787661.589417,1923,2212,0
1788787661.596281,2085,2320,0
1788787661.5968251,2107,2017,0
1788787661.597003,2100,2816,0
1788787661.597701,2037,2037,0
1788787661.59987,2058,1706,0
1788787661.6009111,2131,2580,0
1788787661.601119,2075,664,0
1788787661.601245,1993,1915,0
1788787661.603904,2008,2434,0
1788787661.605261,2071,1692,0
1788787661.607938,2145,2493,0
1788787661.613148,2102,2409,0
1788787661.6165152,2053,1632,0
1788787661.6169689,2188,2159,0
1788787661.625688,2094,1730,0
1788787661.626535,2040,1399,0
1788787661.6292632,2034,2403,0
1788787661.629365,2161,2089,0
1788787661.6294332,2098,2233,0
1788787661.629496,2052,2767,0
1788787661.629557,2021,1766,0
1788787661.629618,2110,1865,0
1788787661.636841,1984,2278,0
1788787661.638347,1938,831,0
1788787661.642228,1884,2223,0
1788787661.642593,1991,2328,0
1788787661.649058,2030,2020,0
1788787661.651656,2095,2844,0
1788787661.652523,2097,2020,0
1788787661.6526,2146,1701,0
1788787661.652663,2195,2580,0
1788787661.6527202,2122,658,0
1788787661.652781,1996,1923,0
1788787661.654006,2018,2439,0
1788787661.655444,2056,1691,0
1788787661.6580758,2050,2528,0
1788787661.659416,2120,2406,0
1788787661.665337,2049,1625,0
1788787661.666983,2162,2164,0
1788787661.667205,2065,1711,0
1788787661.669895,2031,1412,0
1788787661.670424,2025,2409,0
1788787661.674009,2117,2086,0
1788787661.674439,2162,2104,0
1788787661.679465,2147,2750,0
1788787661.681628,2101,1762,0
1788787661.682197,2148,1853,0
1788787661.6825469,2093,2284,0
1788787661.683891,2034,822,0
1788787661.689379,1971,2223,0
1788787661.690009,2043,2335,0
1788787661.691056,2122,1981,0
1788787661.6946108,2144,2856,0
1788787661.697359,2114,2023,0
1788787661.702564,2106,1694,0
1788787661.702958,2117,2563,0
1788787661.7035031,2017,590,0
1788787661.703865,1974,1927,0
1788787661.706238,2046,2443,0
1788787661.70701,2072,1695,0
1788787661.7086148,2138,2547,0
1788787661.710428,2095,2395,0
1788787661.711885,2079,1626,0
1788787661.719774,2187,2166,0
1788787661.7216158,2110,1685,0
1788787661.722222,2021,1416,0
1788787661.724643,1949,2411,0
1788787661.726294,2076,2086,0
1788787661.731245,2157,2126,0
1788787661.732028,2118,2699,0
1788787661.732235,2099,1767,0
1788787661.73279,2167,1855,0
1788787661.735544,2129,2406,0
1788787661.735638,2049,808,0
1788787661.7357068,1919,2222,0
1788787661.738613,2083,2345,0
1788787661.746562,2142,1875,0
1788787661.7470999,2132,2843,0
1788787661.7474408,2106,2033,0
1788787661.751869,2098,1675,0
1788787661.757514,2147,2538,0
1788787661.75773,2078,585,0
1788787661.7586718,1984,1914,0
1788787661.759076,2058,2451,0
1788787661.759437,2099,1716,0
1788787661.759605,2143,2473,0
1788787661.762773,2083,2417,0
1788787661.762879,2087,1626,0
1788787661.764243,2175,2132,0
1788787661.765632,2067,1686,0
1788787661.7682738,2063,1393,0
1788787661.769641,1979,2407,0
1788787661.775373,2107,2100,0
1788787661.77675,2150,2044,0
1788787661.77712,2072,2800,0
1788787661.778485,2053,1765,0
1788787661.7862651,2153,1841,0
1788787661.7920902,2099,2483,0
1788787661.7924,2067,781,0
1788787661.792869,2150,2219,0
1788787661.793482,2190,2364,0
1788787661.793868,2140,1919,0
1788787661.796383,2023,3033,0
1788787661.797497,1935,2021,0
1788787661.797576,2006,1674,0
1788787661.797638,2090,2528,0
1788787661.800367,1962,639,0
1788787661.8062952,1883,1918,0
1788787661.806489,2024,2459,0
1788787661.807224,2112,1724,0
1788787661.8080058,2155,2619,0
1788787661.810967,2104,2402,0
1788787661.8139431,2117,1632,0
1788787661.81412,2189,2145,0
1788787661.822297,2076,1844,0
1788787661.8228412,1991,1392,0
1788787661.8262138,1966,2415,0
1788787661.8265338,2059,2112,0
1788787661.826599,2117,2219,0
1788787661.8266518,2390,2811,0
1788787661.827936,2282,1757,0
1788787661.829293,2208,1846,0
1788787661.831937,2043,2597,0
1788787661.833357,1868,786,0
1788787661.8419929,1775,2226,0
1788787661.843693,1979,2370,0
1788787661.8439722,1997,1827,0
1788787661.846323,2003,2809,0
1788787661.846503,2108,2038,0
1788787661.852695,2163,1657,0
1788787661.8528728,2080,2503,0
1788787661.85308,1941,548,0
1788787661.853477,2292,1902,0
1788787661.8536892,2418,2463,0
1788787661.856653,2026,1742,0
1788787661.858007,1901,2386,0
1788787661.85933,1883,2442,0
1788787661.863625,1993,1621,0
1788787661.8655648,2037,2109,0
1788787661.867381,1972,1803,0
1788787661.867583,1990,1354,0
1788787661.875626,1972,2405,0
1788787661.8761501,2056,2130,0
1788787661.876333,2056,1919,0
1788787661.876622,2069,2867,0
1788787661.879154,2137,1770,0
1788787661.87939,2227,1808,0
1788787661.881972,2294,2590,0
1788787661.883279,2100,723,0
1788787661.8896089,1796,2205,0
1788787661.890702,2005,2394,0
1788787661.891371,2148,1803,0
1788787661.8935108,2134,2937,0
1788787661.893703,2036,2057,0
1788787661.896168,2002,1639,0
1788787661.897722,1998,2451,0
1788787661.902369,2020,468,0
1788787661.902698,1959,1890,0
1788787661.9054668,1998,2468,0
1788787661.905519,2024,1759,0
1788787661.908105,2113,2387,0
1788787661.912577,2134,2454,0
1788787661.9147441,2157,1620,0
1788787661.916518,2219,2098,0
1788787661.916802,2068,1915,0
1788787661.918614,1958,1328,0
1788787661.920649,1950,2402,0
1788787661.92541,2057,2149,0
1788787661.925567,2102,1909,0
1788787661.925743,2128,2887,0
1788787661.9279318,2054,1776,0
1788787661.92925,2131,1796,0
1788787661.93182,2068,2605,0
1788787661.9332,2019,697,0
1788787661.939564,1979,2196,0
1788787661.940675,2074,2405,0
1788787661.9412758,2146,1808,0
1788787661.943027,2055,2980,0
1788787661.944829,2094,2062,0
1788787661.946506,2135,1632,0
1788787661.951137,2187,2451,0
1788787661.951591,2105,323,0
1788787661.951775,1910,1896,0
1788787661.95484,1999,2470,0
1788787661.9561942,2057,1758,0
1788787661.957731,2108,2476,0
1788787661.96172,2045,2443,0
1788787661.9627059,2007,1615,0
1788787661.9647841,2072,2115,0
1788787661.967859,2076,1844,0
1788787661.968152,2051,1349,0
1788787661.974696,1971,2408,0
1788787661.9748359,2060,2138,0
1788787661.975001,2166,2087,0
1788787661.9763122,2157,2913,0
1788787661.977619,2062,1765,0
1788787661.980177,2165,1817,0
1788787661.984413,2100,2558,0
1788787661.984906,2028,747,0
1788787661.9870741,1990,2214,0
1788787661.9872499,2119,2386,0
1788787661.990407,2113,1848,0
1788787661.9945211,2103,2916,0
1788787661.994713,2016,2046,0
1788787661.9971688,2054,1647,0
1788787661.997251,2033,2476,0
1788787661.999819,1983,402,0
1788787662.0011961,1964,1910,0
1788787662.0061061,2017,2465,0
1788787662.0069299,2091,1738,0
1788787662.008833,2128,2593,0
1788787662.010703,2104,2407,0
1788787662.0159738,2087,1615,0
1788787662.016358,2171,2130,0
1788787662.0165088,2098,1639,0
1788787662.0188348,1996,1399,0
1788787662.020161,1972,2411,0
1788787662.0215209,2063,2101,0
1788787662.024101,2096,2111,0
1788787662.0289762,2100,2864,0
1788787662.029891,2051,1753,0
1788787662.031636,2153,1854,0
1788787662.031811,2103,2461,0
1788787662.03516,2032,804,0
1788787662.03534,1937,2231,0
1788787662.039571,2077,2360,0
1788787662.039813,2117,1888,0
1788787662.042183,2128,2935,0
1788787662.043499,2074,2021,0
1788787662.0459352,2107,1667,0
1788787662.047379,2131,2536,0
1788787662.0577412,2077,340,0
1788787662.057896,1960,1952,0
1788787662.058327,2017,2461,0
1788787662.063188,2053,1697,0
1788787662.063683,2118,2598,0
1788787662.0643451,2097,2368,0
1788787662.0647418,2098,1612,0
1788787662.065252,2166,2160,0
1788787662.0680661,2081,1560,0
1788787662.068187,2012,1449,0
1788787662.069613,1989,2423,0
1788787662.0746272,2069,2074,0
1788787662.0753222,2143,2174,0
1788787662.0758028,2111,2835,0
1788787662.0778902,2089,1735,0
1788787662.085176,2134,1867,0
1788787662.085584,2081,2414,0
1788787662.085835,2043,860,0
1788787662.086117,1957,2251,0
1788787662.0886028,2078,2341,0
1788787662.089948,2122,1930,0
1788787662.0912561,2119,2918,0
1788787662.0938199,2039,1986,0
1788787662.0997682,2082,1682,0
1788787662.10032,2122,2573,0
1788787662.10188,2030,352,0
1788787662.10225,1940,1980,0
1788787662.105855,2020,2456,0
1788787662.1060429,2095,1667,0
1788787662.110191,2129,2632,0
1788787662.11034,2070,2338,0
1788787662.11316,2064,1609,0
1788787662.113248,2138,2183,0
1788787662.115944,2085,1120,0
1788787662.119655,2015,1530,0
1788787662.120224,2030,2432,0
1788787662.122725,2079,2017,0
1788787662.1248572,2105,2052,0
1788787662.13025,2104,2784,0
1788787662.130608,2076,1713,0
1788787662.130841,2158,1896,0
1788787662.133303,2103,2439,0
1788787662.1333802,2004,915,0
1788787662.1360981,1945,2276,0
1788787662.137652,2070,2327,0
1788787662.144191,2137,1836,0
1788787662.145791,2132,2942,0
1788787662.147491,2067,1959,0
1788787662.147945,2100,1669,0
1788787662.151558,2120,2586,0
1788787662.151708,2069,382,0
1788787662.1518679,1974,2005,0
1788787662.156273,2036,2460,0
1788787662.1565282,2095,1654,0
1788787662.159043,2111,2588,0
1788787662.160365,2080,2319,0
1788787662.165528,2084,1615,0
1788787662.166065,2151,2190,0
1788787662.16662,2070,1412,0
1788787662.1683998,2001,1516,0
1788787662.175827,1991,2441,0
1788787662.1762009,2057,2041,0
1788787662.176362,2114,2203,0
1788787662.176657,2104,2784,0
1788787662.178504,2054,1709,0
1788787662.179837,2135,1891,0
1788787662.1812322,2080,2407,0
1788787662.183912,2028,917,0
1788787662.189999,1938,2277,0
1788787662.192202,2068,2327,0
1788787662.192574,2099,1935,0
1788787662.1937852,2114,2901,0
1788787662.194358,2060,1961,0
1788787662.196076,2115,1689,0
1788787662.200545,2111,2585,0
1788787662.200972,2040,342,0
1788787662.203649,1949,2012,0
1788787662.203695,2024,2455,0
1788787662.209491,2077,1661,0
1788787662.210334,2116,2575,0
1788787662.212667,2078,2310,0
1788787662.212885,2077,1605,0
1788787662.2149498,2150,2218,0
1788787662.2209659,2082,1315,0
1788787662.223855,1979,1533,0
1788787662.224114,1986,2440,0
1788787662.2242079,2077,2026,0
1788787662.224257,2128,2252,0
1788787662.2255669,2099,2777,0
1788787662.22826,2049,1718,0
1788787662.229826,2119,1915,0
1788787662.234567,2099,2355,0
1788787662.2352362,2031,947,0
1788787662.237089,1950,2287,0
1788787662.2374442,2074,2315,0
1788787662.2406,2099,1967,0
1788787662.2450712,2124,2886,0
1788787662.24712,2061,1951,0
1788787662.247669,2088,1698,0
1788787662.247864,2113,2593,0
1788787662.249206,2049,370,0
1788787662.256066,1936,2026,0
1788787662.257656,2027,2451,0
1788787662.257865,2099,1684,0
1788787662.259393,2157,2621,0
1788787662.2598882,2091,2291,0
1788787662.265698,2063,1607,0
1788787662.266135,2157,2230,0
1788787662.266639,2085,1222,0
1788787662.2691998,1991,1565,0
1788787662.269325,1993,2441,0
1788787662.272,2046,1999,0
1788787662.273343,2089,2293,0
1788787662.2803662,2083,2738,0
1788787662.2830012,2025,1698,0
1788787662.283249,2157,1929,0
1788787662.286687,2112,2275,0
1788787662.293505,2009,988,0
1788787662.294071,1912,2294,0
1788787662.294351,2057,2291,0
1788787662.294612,2116,2026,0
1788787662.296674,2099,2853,0
1788787662.297447,2016,1937,0
1788787662.297536,2044,1720,0
1788787662.297604,2077,2564,0
1788787662.3045068,2032,414,0
1788787662.30608,1907,2042,0
1788787662.3082838,2011,2435,0
1788787662.308854,2064,1708,0
1788787662.310427,2108,2664,0
1788787662.316743,2052,2261,0
1788787662.317384,2047,1620,0
1788787662.317783,2092,2264,0
1788787662.3181021,2045,1125,0
1788787662.320734,1966,1605,0
1788787662.320808,1966,2439,0
1788787662.3222258,2043,1963,0
1788787662.323595,2082,2341,0
1788787662.3262131,2074,2712,0
1788787662.33159,2036,1691,0
1788787662.332205,2096,1957,0
1788787662.33487,2045,2187,0
1788787662.335295,1963,1044,0
1788787662.3436348,1906,2309,0
1788787662.344374,2041,2263,0
1788787662.345003,2079,2175,0
1788787662.347633,2065,2868,0
1788787662.3477619,2001,1906,0
1788787662.3478332,2058,1749,0
1788787662.347905,2075,2541,0
1788787662.3492532,2022,487,0
1788787662.3552551,1914,2072,0
1788787662.35652,2004,2414,0
1788787662.357592,2004,1739,0
1788787662.360707,2078,2664,0
1788787662.362742,2086,2229,0
1788787662.3674061,2094,1635,0
1788787662.3679402,2152,2316,0
1788787662.368223,2063,994,0
1788787662.368499,1970,1662,0
1788787662.3711061,1994,2439,0
1788787662.371234,2055,1914,0
1788787662.3738618,2087,2348,0
1788787662.375222,2078,2656,0
1788787662.382779,2031,1668,0
1788787662.3855019,2091,1995,0
1788787662.387168,2061,2126,0
1788787662.389874,1935,1102,0
1788787662.3949308,1894,2324,0
1788787662.397759,2010,2234,0
1788787662.399339,2091,2095,0
1788787662.3994722,2075,2785,0
1788787662.399529,2009,1896,0
1788787662.3995771,2082,1764,0
1788787662.399693,2125,2483,0
1788787662.399734,2045,526,0
1788787662.401472,1947,2089,0
1788787662.410283,2039,2404,0
1788787662.410746,2098,1803,0
1788787662.4128919,2116,2699,0
1788787662.413548,2093,2203,0
1788787662.4153001,2051,1637,0
1788787662.420459,2144,2349,0
1788787662.420683,2095,881,0
1788787662.421481,1959,1702,0
1788787662.4218152,1963,2436,0
1788787662.4245172,2057,1877,0
1788787662.4246058,2164,2402,0
1788787662.425969,2117,2632,0
1788787662.427356,2074,1670,0
1788787662.43,2137,2023,0
1788787662.436235,2074,2066,0
1788787662.438007,2017,1157,0
1788787662.4405692,1932,2340,0
1788787662.4408388,2076,2209,0
1788787662.441111,2118,2147,0
1788787662.44351,2133,2850,0
1788787662.445129,2046,1864,0
1788787662.4504151,2046,1778,0
1788787662.450698,2060,2452,0
1788787662.451165,1990,593,0
1788787662.451446,1929,2121,0
1788787662.4545338,2100,2390,0
1788787662.4559739,2113,1806,0
1788787662.464876,2166,2660,0
1788787662.4670532,2135,2173,0
1788787662.469864,2081,1651,0
1788787662.474921,2157,2388,0
1788787662.475392,2111,852,0
1788787662.4759731,2033,1741,0
1788787662.476181,2010,2440,0
1788787662.476371,2059,1849,0
1788787662.4785368,2077,2447,0
1788787662.479627,2064,2586,0
1788787662.479719,2004,1661,0
1788787662.479962,2155,2061,0
1788787662.48139,2136,1982,0
1788787662.483964,2053,1203,0
1788787662.485334,1947,2354,0
1788787662.492194,2048,2189,0
1788787662.494588,2014,2140,0
1788787662.496259,2116,2798,0
1788787662.4988852,2119,1844,0
1788787662.50502,2133,1792,0
1788787662.508097,2107,2443,0
1788787662.5090702,2040,627,0
1788787662.5091572,1944,2136,0
1788787662.509221,2075,2383,0
1788787662.509295,2066,1895,0
1788787662.509357,2100,2687,0
1788787662.509417,2145,2149,0
1788787662.5122209,2113,1660,0
1788787662.5181592,2126,2420,0
1788787662.5205781,2047,776,0
1788787662.523475,1965,1774,0
1788787662.525044,1998,2437,0
1788787662.5302348,2094,1817,0
1788787662.530725,2148,2451,0
1788787662.5337331,2120,2549,0
1788787662.534983,2067,1659,0
1788787662.535074,2116,2059,0
1788787662.5352068,2104,1926,0
1788787662.53531,2015,1242,0
1788787662.53538,1978,2361,0
1788787662.53789,2087,2166,0
1788787662.539649,2136,2189,0
1788787662.5471518,2112,2751,0
1788787662.549866,2039,1838,0
1788787662.553808,2125,1814,0
1788787662.559191,2109,2400,0
1788787662.559947,2035,669,0
1788787662.560439,1904,2151,0
1788787662.562581,2007,2367,0
1788787662.5635898,2066,1923,0
1788787662.56371,2135,2683,0
1788787662.563803,2068,2127,0
1788787662.563888,2047,1673,0
1788787662.5639548,2118,2454,0
1788787662.5653372,2062,771,0
1788787662.574705,1989,1798,0
1788787662.5751328,2005,2435,0
1788787662.578988,2086,1792,0
1788787662.584248,2125,2451,0
1788787662.58454,2088,2527,0
1788787662.5852642,2046,1658,0
1788787662.587601,2127,2086,0
1788787662.588518,2084,1913,0
1788787662.5885959,2015,1268,0
1788787662.58866,1952,2369,0
1788787662.588722,2074,2155,0
1788787662.5900831,2128,2198,0
1788787662.591433,2100,2773,0
1788787662.5940852,2061,1823,0
1788787662.605837,2105,1820,0
1788787662.606318,2098,2386,0
1788787662.606637,2034,696,0
1788787662.610883,1944,2164,0
1788787662.620328,2053,2362,0
1788787662.620403,2095,1918,0
1788787662.620521,2114,2686,0
1788787662.620573,2065,2113,0
1788787662.6207528,2059,1677,0
1788787662.620853,2109,2466,0
1788787662.620918,2063,751,0
1788787662.620982,1954,1817,0
1788787662.621093,1974,2437,0
1788787662.6213171,2064,1780,0
1788787662.634696,2121,2483,0
1788787662.643837,2111,2504,0
1788787662.643899,2060,1649,0
1788787662.64395,2132,2097,0
1788787662.643996,2071,1881,0
1788787662.6440399,2006,1290,0
1788787662.644085,1949,2375,0
1788787662.644128,2062,2144,0
1788787662.644171,2115,2177,0
1788787662.644244,2109,2755,0
1788787662.644319,2043,1813,0
1788787662.646014,2112,1825,0
1788787662.64967,2108,2361,0
1788787662.650039,2039,714,0
1788787662.6578372,1939,2172,0
1788787662.659932,2067,2356,0
1788787662.663106,2084,1949,0
1788787662.673933,2105,2726,0
1788787662.6747131,2058,2097,0
1788787662.6750212,2068,1684,0
1788787662.675072,2125,2485,0
1788787662.675117,2043,737,0
1788787662.6751628,1941,1834,0
1788787662.675232,2000,2436,0
1788787662.675329,2061,1764,0
1788787662.6754,2121,2476,0
1788787662.675468,2070,2487,0
1788787662.691221,2068,1645,0
1788787662.698035,2136,2108,0
1788787662.701323,2113,1850,0
1788787662.701409,2012,1308,0
1788787662.70147,1953,2379,0
1788787662.7015371,2084,2134,0
1788787662.701589,2122,2188,0
1788787662.701639,2102,2742,0
1788787662.701689,2047,1810,0
1788787662.7017741,2134,1834,0
1788787662.7018392,2107,2323,0
1788787662.701928,2034,735,0
1788787662.701984,1932,2179,0
1788787662.703403,2037,2349,0
1788787662.706109,2103,2017,0
1788787662.707432,2112,2799,0
1788787662.7234619,2065,2078,0
1788787662.72386,2053,1696,0
1788787662.730112,2133,2527,0
1788787662.730491,2049,691,0
1788787662.730826,1970,1861,0
1788787662.731324,2000,2435,0
1788787662.731589,2076,1740,0
1788787662.7317839,2128,2491,0
1788787662.734825,2091,2461,0
1788787662.735203,2068,1642,0
1788787662.7352839,2143,2125,0
1788787662.735349,2067,1752,0
1788787662.735462,2010,1346,0
1788787662.735574,1960,2388,0
1788787662.738178,2086,2114,0
1788787662.747786,2116,2173,0
1788787662.7482328,2110,2757,0
1788787662.750946,2040,1790,0
1788787662.758983,2112,1843,0
1788787662.796093,2102,2308,0
1788787662.796293,2035,772,0
1788787662.7963772,1953,2196,0
1788787662.796603,2066,2341,0
1788787662.797135,2099,1974,0
1788787662.7972028,2120,2816,0
1788787662.797905,2075,2057,0
1788787662.798369,2085,1650,0
1788787662.804536,2149,2542,0
1788787662.819484,2071,695,0
1788787662.819873,1964,1877,0
1788787662.820478,1996,2433,0
1788787662.822571,2074,1723,0
1788787662.8233888,2133,2572,0
1788787662.8234398,2083,2438,0
1788787662.823487,2054,1640,0
1788787662.823533,2150,2143,0
1788787662.8235772,2078,1787,0
1788787662.823759,2000,1368,0
1788787662.823909,1950,2394,0
1788787662.8240068,2088,2103,0
1788787662.824099,2109,2204,0
1788787662.8241541,2112,2762,0
1788787662.8242009,2053,1780,0
1788787662.824244,2138,1851,0
1788787662.824289,2135,2309,0
1788787662.824332,2049,796,0
1788787662.8243809,1952,2207,0
1788787662.824424,2059,2336,0
1788787662.824467,2116,2022,0
1788787662.824511,2143,2850,0
1788787662.824554,2079,2038,0
1788787662.824598,2096,1697,0
1788787662.8246431,2156,2555,0
1788787662.8247418,2092,672,0
1788787662.8247879,1970,1903,0
1788787662.824834,2011,2437,0
1788787662.824924,2080,1706,0
1788787662.825047,2126,2586,0
1788787662.8263838,2080,2412,0
1788787662.827768,2047,1636,0
1788787662.8292348,2142,2153,0
1788787662.839335,2085,1728,0
1788787662.8396218,2027,1398,0
1788787662.8398771,1984,2403,0
1788787662.842231,2088,2090,0
1788787662.8438752,2150,2224,0
1788787662.848974,2139,2717,0
1788787662.849445,2072,1772,0
1788787662.8518898,2154,1862,0
1788787662.852643,2121,2276,0
1788787662.852907,2048,822,0
1788787662.8529642,1952,2217,0
1788787662.854281,2083,2327,0
1788787662.8555012,2120,1999,0
1788787662.861025,2135,2864,0
1788787662.862241,2072,2024,0
1788787662.8639731,2090,1707,0
1788787662.864223,2160,2573,0
1788787662.865963,2090,643,0
1788787662.868066,1987,1922,0
1788787662.872983,2021,2439,0
1788787662.8734632,2093,1694,0
1788787662.873804,2154,2540,0
1788787662.876367,2122,2400,0
1788787662.877703,2097,1626,0
1788787662.880219,2150,2159,0
1788787662.88153,2088,1677,0
1788787662.8871412,2005,1414,0
1788787662.8888268,2002,2408,0
1788787662.8906329,2108,2083,0
1788787662.8908741,2121,2230,0
1788787662.8946078,2127,2763,0
1788787662.89476,2087,1758,0
1788787662.899509,2141,1854,0
1788787662.899897,2125,2282,0
1788787662.900177,2040,843,0
1788787662.903056,1955,2228,0
1788787662.9032829,2088,2324,0
1788787662.906154,2112,2044,0
1788787662.910534,2155,2834,0
1788787662.911971,2086,2015,0
1788787662.913772,2084,1707,0
1788787662.9141362,2150,2582,0
1788787662.916354,2074,646,0
1788787662.9224691,1956,1931,0
1788787662.922708,2025,2437,0
1788787662.922854,2059,1682,0
1788787662.92544,2107,2573,0
1788787662.9257019,2094,2387,0
1788787662.928279,2068,1628,0
1788787662.929609,2170,2172,0
1788787662.932286,2102,1640,0
1788787662.936852,1981,1432,0
1788787662.937427,1965,2411,0
1788787662.938603,2099,2072,0
1788787662.940404,2141,2214,0
1788787662.942284,2120,2707,0
1788787662.944106,2061,1761,0
1788787662.948881,2129,1873,0
1788787662.949266,2121,2231,0
1788787662.94943,2041,856,0
1788787662.951349,1961,2232,0
1788787662.95393,2069,2318,0
1788787662.95864,2103,2080,0
1788787662.9591181,2114,2848,0
1788787662.96125,2036,2011,0
1788787662.961456,2061,1713,0
1788787662.968458,2121,2591,0
1788787662.968647,2050,635,0
1788787662.9689841,1955,1944,0
1788787662.971252,2006,2434,0
1788787662.9715688,2077,1668,0
1788787662.974228,2143,2562,0
1788787662.975542,2123,2374,0
1788787662.98135,2087,1627,0
1788787662.9818828,2143,2179,0
1788787662.982,2102,1511,0
1788787662.984489,1993,1457,0
1788787662.986627,1941,2414,0
1788787662.9919019,2050,2054,0
1788787662.992138,2098,2210,0
1788787662.992307,2073,2716,0
1788787662.994797,2009,1746,0
1788787662.996115,2116,1887,0
1788787662.997418,2106,2243,0
1788787662.999984,2012,880,0
1788787663.0057442,1924,2242,0
1788787663.007589,2063,2311,0
1788787663.0078,2121,2137,0
1788787663.007993,2126,2846,0
1788787663.009411,2050,1999,0
1788787663.015038,2060,1720,0
1788787663.015239,2127,2580,0
1788787663.015424,2054,528,0
1788787663.01775,1956,1971,0
1788787663.020106,2017,2468,0
1788787663.021485,2072,1632,0
1788787663.0278862,2133,2549,0
1788787663.029189,2101,2350,0
1788787663.0306509,2066,1631,0
1788787663.030802,2140,2207,0
1788787663.032442,2067,1732,0
1788787663.034024,2004,1458,0
1788787663.038537,1983,2417,0
1788787663.038909,2079,2057,0
1788787663.0412621,2119,2218,0
1788787663.041474,2109,2770,0
1788787663.0438359,2052,1742,0
1788787663.0463822,2121,1883,0
1788787663.052505,2154,2034,0
1788787663.052799,2068,911,0
1788787663.054441,1934,2249,0
1788787663.06042,2043,2295,0
1788787663.0607822,2082,2079,0
1788787663.061095,2112,2874,0
1788787663.061742,2079,1971,0
1788787663.064266,2082,1728,0
1788787663.064438,2112,2607,0
1788787663.065961,2031,596,0
1788787663.074175,1957,1979,0
1788787663.076235,2010,2428,0
1788787663.077562,2079,1629,0
1788787663.081878,2121,2610,0
1788787663.0823302,2091,2331,0
1788787663.082747,2110,1624,0
1788787663.083041,2163,2213,0
1788787663.083631,2045,1463,0
1788787663.0862532,1988,1503,0
1788787663.086383,1958,2424,0
1788787663.087716,2096,2028,0
1788787663.090389,2150,2087,0
1788787663.091788,2095,2712,0
1788787663.097951,2031,1736,0
1788787663.100076,2127,1887,0
1788787663.100369,2093,2296,0
1788787663.101824,2054,902,0
1788787663.103002,2011,2258,0
1788787663.10873,2064,2314,0
1788787663.109102,2116,1947,0
1788787663.111677,2163,2803,0
1788787663.112011,2059,1988,0
1788787663.1121202,2053,1701,0
1788787663.113479,2130,2594,0
1788787663.119173,2014,533,0
1788787663.120224,1897,1971,0
1788787663.122488,2018,2445,0
1788787663.12428,2075,1660,0
1788787663.1261508,2080,2530,0
1788787663.1263611,2094,2355,0
1788787663.1309419,2087,1616,0
1788787663.131189,2131,2179,0
1788787663.131569,2044,1549,0
1788787663.134113,2004,1469,0
1788787663.1354601,1976,2424,0
1788787663.1379242,2075,2058,0
1788787663.1393201,2095,2119,0
1788787663.143657,2091,2790,0
1788787663.144578,2068,1734,0
1788787663.1470468,2181,1873,0
1788787663.1486368,2145,2362,0
1788787663.150131,2055,873,0
1788787663.154733,1963,2253,0
1788787663.1552708,2063,2332,0
1788787663.155968,2109,1926,0
1788787663.158376,2116,2900,0
1788787663.1597052,2092,1997,0
1788787663.164025,2116,1685,0
1788787663.164789,2204,2587,0
1788787663.167274,2100,456,0
1788787663.169044,1847,1975,0
1788787663.171056,1983,2455,0
1788787663.17524,2098,1669,0
1788787663.175661,2129,2700,0
1788787663.175943,2054,2333,0
1788787663.1782,2051,1607,0
1788787663.179541,2166,2186,0
1788787663.182174,2114,1615,0
1788787663.183598,2060,1478,0
1788787663.189012,2088,2430,0
1788787663.189164,2068,2058,0
1788787663.190037,2095,2094,0
1788787663.191872,2034,2783,0
1788787663.193844,2031,1727,0
1788787663.1991942,2126,1869,0
1788787663.199408,2042,2511,0
1788787663.199554,1942,859,0
1788787663.202113,1884,2256,0
1788787663.203514,2071,2349,0
1788787663.208578,2153,1927,0
1788787663.209103,2091,2876,0
1788787663.211627,2073,1990,0
1788787663.213485,2082,1672,0
1788787663.214004,2082,2568,0
1788787663.219509,2040,427,0
1788787663.219753,1995,1967,0
1788787663.220116,2047,2459,0
1788787663.2226508,2151,1682,0
1788787663.224072,2226,2636,0
1788787663.2254121,2112,2351,0
1788787663.227915,2050,1521,0
1788787663.232445,2101,2174,0
1788787663.233574,2050,1632,0
1788787663.23457,1995,1453,0
1788787663.239209,1952,2416,0
1788787663.243718,2073,2061,0
1788787663.244127,2152,2352,0
1788787663.244333,2150,2796,0
1788787663.244549,2135,1736,0
1788787663.246924,2269,1892,0
1788787663.248232,2223,2457,0
1788787663.252518,1904,879,0
1788787663.2529962,1693,2253,0
1788787663.255857,1880,2327,0
1788787663.2579432,2010,1918,0
1788787663.259145,2056,2833,0
1788787663.26352,1986,1993,0
1788787663.2638621,1992,1688,0
1788787663.264145,2156,2586,0
1788787663.2663722,2138,417,0
1788787663.2677581,2101,1973,0
1788787663.270433,2260,2451,0
1788787663.271795,2423,1666,0
1788787663.277941,2550,2637,0
1788787663.2789278,2079,2343,0
1788787663.2807622,1606,1605,0
1788787663.282432,1777,2187,0
1788787663.2887769,2234,1274,0
1788787663.289376,2182,1509,0
1788787663.289761,1713,2427,0
1788787663.2902348,1669,2029,0
1788787663.292723,1927,1991,0
1788787663.29282,2025,2691,0
1788787663.294261,2101,1731,0
1788787663.3007848,2208,1887,0
1788787663.306335,2128,2549,0
1788787663.310967,2007,863,0
1788787663.311533,1945,2256,0
1788787663.3118641,2176,2345,0
1788787663.312059,2206,1846,0
1788787663.312334,2079,2865,0
1788787663.3150039,2012,1993,0
1788787663.315103,2086,1671,0
1788787663.3152242,2154,2562,0
1788787663.315328,2050,284,0
1788787663.3179772,1926,1981,0
1788787663.31937,1987,2462,0
1788787663.3254652,2052,1674,0
1788787663.326114,2141,2518,0
1788787663.328188,2143,2353,0
1788787663.3284962,2111,1599,0
1788787663.330672,2196,2170,0
1788787663.336982,2095,1665,0
1788787663.3372521,1977,1455,0
1788787663.337559,2008,2430,0
1788787663.33804,2095,2079,0
1788787663.3407192,2083,2217,0
1788787663.342067,2065,2764,0
1788787663.343627,2074,1738,0
1788787663.348324,2181,1865,0
1788787663.34892,2131,2534,0
1788787663.351864,2039,845,0
1788787663.352261,1944,2250,0
1788787663.3554869,2018,2352,0
1788787663.355893,2070,1769,0
1788787663.3603358,2090,2840,0
1788787663.3628428,2077,2006,0
1788787663.363591,2180,1659,0
1788787663.363657,2081,2535,0
1788787663.366289,1940,351,0
1788787663.367851,1879,1957,0
1788787663.369323,2031,2466,0
1788787663.374876,2078,1700,0
1788787663.375927,2158,2305,0
1788787663.378232,2134,2400,0
1788787663.3784,2049,1609,0
1788787663.380712,2183,2131,0
1788787663.387497,2218,1708,0
1788787663.3878999,2343,1404,0
1788787663.3886201,2141,2420,0
1788787663.3890932,1998,2108,0
1788787663.391084,1882,2475,0
1788787663.3924532,1901,2830,0
1788787663.393813,1888,1743,0
1788787663.399474,2036,1871,0
1788787663.400584,1975,2207,0
1788787663.4013388,1872,873,0
1788787663.403523,1853,2242,0
1788787663.40385,2112,2318,0
1788787663.405765,2228,1694,0
1788787663.4079318,2207,2772,0
1788787663.4131498,2093,2011,0
1788787663.4136288,2130,1677,0
1788787663.4140868,2162,2557,0
1788787663.416681,2025,328,0
1788787663.418058,1969,1962,0
1788787663.4194078,2113,2456,0
1788787663.4220421,2121,1682,0
1788787663.423434,2023,2401,0
1788787663.428353,2045,2379,0
1788787663.429672,2072,1611,0
1788787663.430316,2153,2151,0
1788787663.4339788,2043,1576,0
1788787663.434706,1915,1438,0
1788787663.441555,1895,2420,0
1788787663.4419122,2020,2080,0
1788787663.4424589,2127,2289,0
1788787663.442711,2309,2687,0
1788787663.445576,2184,1753,0
1788787663.4456599,2171,1874,0
1788787663.452578,2090,2753,0
1788787663.45377,2095,806,0
1788787663.4544058,1880,2236,0
1788787663.457033,1967,2365,0
1788787663.4574301,2032,1741,0
1788787663.4658089,2086,2783,0
1788787663.466229,2065,2036,0
1788787663.466379,2080,1645,0
1788787663.4671412,2092,2501,0
1788787663.4696991,2024,219,0
1788787663.4700842,1902,1944,0
1788787663.47015,2038,2467,0
1788787663.471547,2112,1713,0
1788787663.474179,2154,2351,0
1788787663.475517,2097,2407,0
1788787663.482249,2093,1609,0
1788787663.482883,2158,2128,0
1788787663.484829,2088,1649,0
1788787663.4851189,1997,1402,0
1788787663.48903,1997,2417,0
1788787663.489303,2115,2106,0
1788787663.494505,2162,2031,0
1788787663.495051,2143,2922,0
1788787663.495401,2083,1733,0
1788787663.498076,2177,1831,0
1788787663.4984581,2104,2657,0
1788787663.499816,2006,780,0
1788787663.508301,1895,2234,0
1788787663.5101829,2057,2385,0
1788787663.5139809,2015,1755,0
1788787663.520161,2077,2828,0
1788787663.52074,2076,2042,0
1788787663.523691,2138,1636,0
1788787663.524111,2123,2481,0
1788787663.524174,2021,225,0
1788787663.5242372,1946,1936,0
1788787663.524299,2090,2474,0
1788787663.52436,2024,1729,0
1788787663.5244212,1992,2477,0
1788787663.525635,2011,2403,0
1788787663.52808,2070,1607,0
1788787663.5294569,2175,2126,0
1788787663.5360482,2018,1501,0
1788787663.540777,2037,1422,0
1788787663.5428832,2036,2420,0
1788787663.543273,2047,2093,0
1788787663.548479,2161,2016,0
1788787663.548814,2149,2933,0
1788787663.5493052,2019,1740,0
1788787663.549837,2107,1840,0
1788787663.552094,2082,2582,0
1788787663.553074,2020,809,0
1788787663.553289,1983,2245,0
1788787663.5533628,2070,2376,0
1788787663.556095,2158,1883,0
1788787663.5606568,2125,2876,0
1788787663.564521,2034,2015,0
1788787663.568923,2124,1652,0
1788787663.5692601,2105,2519,0
1788787663.57443,2009,244,0
1788787663.574687,1895,1959,0
1788787663.57503,2015,2467,0
1788787663.575299,2095,1700,0
1788787663.5756102,2136,2595,0
1788787663.5760498,2077,2366,0
1788787663.578197,2034,1606,0
1788787663.580499,2090,2156,0
1788787663.5819101,2052,1410,0
1788787663.583339,1980,1469,0
1788787663.591887,1988,2427,0
1788787663.5944479,2080,2062,0
1788787663.594986,2150,2233,0
1788787663.595412,2071,2850,0
1788787663.5969129,2057,1724,0
1788787663.5982568,2136,1881,0
1788787663.6000772,2109,2410,0
1788787663.60051,1992,888,0
1788787663.606652,1901,2264,0
1788787663.606864,1997,2334,0
1788787663.607172,2157,1862,0
1788787663.607658,2189,2970,0
1788787663.6110091,2084,1971,0
1788787663.6123872,2110,1678,0
1788787663.613759,2124,2583,0
1788787663.6203241,2040,320,0
1788787663.621666,1976,2002,0
1788787663.623945,2035,2461,0
1788787663.62608,2077,1712,0
1788787663.626443,2137,2393,0
1788787663.6290612,2068,2348,0
1788787663.635517,2079,1602,0
1788787663.6360052,2168,2180,0
1788787663.636204,2093,749,0
1788787663.636617,1968,1566,0
1788787663.640374,1995,2432,0
1788787663.640488,2079,1987,0
1788787663.6405818,2121,2239,0
1788787663.6420102,2071,2778,0
1788787663.643383,2069,1699,0
1788787663.646046,2151,1936,0
1788787663.651737,2111,2414,0
1788787663.6527119,2042,977,0
1788787663.65468,1968,2295,0
1788787663.6584268,2068,2301,0
1788787663.6603332,2124,1884,0
1788787663.661052,2114,2887,0
1788787663.661914,2066,1943,0
1788787663.663745,2121,1699,0
1788787663.6640158,2105,2618,0
1788787663.6704042,2031,384,0
1788787663.671125,1957,2037,0
1788787663.674003,2092,2454,0
1788787663.675008,2120,1699,0
1788787663.675081,2074,2802,0
1788787663.676406,2059,2262,0
1788787663.677811,2087,1605,0
1788787663.683713,2149,2247,0
1788787663.685067,2092,1282,0
1788787663.6858711,2008,1587,0
1788787663.688852,1997,2447,0
1788787663.689172,2070,1989,0
1788787663.68945,2112,2654,0
1788787663.69326,2114,2614,0
1788787663.693654,2047,1701,0
1788787663.69924,2136,1968,0
1788787663.699656,2061,2102,0
1788787663.70018,1989,1055,0
1788787663.7028859,1919,2305,0
1788787663.704124,2072,2248,0
1788787663.705473,2130,1876,0
1788787663.7080588,2121,2886,0
1788787663.713575,2071,1912,0
1788787663.7136981,2086,1732,0
1788787663.716584,2109,2687,0
1788787663.716912,2038,452,0
1788787663.719025,1939,2068,0
1788787663.720574,2046,2439,0
1788787663.7254,2093,1650,0
1788787663.7258081,2117,2582,0
1788787663.725971,2104,2249,0
1788787663.728556,2075,1609,0
1788787663.729876,2134,2261,0
1788787663.735795,2068,1067,0
1788787663.737819,1976,1624,0
1788787663.7394078,1972,2448,0
1788787663.739611,2058,1960,0
1788787663.739873,2144,2216,0
1788787663.7419,2102,2724,0
1788787663.747848,2068,1684,0
1788787663.748116,2142,1947,0
1788787663.7483552,2099,2384,0
1788787663.7510478,2028,1023,0
1788787663.7523708,1959,2315,0
1788787663.7536829,2099,2290,0
1788787663.756284,2138,1861,0
1788787663.760951,2134,2950,0
1788787663.761976,2048,1909,0
1788787663.763347,2110,1701,0
1788787663.763499,2123,2638,0
1788787663.7665,2067,424,0
1788787663.7686331,1958,2064,0
1788787663.773591,2053,2457,0
1788787663.773791,2095,1678,0
1788787663.773973,2126,2610,0
1788787663.776664,2070,2256,0
1788787663.7779148,2077,1600,0
1788787663.78294,2126,2245,0
1788787663.783076,2068,997,0
1788787663.786431,1969,1621,0
1788787663.786724,1997,2452,0
1788787663.790195,2057,1968,0
1788787663.790428,2109,2286,0
1788787663.795292,2105,2722,0
1788787663.7956312,2080,1680,0
1788787663.796001,2147,1947,0
1788787663.798273,2092,2357,0
1788787663.799598,2032,1029,0
1788787663.802301,1965,2317,0
1788787663.8034189,2078,2287,0
1788787663.809023,2119,1906,0
1788787663.810355,2091,2944,0
1788787663.810851,2072,1906,0
1788787663.812373,2135,1707,0
1788787663.8144069,2116,2608,0
1788787663.820176,2028,438,0
1788787663.82033,1946,2068,0
1788787663.8204732,2063,2450,0
1788787663.8230631,2098,1743,0
1788787663.82437,2109,2701,0
1788787663.825852,2090,2235,0
1788787663.829901,2056,1609,0
1788787663.830747,2130,2271,0
1788787663.832313,2062,834,0
1788787663.835459,1961,1658,0
1788787663.8356,2019,2449,0
1788787663.83999,2087,1932,0
1788787663.840228,2114,2305,0
1788787663.842151,2090,2690,0
1788787663.8434691,2069,1666,0
1788787663.845821,2161,1980,0
1788787663.851733,2089,2219,0
1788787663.854483,2050,1082,0
1788787663.854659,1972,2328,0
1788787663.856164,2082,2256,0
1788787663.856629,2115,1939,0
1788787663.862093,2107,2911,0
1788787663.8622332,2039,1890,0
1788787663.8624,2108,1727,0
1788787663.864694,2093,2601,0
1788787663.866,2043,488,0
1788787663.8685849,1937,2088,0
1788787663.869965,2055,2435,0
1788787663.873665,2112,1781,0
1788787663.874527,2154,2816,0
1788787663.876682,2084,2200,0
1788787663.878548,2101,1620,0
1788787663.883967,2137,2321,0
1788787663.884109,2088,771,0
1788787663.8843489,1983,1708,0
1788787663.886726,2017,2451,0
1788787663.888099,2085,1892,0
1788787663.889408,2108,2373,0
1788787663.891971,2050,2632,0
1788787663.8962,2059,1658,0
1788787663.897063,2168,2008,0
1788787663.898868,2092,2130,0
1788787663.900885,1986,1143,0
1788787663.907016,1933,2344,0
1788787663.909552,2055,2226,0
1788787663.909718,2083,2022,0
1788787663.909825,2097,2904,0
1788787663.909893,2079,1862,0
1788787663.912718,2167,1757,0
1788787663.917635,2111,2568,0
1788787663.9183722,2018,556,0
1788787663.9195461,1903,2118,0
1788787663.923288,2059,2417,0
1788787663.9240708,2121,1828,0
1788787663.925457,2129,2912,0
1788787663.925626,2099,2154,0
1788787663.929962,2078,1639,0
1788787663.9302132,2128,2375,0
1788787663.93225,2056,706,0
1788787663.933571,1910,1766,0
1788787663.936217,1890,2453,0
1788787663.9376042,2069,1844,0
1788787663.9425359,2174,2438,0
1788787663.943028,2118,2565,0
1788787663.945096,2053,1649,0
1788787663.947281,2154,2043,0
1788787663.948692,2105,1974,0
1788787663.953183,2027,1220,0
1788787663.953729,1969,2363,0
1788787663.954037,2084,2186,0
1788787663.9567392,2129,2053,0
1788787663.95808,2081,2873,0
1788787663.959664,2060,1832,0
1788787663.96311,2099,1789,0
1788787663.9680378,2084,2522,0
1788787663.968195,2046,631,0
1788787663.968835,1902,2150,0
1788787663.974298,1981,2397,0
1788787663.97456,2038,1891,0
1788787663.974724,2142,2963,0
1788787663.9772658,2077,2108,0
1788787663.978574,2059,1650,0
1788787663.97991,2133,2432,0
1788787663.98267,2080,644,0
1788787663.986079,1981,1823,0
1788787663.9874969,2038,2451,0
1788787663.988605,2092,1795,0
1788787663.9900942,2144,2480,0
1788787663.993262,2085,2498,0
1788787663.997671,2012,1641,0
1788787663.997966,2111,2086,0
1788787663.998226,2044,1916,0
1788787664.000614,1918,1283,0
1788787664.0019279,1945,2380,0
1788787664.003526,2064,2156,0
1788787664.008178,2107,2090,0
1788787664.01028,2107,2826,0
1788787664.012342,2038,1805,0
1788787664.013479,2140,1810,0
1788787664.013679,2119,2456,0
1788787664.018175,2048,693,0
1788787664.0184221,1929,2174,0
1788787664.021148,2069,2378,0
1788787664.022475,2123,1961,0
1788787664.023818,2107,2941,0
1788787664.026411,2040,2096,0
1788787664.030182,2068,1665,0
1788787664.0307891,2109,2486,0
1788787664.033194,2060,651,0
1788787664.03526,1966,1859,0
1788787664.0409799,2016,2449,0
1788787664.041203,2074,1761,0
1788787664.0415208,2090,2535,0
1788787664.041692,2023,2467,0
1788787664.0439098,2019,1631,0
1788787664.046788,2148,2114,0
1788787664.0505118,2140,1851,0
1788787664.0518029,2060,1331,0
1788787664.052402,1975,2392,0
1788787664.070431,2089,2131,0
1788787664.070534,2111,2135,0
1788787664.087845,2089,2817,0
1788787664.091249,2057,1789,0
1788787664.091472,2137,1824,0
1788787664.091614,2022,2403,0
1788787664.091709,1942,747,0
1788787664.091773,1903,2196,0
1788787664.091836,2099,2361,0
1788787664.0918982,2116,1978,0
1788787664.091958,2160,2902,0
1788787664.0920162,2097,2055,0
1788787664.092078,2122,1676,0
1788787664.092138,2140,2522,0
1788787664.092192,2104,618,0
1788787664.0922508,1997,1887,0
1788787664.092312,2024,2446,0
1788787664.092372,2061,1733,0
1788787664.092431,2138,2508,0
1788787664.092875,2107,2438,0
1788787664.101714,2057,1623,0
1788787664.1026418,2122,2132,0
1788787664.102798,2065,1787,0
1788787664.104239,1960,1362,0
1788787664.1088169,1937,2398,0
1788787664.109139,2085,2114,0
1788787664.1094139,2112,2166,0
1788787664.1097229,2139,2791,0
1788787664.109893,2129,1777,0
1788787664.112145,2177,1844,0
1788787664.1134698,2064,2378,0
1788787664.1160388,2056,779,0
1788787664.1177018,2017,2208,0
1788787664.1230369,2074,2351,0
1788787664.1232069,2107,2012,0
1788787664.1251972,2106,2914,0
1788787664.127517,2056,2055,0
1788787664.133466,2060,1684,0
1788787664.1338282,2107,2546,0
1788787664.133999,2046,631,0
1788787664.134196,1993,1908,0
1788787664.136951,2028,2446,0
1788787664.138397,2068,1714,0
1788787664.144198,2110,2575,0
1788787664.144991,2114,2412,0
1788787664.146965,2098,1627,0
1788787664.1471748,2146,2148,0
1788787664.149187,2071,1708,0
1788787664.1558452,1965,1399,0
1788787664.156595,1974,2406,0
1788787664.157065,2105,2094,0
1788787664.157294,2176,2147,0
1788787664.1598861,2090,2736,0
1788787664.1600032,2044,1771,0
1788787664.162635,2156,1856,0
1788787664.163991,2105,2343,0
1788787664.171146,2050,807,0
1788787664.173686,1966,2219,0
1788787664.173961,2073,2341,0
1788787664.174168,2066,2040,0
1788787664.1760361,2119,2863,0
1788787664.176702,2073,2031,0
1788787664.1825228,2083,1689,0
1788787664.182914,2170,2564,0
1788787664.183658,2084,617,0
1788787664.1861691,1948,1919,0
1788787664.186485,2037,2441,0
1788787664.187904,2090,1699,0
1788787664.194592,2155,2550,0
1788787664.1975439,2099,2402,0
1788787664.199578,2071,1625,0
1788787664.201966,2152,2157,0
1788787664.2021492,2107,1644,0
1788787664.206762,2036,1415,0
1788787664.2073119,2006,2407,0
1788787664.2077491,2079,2082,0
1788787664.2080698,2141,2181,0
1788787664.2103732,2114,2747,0
1788787664.2112231,2049,1763,0
1788787664.212575,2125,1864,0
1788787664.213963,2111,2320,0
1788787664.2166421,2045,831,0
1788787664.2217522,1943,2227,0
1788787664.225615,2074,2332,0
1788787664.2260008,2116,2049,0
1788787664.228302,2121,2921,0
1788787664.234271,2067,2012,0
1788787664.234735,2065,1703,0
1788787664.235043,2157,2581,0
1788787664.235615,2072,591,0
1788787664.238574,1980,1942,0
1788787664.2388852,2017,2441,0
1788787664.239435,2092,1679,0
1788787664.239538,2143,2569,0
1788787664.246772,2086,2371,0
1788787664.247624,2070,1622,0
1788787664.250139,2160,2175,0
1788787664.250436,2076,1590,0
1788787664.250766,2003,1443,0
1788787664.2548149,1988,2414,0
1788787664.2599108,2062,2067,0
1788787664.260397,2121,2200,0
1788787664.262784,2116,2752,0
1788787664.263507,2041,1749,0
1788787664.2635782,2139,1874,0
1788787664.2636402,2089,2312,0
1788787664.266322,2049,861,0
1788787664.267766,1933,2240,0
1788787664.2705789,2060,2325,0
1788787664.276309,2117,2067,0
1788787664.280093,2135,2845,0
1788787664.280464,2082,2002,0
1788787664.282859,2096,1708,0
1788787664.284585,2130,2587,0
1788787664.289919,2058,578,0
1788787664.29019,1971,1952,0
1788787664.2904909,2014,2439,0
1788787664.290772,2087,1667,0
1788787664.29109,2125,2599,0
1788787664.293848,2079,2359,0
1788787664.293919,2072,1637,0
1788787664.3006258,2161,2182,0
1788787664.3028648,2094,1530,0
1788787664.3047218,1993,1466,0
1788787664.3052511,1977,2420,0
1788787664.307276,2080,2055,0
1788787664.309299,2129,2184,0
1788787664.309681,2104,2720,0
1788787664.314712,2065,1741,0
1788787664.315486,2128,1883,0
1788787664.317701,2103,2279,0
1788787664.3188539,2032,879,0
1788787664.318913,1949,2246,0
1788787664.3202848,2073,2318,0
1788787664.321758,2122,2044,0
1788787664.324688,2125,2891,0
1788787664.326397,2076,1989,0
1788787664.332279,2085,1708,0
1788787664.333141,2128,2579,0
1788787664.3361468,2043,556,0
1788787664.338791,1968,1969,0
1788787664.340558,2038,2438,0
1788787664.345551,2095,1652,0
1788787664.346124,2138,2606,0
1788787664.3464231,2076,2345,0
1788787664.347432,2086,1619,0
1788787664.347954,2165,2196,0
1788787664.350389,2077,1442,0
1788787664.35114,2000,1490,0
1788787664.352545,2006,2423,0
1788787664.358101,2079,2039,0
1788787664.359235,2125,2165,0
1788787664.3598878,2112,2726,0
1788787664.361994,2075,1733,0
1788787664.362417,2139,1890,0
1788787664.3648078,2098,2287,0
1788787664.372164,2024,901,0
1788787664.372598,1935,2257,0
1788787664.3731258,2047,2313,0
1788787664.375863,2090,2056,0
1788787664.376126,2113,2809,0
1788787664.376194,2069,1989,0
1788787664.377532,2101,1711,0
1788787664.3801532,2130,2574,0
1788787664.381495,2058,537,0
1788787664.386577,1975,1976,0
1788787664.387666,2039,2436,0
1788787664.390201,2090,1643,0
1788787664.390778,2116,2651,0
1788787664.392956,2079,2335,0
1788787664.3997319,2079,1624,0
1788787664.400733,2162,2206,0
1788787664.401181,2084,1439,0
1788787664.405122,2008,1504,0
1788787664.40534,1985,2426,0
1788787664.405513,2086,2032,0
1788787664.405626,2134,2220,0
1788787664.415503,2119,2704,0
1788787664.4179761,2071,1729,0
1788787664.42005,2134,1898,0
1788787664.4251451,2103,2255,0
1788787664.42549,2018,920,0
1788787664.425801,1950,2262,0
1788787664.426642,2070,2304,0
1788787664.429347,2113,2095,0
1788787664.429446,2114,2792,0
1788787664.4295099,2054,1978,0
1788787664.429573,2084,1717,0
1788787664.429635,2135,2568,0
1788787664.432252,2053,488,0
1788787664.433592,1951,1991,0
1788787664.44105,2018,2429,0
1788787664.4421508,2071,1634,0
1788787664.4428742,2104,2661,0
1788787664.444663,2074,2314,0
1788787664.447398,2079,1622,0
1788787664.454321,2146,2227,0
1788787664.457731,2065,1357,0
1788787664.4581041,1988,1531,0
1788787664.459139,1983,2428,0
1788787664.4592059,2079,2011,0
1788787664.459359,2142,2223,0
1788787664.459459,2116,2711,0
1788787664.459527,2047,1721,0
1788787664.470668,2141,1915,0
1788787664.4711869,2101,2222,0
1788787664.475659,2039,953,0
1788787664.48172,1939,2274,0
1788787664.482152,2058,2293,0
1788787664.482775,2093,2139,0
1788787664.486132,2099,2834,0
1788787664.48716,2041,1959,0
1788787664.487241,2087,1730,0
1788787664.487392,2106,2579,0
1788787664.4875011,2031,508,0
1788787664.487572,1939,2014,0
1788787664.4876642,2017,2426,0
1788787664.4877272,2060,1617,0
1788787664.4904032,2120,2677,0
1788787664.4917781,2087,2280,0
1788787664.494526,2087,1620,0
1788787664.501914,2152,2243,0
1788787664.504819,2063,1332,0
1788787664.505281,1996,1557,0
1788787664.508234,2012,2433,0
1788787664.5104718,2076,1995,0
1788787664.516298,2135,2225,0
1788787664.516572,2114,2709,0
1788787664.517087,2064,1711,0
1788787664.5172758,2143,1926,0
1788787664.517667,2102,2224,0
1788787664.52018,2038,978,0
1788787664.521416,1937,2285,0
1788787664.5215292,2054,2287,0
1788787664.521599,2106,2053,0
1788787664.524309,2118,2809,0
1788787664.530244,2059,1949,0
1788787664.532639,2080,1726,0
1788787664.5329652,2121,2578,0
1788787664.5332968,2060,451,0
1788787664.5351522,1930,2028,0
1788787664.537,1978,2430,0
1788787664.5419679,2086,1612,0
1788787664.5423691,2117,1976,0
1788787664.542735,2050,2353,0
1788787664.545281,2057,1618,0
1788787664.54546,2131,2183,0
1788787664.548213,2048,1241,0
1788787664.5495648,1985,1504,0
1788787664.552429,1973,2424,0
1788787664.557683,2037,2029,0
1788787664.557782,2077,2332,0
1788787664.558339,2060,2772,0
1788787664.560524,2008,1725,0
1788787664.5625029,2101,1911,0
1788787664.568896,2065,2144,0
1788787664.5691478,2003,957,0
1788787664.569327,1910,2272,0
1788787664.569498,2061,2287,0
1788787664.572344,2112,2165,0
1788787664.5734808,2095,2784,0
1788787664.578866,2032,1966,0
1788787664.5798662,2048,1753,0
1788787664.580417,2104,2572,0
1788787664.581991,2023,479,0
1788787664.584109,1934,2016,0
1788787664.5856278,2021,2422,0
1788787664.590432,2083,1663,0
1788787664.590548,2127,2730,0
1788787664.5931652,2053,2278,0
1788787664.5944982,2024,1632,0
1788787664.595808,2134,2257,0
1788787664.598458,2095,1363,0
1788787664.603829,1985,1567,0
1788787664.6063402,1964,2432,0
1788787664.606532,2022,1986,0
1788787664.606785,2064,2140,0
1788787664.608981,2081,2694,0
1788787664.614933,2085,1709,0
1788787664.615154,2108,1918,0
1788787664.615391,2093,2177,0
1788787664.615535,2003,981,0
1788787664.6179352,1899,2284,0
1788787664.6205199,2110,2282,0
1788787664.6248572,2144,2044,0
1788787664.625494,2132,2824,0
1788787664.626037,2095,1950,0
1788787664.628302,2084,1727,0
1788787664.6320279,2170,2594,0
1788787664.6364338,2077,440,0
1788787664.636694,1930,2032,0
1788787664.636898,2003,2431,0
1788787664.639366,2101,1588,0
1788787664.639565,2037,2649,0
1788787664.6421351,2059,2277,0
1788787664.643447,2057,1612,0
1788787664.64891,2148,2254,0
1788787664.649878,2072,1350,0
1788787664.6504571,1991,1567,0
1788787664.652172,1940,2442,0
1788787664.654109,2077,1999,0
1788787664.659513,2196,2287,0
1788787664.659756,2108,2762,0
1788787664.659966,2040,1704,0
1788787664.662246,2133,1929,0
1788787664.6635861,2203,2311,0
1788787664.666147,2057,989,0
1788787664.667448,1940,2299,0
1788787664.672338,2011,2296,0
1788787664.672881,2097,1990,0
1788787664.67501,2125,2872,0
1788787664.677045,2032,1933,0
1788787664.682325,2074,1717,0
1788787664.682553,2056,2638,0
1788787664.682715,2027,427,0
1788787664.6849449,1949,2042,0
1788787664.686235,2029,2448,0
1788787664.6879392,2108,1603,0
1788787664.6905332,2132,2336,0
1788787664.695196,2084,2309,0
1788787664.695671,2081,1597,0
1788787664.696528,2154,2203,0
1788787664.6979468,2073,1457,0
1788787664.699868,1980,1522,0
1788787664.705181,1988,2441,0
1788787664.7054121,2099,2036,0
1788787664.7057018,2133,2167,0
1788787664.708169,2098,2780,0
1788787664.709474,2061,1709,0
1788787664.712053,2124,1892,0
1788787664.7134259,2072,2465,0
1788787664.717654,2006,912,0
1788787664.718157,1951,2278,0
1788787664.7223449,2048,2333,0
1788787664.72297,2115,1875,0
1788787664.728071,2114,2892,0
1788787664.728393,2041,1965,0
1788787664.728609,2016,1673,0
1788787664.730913,2130,2594,0
1788787664.7322292,2079,335,0
1788787664.733541,1973,2006,0
1788787664.739806,2036,2462,0
1788787664.740766,2081,1652,0
1788787664.75011,2139,2445,0
1788787664.750734,2093,2332,0
1788787664.753463,2079,1601,0
1788787664.753629,2136,2176,0
1788787664.75372,2038,1545,0
1788787664.753821,1940,1484,0
1788787664.7539132,1921,2436,0
1788787664.754039,2042,2062,0
1788787664.75562,2077,2077,0
1788787664.758261,2076,2780,0
1788787664.7641852,2066,1723,0
1788787664.765408,2124,1868,0
1788787664.767265,2067,2519,0
1788787664.7675252,2000,858,0
1788787664.769543,1931,2259,0
1788787664.770965,2065,2354,0
1788787664.775417,2087,1824,0
1788787664.775674,2059,2891,0
1788787664.775884,2005,1977,0
1788787664.7784479,2093,1664,0
1788787664.779758,2078,2550,0
1788787664.785341,2005,307,0
1788787664.786199,1903,1976,0
1788787664.7883651,1990,2466,0
1788787664.788586,2100,1683,0
1788787664.79019,2098,2528,0
1788787664.7960188,2090,2354,0
1788787664.796261,2087,1604,0
1788787664.7965178,2135,2164,0
1788787664.798955,2064,1501,0
1788787664.800276,1980,1468,0
1788787664.801593,1970,2431,0
1788787664.8042629,2053,2068,0
1788787664.808958,2111,2189,0
1788787664.8103411,2086,2819,0
1788787664.811889,2053,1733,0
1788787664.812109,2118,1872,0
1788787664.814126,2083,2518,0
1788787664.819793,2023,864,0
1788787664.82,1940,2260,0
1788787664.820261,2070,2349,0
1788787664.8229241,2113,1861,0
1788787664.8242729,2117,2862,0
1788787664.8257852,2055,1997,0
1788787664.829323,2117,1664,0
1788787664.830276,2133,2559,0
1788787664.832627,2063,310,0
1788787664.835923,1937,1980,0
1788787664.840269,1988,2464,0
1788787664.840516,2111,1677,0
1788787664.840634,2116,2484,0
1788787664.843153,2056,2356,0
1788787664.8444731,2030,1604,0
1788787664.845881,2121,2165,0
1788787664.8521411,2092,1549,0
1788787664.853417,2022,1463,0
1788787664.854476,1995,2430,0
1788787664.854679,2053,2072,0
1788787664.856385,2130,2250,0
1788787664.858303,2118,2815,0
1788787664.8636851,2024,1728,0
1788787664.8641012,2129,1876,0
1788787664.864254,2134,2509,0
1788787664.866678,2016,866,0
1788787664.8680131,1941,2259,0
1788787664.873208,2163,2346,0
1788787664.874298,2156,1895,0
1788787664.874825,2102,2861,0
1788787664.876578,2002,1991,0
1788787664.87831,2092,1674,0
1788787664.8839161,2089,2567,0
1788787664.884161,2010,315,0
1788787664.884608,1950,1981,0
1788787664.8871622,2071,2460,0
1788787664.888611,2077,1672,0
1788787664.889791,2107,2512,0
1788787664.8923662,2091,2354,0
1788787664.8977659,2095,1605,0
1788787664.898849,2170,2174,0
1788787664.900325,2093,1512,0
1788787664.9005702,1974,1473,0
1788787664.902532,1926,2431,0
1788787664.9081259,2079,2064,0
1788787664.908315,2209,2105,0
1788787664.9085472,2040,2783,0
1788787664.911016,1929,1728,0
1788787664.912331,2050,1868,0
1788787664.917154,2100,2446,0
1788787664.918155,2017,861,0
1788787664.91868,1918,2255,0
1788787664.9212742,2027,2345,0
1788787664.9229171,2107,1882,0
1788787664.9245389,2124,2840,0
1788787664.928878,2116,2000,0
1788787664.9292212,2160,1673,0
1788787664.9295201,2205,2561,0
1788787664.931354,2070,338,0
1788787664.9339678,1965,1973,0
1788787664.935308,1971,2459,0
1788787664.941667,2052,1678,0
1788787664.942713,2122,2475,0
1788787664.943331,2066,2362,0
1788787664.943455,2085,1612,0
1788787664.946663,2086,2160,0
1788787664.952151,2040,1410,0
1788787664.9524622,1966,1473,0
1788787664.9527318,1983,2427,0
1788787664.9553668,2086,2059,0
1788787664.9555168,2132,2409,0
1788787664.9583979,2090,2810,0
1788787664.962507,2051,1727,0
1788787664.963727,2165,1894,0
1788787664.9660742,2099,2695,0
1788787664.968076,2022,877,0
1788787664.9688609,1944,2266,0
1788787664.974719,2072,2346,0
1788787664.974924,2106,1922,0
1788787664.975065,2090,2855,0
1788787664.977258,2049,1986,0
1788787664.9782379,2140,1676,0
1788787664.979615,2132,2574,0
1788787664.982253,2042,300,0
1788787664.983616,1945,1990,0
1788787664.989074,2035,2461,0
1788787664.990709,2090,1665,0
1788787664.9925811,2070,2559,0
1788787664.994255,2058,2335,0
1788787664.994854,2053,1604,0
1788787665.000803,2139,2195,0
1788787665.000983,2082,1547,0
1788787665.001295,1980,1481,0
1788787665.003934,2003,2435,0
1788787665.004437,2091,2063,0
1788787665.005783,2125,2131,0
1788787665.0109,2087,2829,0
1788787665.013679,2058,1720,0
1788787665.014051,2134,1870,0
1788787665.014369,2084,2504,0
1788787665.022018,2029,871,0
1788787665.0222561,1942,2264,0
1788787665.022582,2101,2350,0
1788787665.022903,2127,1820,0
1788787665.025505,2101,2857,0
1788787665.0255702,2039,1989,0
1788787665.028247,2117,1664,0
1788787665.029624,2116,2559,0
1788787665.036552,2013,307,0
1788787665.041002,2007,1981,0
1788787665.041831,2023,2467,0
1788787665.0432289,2089,1681,0
1788787665.043564,2143,2476,0
1788787665.043869,2113,2355,0
1788787665.050849,2033,1600,0
1788787665.050946,2062,2160,0
1788787665.051069,2069,1562,0
1788787665.0511749,2012,1460,0
1788787665.051321,2001,2431,0
1788787665.058877,2060,2076,0
1788787665.060948,2124,2061,0
1788787665.06125,2092,2844,0
1788787665.0696461,2071,1726,0
1788787665.070563,2140,1852,0
1788787665.071021,2098,2597,0
1788787665.0734541,1957,834,0
1788787665.073536,1860,2254,0
1788787665.073601,2010,2367,0
1788787665.073664,2129,1886,0
1788787665.073728,2165,2788,0
1788787665.076326,2076,2016,0
1788787665.077667,2117,1656,0
1788787665.083664,2162,2531,0
1788787665.0839329,2088,253,0
1788787665.085641,1972,1963,0
1788787665.0875762,2066,2465,0
1788787665.0894852,2094,1693,0
1788787665.091563,2080,2422,0
1788787665.097095,2003,2379,0
1788787665.0974238,1999,1607,0
1788787665.097666,2069,2144,0
1788787665.097802,2056,1536,0
1788787665.100617,1995,1441,0
1788787665.101991,2016,2424,0
1788787665.1088,2122,2082,0
1788787665.109507,2131,2170,0
1788787665.112294,2092,2843,0
1788787665.1162162,2100,1736,0
1788787665.1166878,2223,1872,0
1788787665.1218,2201,2488,0
1788787665.122306,2104,844,0
1788787665.122731,1967,2250,0
1788787665.122886,2007,2353,0
1788787665.125115,2040,1898,0
1788787665.12588,2054,2889,0
1788787665.126219,2041,2001,0
1788787665.127559,2115,1670,0
1788787665.130089,2074,2553,0
1788787665.1317708,1982,296,0
1788787665.1391108,1893,1974,0
1788787665.141131,2046,2461,0
1788787665.143734,2087,1679,0
1788787665.145417,2177,2491,0
1788787665.150367,2150,2360,0
1788787665.1508741,2103,1606,0
1788787665.151346,2145,2170,0
1788787665.1543381,2113,1502,0
1788787665.1543958,2035,1464,0
1788787665.154502,2008,2429,0
1788787665.154592,2092,2068,0
1788787665.156157,2117,2357,0
1788787665.157651,2100,2825,0
1788787665.1633742,2027,1724,0
1788787665.1641579,2093,1892,0
1788787665.165884,2088,2145,0
1788787665.1664,2016,923,0
1788787665.1686358,1926,2264,0
1788787665.1748328,2082,2304,0
1788787665.175106,2137,1754,0
1788787665.175466,2088,2888,0
1788787665.175817,1999,1972,0
1788787665.178661,2122,1687,0
1788787665.180016,2181,2529,0
1788787665.1813629,2083,338,0
1788787665.183985,1931,2005,0
1788787665.1854699,2021,2449,0
1788787665.1917388,2066,1726,0
1788787665.1938848,2115,2640,0
1788787665.19774,2090,2305,0
1788787665.202792,2080,1618,0
1788787665.203329,2173,2222,0
1788787665.203635,2101,1386,0
1788787665.20415,1984,1532,0
1788787665.207059,2013,2433,0
1788787665.207217,2083,2017,0
1788787665.2072861,2148,2191,0
1788787665.207347,2157,2759,0
1788787665.210197,2073,1713,0
1788787665.217759,2116,1910,0
1788787665.2182,2051,2537,0
1788787665.218576,2023,919,0
1788787665.220503,1947,2279,0
1788787665.221349,2078,2328,0
1788787665.223072,2114,1866,0
1788787665.227985,2128,2832,0
1788787665.2283561,2081,1970,0
1788787665.228678,2083,1681,0
1788787665.231283,2103,2596,0
1788787665.231725,2034,334,0
1788787665.234528,1955,2004,0
1788787665.235887,2049,2461,0
1788787665.2372968,2078,1653,0
1788787665.243427,2116,2490,0
1788787665.24425,2064,2326,0
1788787665.244948,2043,1605,0
1788787665.247896,2160,2183,0
1788787665.250169,2093,1521,0
1788787665.251743,1991,1490,0
1788787665.258008,1952,2437,0
1788787665.260683,2043,2058,0
1788787665.261269,2100,2180,0
1788787665.2616189,2103,2819,0
1788787665.261686,2043,1719,0
1788787665.261749,2158,1873,0
1788787665.2632508,2066,2539,0
1788787665.269019,2006,880,0
1788787665.270633,1931,2268,0
1788787665.2724211,2070,2347,0
1788787665.2729611,2120,1879,0
1788787665.2753,2129,2816,0
1788787665.28176,2055,1987,0
1788787665.282161,2084,1668,0
1788787665.282536,2116,2566,0
1788787665.283084,2053,304,0
1788787665.2833128,1947,1985,0
1788787665.286405,2028,2463,0
1788787665.2876108,2102,1672,0
1788787665.290234,2153,2507,0
1788787665.291578,2090,2347,0
1788787665.2966158,2065,1603,0
1788787665.2983649,2149,2170,0
1788787665.300829,2085,1506,0
1788787665.3039,2012,1475,0
1788787665.306014,2015,2432,0
1788787665.3118432,2086,2064,0
1788787665.312308,2136,2261,0
1788787665.312632,2092,2744,0
1788787665.31318,2034,1730,0
1788787665.316319,2118,1880,0
1788787665.316395,2105,2501,0
1788787665.316454,2028,870,0
1788787665.3178,1927,2257,0
1788787665.319242,2080,2340,0
1788787665.3249438,2126,1873,0
1788787665.326438,2124,2823,0
1788787665.326591,2093,1998,0
1788787665.3298502,2113,1672,0
1788787665.332303,2134,2561,0
1788787665.3352718,2062,300,0
1788787665.3441222,1953,1979,0
1788787665.344534,2046,2457,0
1788787665.344625,2117,1669,0
1788787665.344693,2131,2556,0
1788787665.344756,2101,2347,0
1788787665.344854,2077,1604,0
1788787665.346237,2134,2177,0
1788787665.347612,2077,1503,0
1788787665.350304,2009,1478,0
1788787665.351846,1983,2430,0
1788787665.358357,2075,2058,0
1788787665.359442,2122,2196,0
1788787665.360058,2100,2794,0
1788787665.3602712,2057,1724,0
1788787665.3629131,2148,1878,0
1788787665.364928,2083,2450,0
1788787665.3669682,1996,879,0
1788787665.37232,1946,2260,0
1788787665.3724759,2056,2337,0
1788787665.3727,2107,1909,0
1788787665.3751051,2078,2901,0
1788787665.375913,2019,1973,0
1788787665.377238,2070,1684,0
1788787665.385238,2127,2591,0
1788787665.3870249,2048,320,0
1788787665.3884192,1948,1991,0
1788787665.389479,2031,2458,0
1788787665.389656,2082,1660,0
1788787665.391248,2115,2516,0
1788787665.39143,2084,2341,0
1788787665.396254,2079,1605,0
1788787665.39649,2188,2179,0
1788787665.3987992,2092,1483,0
1788787665.40013,2002,1486,0
1788787665.401473,1978,2433,0
1788787665.404105,2036,2055,0
1788787665.405426,2088,2143,0
1788787665.4107652,2090,2810,0
1788787665.411755,2072,1725,0
1788787665.413743,2153,1873,0
1788787665.414119,2095,2449,0
1788787665.417691,2032,883,0
1788787665.417939,1966,2265,0
1788787665.4227998,2086,2340,0
1788787665.4229372,2125,1899,0
1788787665.425758,2132,2871,0
1788787665.426013,2055,1986,0
1788787665.427231,2095,1674,0
1788787665.432106,2100,2578,0
1788787665.432273,2005,309,0
1788787665.435501,1936,1992,0
1788787665.435751,2048,2460,0
1788787665.437907,2086,1661,0
1788787665.4441862,2112,2529,0
1788787665.444427,2076,2338,0
1788787665.444597,2083,1609,0
1788787665.447105,2144,2191,0
1788787665.4472451,2080,1417,0
1788787665.450027,1996,1496,0
1788787665.4513521,1986,2436,0
1788787665.4537458,2078,2087,0
1788787665.4585211,2112,2199,0
1788787665.4594188,2088,2785,0
1788787665.459948,2061,1703,0
1788787665.461498,2144,1898,0
1788787665.464677,2082,2452,0
1788787665.4695868,2064,894,0
1788787665.4699252,1962,2265,0
1788787665.4702358,2040,2331,0
1788787665.472578,2082,1986,0
1788787665.473889,2111,2860,0
1788787665.475277,2099,1983,0
1788787665.478594,2107,1688,0
1788787665.481417,2086,2579,0
1788787665.481617,2022,326,0
1788787665.488889,1937,1998,0
1788787665.4890501,2019,2450,0
1788787665.4891891,2054,1652,0
1788787665.4893749,2107,2520,0
1788787665.491649,2071,2329,0
1788787665.4942238,2091,1607,0
1788787665.495538,2123,2194,0
1788787665.501476,2053,1339,0
1788787665.501892,1967,1514,0
1788787665.501997,2010,2433,0
1788787665.504228,2137,2032,0
1788787665.507539,2110,2188,0
1788787665.507645,2081,2755,0
1788787665.511817,2022,1717,0
1788787665.512068,2130,1898,0
1788787665.514358,2102,2360,0
1788787665.5156648,2000,919,0
1788787665.5171032,1944,2271,0
1788787665.519704,2085,2318,0
1788787665.524383,2122,1982,0
1788787665.525265,2120,2898,0
1788787665.525358,2052,1964,0
1788787665.527194,2116,1705,0
1788787665.5620532,2108,2584,0
1788787665.565401,2040,353,0
1788787665.565829,1937,2013,0
1788787665.565912,2040,2448,0
1788787665.565977,2090,1664,0
1788787665.56604,2130,2625,0
1788787665.566102,2073,2303,0
1788787665.566163,2053,1610,0
1788787665.566426,2103,2218,0
1788787665.566476,2061,1283,0
1788787665.5665169,2004,1548,0
1788787665.56659,2025,2438,0
1788787665.5666292,2068,2010,0
1788787665.5669901,2090,2269,0
1788787665.567158,2066,2754,0
1788787665.567245,2062,1707,0
1788787665.5673118,2165,1928,0
1788787665.567795,2111,2321,0
1788787665.571136,2039,966,0
1788787665.5726469,1900,2289,0
1788787665.572787,2050,2302,0
1788787665.573248,2111,1963,0
1788787665.573689,2119,2821,0
1788787665.575298,2057,1951,0
1788787665.578321,2083,1707,0
1788787665.5839,2115,2593,0
1788787665.584188,2074,379,0
1788787665.586174,1907,2027,0
1788787665.587164,2039,2445,0
1788787665.587311,2102,1660,0
1788787665.589945,2123,2614,0
1788787665.591351,2065,2283,0
1788787665.599055,2074,1608,0
1788787665.601313,2149,2230,0
1788787665.602968,2079,1303,0
1788787665.603539,1987,1558,0
1788787665.604185,1965,2439,0
1788787665.6059918,2051,2003,0
1788787665.610555,2140,2259,0
1788787665.610809,2124,2745,0
1788787665.6109738,2062,1703,0
1788787665.611163,2132,1926,0
1788787665.613578,2085,2298,0
1788787665.616558,2026,976,0
1788787665.6204102,1900,2292,0
1788787665.622473,2006,2297,0
1788787665.624075,2037,1993,0
1788787665.624203,2107,2865,0
1788787665.626225,2092,1943,0
1788787665.631955,2140,1711,0
1788787665.632245,2135,2591,0
1788787665.632691,2027,398,0
1788787665.635039,1937,2037,0
1788787665.635259,2051,2442,0
1788787665.637957,2095,1664,0
1788787665.639311,2119,2683,0
1788787665.6454132,2078,2272,0
1788787665.646037,2040,1612,0
1788787665.6461508,2135,2249,0
1788787665.6482618,2052,1265,0
1788787665.651457,1982,1582,0
1788787665.6518478,1998,2443,0
1788787665.656553,2053,1988,0
1788787665.6573498,2076,2214,0
1788787665.659714,2046,2708,0
1788787665.659965,2001,1699,0
1788787665.66134,2166,1931,0
1788787665.667161,2043,2265,0
1788787665.669557,2022,992,0
1788787665.671443,2011,2297,0
1788787665.671652,2130,2291,0
1788787665.6733718,2172,1985,0
1788787665.677595,2133,2829,0
1788787665.6778262,2029,1937,0
1788787665.6780171,2087,1715,0
1788787665.6803682,2125,2615,0
1788787665.6816971,2027,403,0
1788787665.6831,1962,2040,0
1788787665.685718,2063,2442,0
1788787665.690391,2119,1642,0
1788787665.690975,2076,2644,0
1788787665.6922839,2099,2265,0
1788787665.693989,2055,1615,0
1788787665.6970189,2113,2241,0
1788787665.701401,2068,1257,0
1788787665.701926,1969,1580,0
1788787665.702254,1940,2444,0
1788787665.7049322,2075,1990,0
1788787665.705079,2185,2224,0
1788787665.710827,2111,2708,0
1788787665.7120562,2060,1698,0
1788787665.7125812,2162,1927,0
1788787665.714106,2088,2268,0
1788787665.715585,2026,991,0
1788787665.7173069,1994,2296,0
1788787665.722095,2090,2291,0
1788787665.7226088,2143,2009,0
1788787665.724927,2110,2831,0
1788787665.725009,2033,1937,0
1788787665.7275991,2101,1718,0
1788787665.7301812,2115,2585,0
1788787665.735213,2096,420,0
1788787665.735774,1976,2040,0
1788787665.738396,2020,2438,0
1788787665.738837,2100,1657,0
1788787665.741865,2162,2687,0
1788787665.7420852,2101,2267,0
1788787665.746416,2130,1611,0
1788787665.746725,2184,2256,0
1788787665.74916,2088,1287,0
1788787665.7492092,1988,1584,0
1788787665.755768,1982,2442,0
1788787665.7563121,2101,1985,0
1788787665.756882,2143,2259,0
1788787665.7586079,2111,2710,0
1788787665.760519,2094,1697,0
1788787665.765858,2165,1939,0
1788787665.766026,2118,2261,0
1788787665.766283,2046,1001,0
1788787665.768654,1975,2299,0
1788787665.770092,2085,2286,0
1788787665.771362,2129,2029,0
1788787665.773969,2124,2834,0
1788787665.778568,2084,1934,0
1788787665.779077,2126,1721,0
1788787665.780011,2161,2586,0
1788787665.7818081,2073,439,0
1788787665.783919,1980,2044,0
1788787665.7897458,2064,2435,0
1788787665.789972,2102,1653,0
1788787665.790184,2125,2642,0
1788787665.792673,2097,2264,0
1788787665.793996,2094,1616,0
1788787665.7953658,2181,2257,0
1788787665.798174,2095,1282,0
1788787665.801922,2002,1586,0
1788787665.802033,2002,2442,0
1788787665.805425,2091,1984,0
1788787665.8071418,2141,2257,0
1788787665.807928,2093,2695,0
1788787665.814092,2068,1698,0
1788787665.814479,2151,1935,0
1788787665.81678,2123,2252,0
1788787665.8170261,2036,1001,0
1788787665.8170738,1968,2298,0
1788787665.819656,2083,2284,0
1788787665.8268878,2127,2038,0
1788787665.827992,2117,2797,0
1788787665.8298361,2066,1940,0
1788787665.832063,2110,1725,0
1788787665.83796,2114,2593,0
1788787665.838445,2052,423,0
1788787665.8387961,1949,2043,0
1788787665.839412,2049,2434,0
1788787665.841881,2091,1675,0
1788787665.841953,2132,2623,0
1788787665.842017,2078,2270,0
1788787665.8433511,2085,1615,0
1788787665.846018,2152,2256,0
1788787665.847202,2071,1300,0
1788787665.855124,1976,1582,0
1788787665.860364,1978,2440,0
1788787665.86542,2078,1983,0
1788787665.8658519,2125,2238,0
1788787665.8684,2100,2701,0
1788787665.868547,2051,1696,0
1788787665.868618,2132,1931,0
1788787665.868681,2081,2270,0
1788787665.8687549,2002,995,0
1788787665.868861,1959,2295,0
1788787665.868961,2094,2285,0
1788787665.875347,2115,2058,0
1788787665.877473,2111,2786,0
1788787665.879821,2058,1940,0
1788787665.88055,2088,1723,0
1788787665.883015,2136,2575,0
1788787665.884515,2049,420,0
1788787665.885016,1933,2038,0
1788787665.890624,2016,2430,0
1788787665.89133,2091,1658,0
1788787665.894325,2134,2662,0
1788787665.8944159,2075,2267,0
1788787665.89448,2056,1617,0
1788787665.895879,2151,2259,0
1788787665.8972318,2067,1288,0
1788787665.899905,1980,1585,0
1788787665.906709,1978,2439,0
1788787665.908849,2062,1980,0
1788787665.9091241,2136,2255,0
1788787665.909301,2094,2701,0
1788787665.910866,2055,1698,0
1788787665.911614,2127,1936,0
1788787665.9184031,2088,2246,0
1788787665.919318,2024,1004,0
1788787665.922345,1965,2297,0
1788787665.9227011,2072,2281,0
1788787665.92277,2095,2030,0
1788787665.924146,2098,2803,0
1788787665.925676,2033,1933,0
1788787665.933088,2083,1728,0
1788787665.9334779,2129,2575,0
1788787665.9353752,2064,424,0
1788787665.937427,1956,2043,0
1788787665.942689,2031,2431,0
1788787665.9433339,2081,1650,0
1788787665.943603,2108,2653,0
1788787665.9459379,2073,2260,0
1788787665.946857,2082,1615,0
1788787665.9469252,2159,2252,0
1788787665.946986,2089,1317,0
1788787665.9496052,1993,1584,0
1788787665.950955,1984,2439,0
1788787665.957901,2073,1981,0
1788787665.9596548,2147,2240,0
1788787665.962002,2105,2641,0
1788787665.965704,2053,1704,0
1788787665.972085,2124,1935,0
1788787665.9724889,2095,2260,0
1788787665.9753,2034,991,0
1788787665.975691,1947,2290,0
1788787665.975762,2061,2283,0
1788787665.975827,2105,2049,0
1788787665.975889,2113,2830,0
1788787665.975952,2069,1943,0
1788787665.977291,2084,1724,0
1788787665.982697,2106,2580,0
1788787665.9838982,2055,418,0
1788787665.986379,1946,2041,0
1788787665.988606,2018,2430,0
1788787665.989428,2081,1638,0
1788787665.989722,2109,2647,0
1788787665.998653,2070,2265,0
1788787665.99876,2063,1617,0
1788787665.99884,2137,2254,0
1788787665.9989078,2066,1311,0
1788787665.99897,1971,1582,0
1788787666.001611,1964,2440,0
1788787666.003028,2059,1984,0
1788787666.005714,2134,2242,0
1788787666.0121,2100,2705,0
1788787666.014933,2057,1696,0
1788787666.0153348,2151,1931,0
1788787666.017219,2123,2262,0
1788787666.0257752,2040,997,0
1788787666.0261571,1970,2295,0
1788787666.026675,2078,2285,0
1788787666.027106,2104,2021,0
1788787666.027371,2099,2813,0
1788787666.027754,2045,1940,0
1788787666.0298638,2068,1721,0
1788787666.0306938,2109,2589,0
1788787666.032054,1995,451,0
1788787666.037201,1953,2038,0
1788787666.039147,2021,2434,0
1788787666.03992,2097,1657,0
1788787666.042163,2153,2615,0
1788787666.042437,2087,2274,0
1788787666.045904,2126,1614,0
1788787666.046444,2166,2250,0
1788787666.0525582,2053,1352,0
1788787666.0530078,1956,1569,0
1788787666.0533178,1964,2439,0
1788787666.056426,2063,1993,0
1788787666.056535,2103,2206,0
1788787666.057892,2079,2693,0
1788787666.059246,2039,1703,0
1788787666.062071,2111,1915,0
1788787666.0678809,2079,2282,0
1788787666.0686898,2057,976,0
1788787666.069514,1984,2288,0
1788787666.07169,2101,2292,0
1788787666.072093,2096,2206,0
1788787666.074383,2085,2813,0
1788787666.081928,2042,1945,0
1788787666.082865,2095,1736,0
1788787666.085231,2093,2661,0
1788787666.08623,2052,438,0
1788787666.086358,1954,2035,0
1788787666.0866292,2014,2431,0
1788787666.088419,2081,1642,0
1788787666.0943801,2124,2660,0
1788787666.095876,2103,2272,0
1788787666.09718,2062,1616,0
1788787666.099426,2122,2253,0
1788787666.102487,2070,1285,0
1788787666.103392,2003,1580,0
1788787666.1050408,1994,2439,0
1788787666.11103,2037,1984,0
1788787666.111583,2084,2205,0
1788787666.11201,2123,2669,0
1788787666.112374,2083,1704,0
1788787666.1127481,2173,1934,0
1788787666.115859,2086,2291,0
1788787666.116053,2030,983,0
1788787666.117546,1954,2291,0
1788787666.118915,2080,2290,0
1788787666.12155,2133,1899,0
1788787666.122912,2099,2774,0
1788787666.129359,2067,1951,0
1788787666.13005,2095,1711,0
1788787666.131913,2096,2565,0
1788787666.1341271,2032,399,0
1788787666.1344619,1951,2026,0
1788787666.140376,2061,2441,0
1788787666.1463091,2098,1612,0
1788787666.146792,2117,2596,0
1788787666.147126,2069,2292,0
1788787666.14751,2056,1609,0
1788787666.147766,2126,2227,0
1788787666.1508548,2109,1446,0
1788787666.151368,1970,1540,0
1788787666.1514418,1996,2441,0
1788787666.152936,2081,2020,0
1788787666.159519,2120,2222,0
1788787666.1601799,2090,2740,0
1788787666.161027,2060,1704,0
1788787666.1617038,2140,1908,0
1788787666.165534,2073,2350,0
1788787666.1662452,2002,946,0
1788787666.1741261,1928,2283,0
1788787666.174834,2050,2311,0
1788787666.175067,2083,1896,0
1788787666.1781068,2121,2861,0
1788787666.179178,2073,1959,0
1788787666.1792681,2109,1695,0
1788787666.1793349,2126,2593,0
1788787666.1820102,2050,395,0
1788787666.18344,1928,2016,0
1788787666.184854,2025,2452,0
1788787666.1924102,2091,1631,0
1788787666.1938088,2108,2557,0
1788787666.196973,2053,2308,0
1788787666.199768,2039,1600,0
1788787666.201638,2105,2203,0
1788787666.208122,2063,1447,0
1788787666.2083058,2005,1520,0
1788787666.208562,2019,2439,0
1788787666.2087638,2095,2035,0
1788787666.209048,2131,2176,0
1788787666.209288,2032,2822,0
1788787666.211735,2030,1704,0
1788787666.212914,2113,1896,0
1788787666.2130089,2134,2485,0
1788787666.216021,2019,916,0
1788787666.2234838,1895,2281,0
1788787666.223719,2034,2334,0
1788787666.226034,2148,1846,0
1788787666.22616,2169,2816,0
1788787666.22645,2058,1975,0
1788787666.2284129,2097,1677,0
1788787666.230449,2149,2595,0
1788787666.2352471,2080,399,0
1788787666.235719,1958,1994,0
1788787666.235991,2031,2465,0
1788787666.238956,2085,1667,0
1788787666.239029,2098,2455,0
1788787666.241623,2069,2347,0
1788787666.242948,2069,1600,0
1788787666.249791,2136,2166,0
1788787666.2514749,2081,1496,0
1788787666.25507,1989,1477,0
1788787666.256199,1982,2434,0
1788787666.2563899,2069,2064,0
1788787666.257905,2116,2130,0
1788787666.262635,2118,2759,0
1788787666.262998,2090,1729,0
1788787666.263242,2167,1867,0
1788787666.2636359,2088,2548,0
1788787666.26626,2007,853,0
1788787666.2675881,1954,2256,0
1788787666.269005,2097,2353,0
1788787666.27405,2135,1856,0
1788787666.2742798,2104,2874,0
1788787666.277117,2014,1996,0
1788787666.2772648,2082,1666,0
1788787666.2797382,2133,2551,0
1788787666.285772,2056,390,0
1788787666.2859032,1957,1965,0
1788787666.286328,2016,2464,0
1788787666.2891772,2121,1690,0
1788787666.289231,2075,2513,0
1788787666.2918022,2087,2377,0
1788787666.2931142,2107,1602,0
1788787666.299407,2163,2157,0
1788787666.299604,2034,1653,0
1788787666.300309,1967,1442,0
1788787666.3032992,1994,2427,0
1788787666.303586,2093,2085,0
1788787666.305368,2169,2134,0
1788787666.30741,2104,2798,0
1788787666.312021,2091,1738,0
1788787666.312169,2144,1857,0
1788787666.314813,2070,2542,0
1788787666.3150232,1946,826,0
1788787666.322895,1893,2245,0
1788787666.3233678,2031,2361,0
1788787666.323516,2049,1821,0
1788787666.3251572,2090,2766,0
1788787666.326973,2015,2025,0
1788787666.327133,2115,1658,0
1788787666.329068,2151,2522,0
1788787666.3337579,2037,334,0
1788787666.334132,1941,1944,0
1788787666.3367412,2024,2464,0
1788787666.336954,2114,1708,0
1788787666.339466,2162,2473,0
1788787666.340784,2039,2388,0
1788787666.346844,2008,1612,0
1788787666.3473432,2120,2143,0
1788787666.348375,2071,1674,0
1788787666.349845,1936,1414,0
1788787666.3518531,1890,2419,0
1788787666.357294,2042,2098,0
1788787666.3575628,2128,2128,0
1788787666.3577018,2049,2787,0
1788787666.359987,1946,1749,0
1788787666.3613,2156,1846,0
1788787666.36269,2089,2581,0
1788787666.3652852,2028,795,0
1788787666.369302,1931,2230,0
1788787666.370176,2104,2368,0
1788787666.372459,2185,1899,0
1788787666.3743858,2194,2826,0
1788787666.3797162,2224,2033,0
1788787666.3798652,2169,1662,0
1788787666.3800352,2236,2518,0
1788787666.382302,1861,394,0
1788787666.38373,1680,1929,0
1788787666.385046,1859,2460,0
1788787666.3877,1988,1715,0
1788787666.3920588,2052,2554,0
1788787666.392641,1947,2395,0
1788787666.395045,1875,1616,0
1788787666.3952582,2076,2145,0
1788787666.397006,2085,1760,0
1788787666.4025862,2089,1402,0
1788787666.4027982,2134,2415,0
1788787666.402921,2112,2103,0
1788787666.405378,2060,2067,0
1788787666.406705,2239,2807,0
1788787666.4092731,2247,1756,0
1788787666.4151611,2253,1838,0
1788787666.4156559,1862,2548,0
1788787666.4161952,1778,783,0
1788787666.418082,1853,2225,0
1788787666.419988,2061,2371,0
1788787666.425341,2019,1829,0
1788787666.425559,2042,2705,0
1788787666.425766,1905,2051,0
1788787666.428103,1917,1653,0
1788787666.429424,2104,2489,0
1788787666.430738,2118,284,0
1788787666.433316,2065,1918,0
1788787666.4387891,2144,2460,0
1788787666.443167,2138,1725,0
1788787666.444653,2092,2526,0
1788787666.450132,2007,2409,0
1788787666.450738,2024,1617,0
1788787666.453488,2130,2138,0
1788787666.4535801,2122,1523,0
1788787666.4536672,2027,1415,0
1788787666.453811,2013,2412,0
1788787666.453899,2107,2088,0
1788787666.4554,2108,2101,0
1788787666.460366,2057,2759,0
1788787666.461431,2040,1759,0
1788787666.462068,2145,1852,0
1788787666.464173,2078,2573,0
1788787666.4658859,2063,794,0
1788787666.467614,1986,2226,0
1788787666.472599,2131,2363,0
1788787666.4728918,2057,2034,0
1788787666.473078,2052,2856,0
1788787666.475714,2005,2032,0
1788787666.4770648,2083,1676,0
1788787666.4796531,2132,2542,0
1788787666.481003,2036,390,0
1788787666.485614,1952,1937,0
1788787666.485833,2050,2451,0
1788787666.487427,2113,1696,0
1788787666.48914,2147,2522,0
1788787666.490943,2082,2392,0
1788787666.496843,2067,1616,0
1788787666.4972532,2130,2161,0
1788787666.497513,2073,1783,0
1788787666.499925,1982,1409,0
