timestamp,ch1,ch2,label
1788787750.5407329,1946,2321,1
1788787750.544984,2059,2107,1
1788787750.546048,2121,2611,1
1788787750.546226,2122,2434,1
1788787750.548983,2058,1876,1
1788787750.551462,2096,1904,1
1788787750.554019,2130,1934,1
1788787750.5546482,2051,789,1
1788787750.556748,1937,2124,1
1788787750.5580978,2027,2258,1
1788787750.560707,2092,2042,1
1788787750.562123,2129,2268,1
1788787750.567766,2088,2160,1
1788787750.568474,2061,1766,1
1788787750.570953,2131,2541,1
1788787750.5713248,2076,1234,1
1788787750.575705,1991,1746,1
1788787750.576111,1975,2378,1
1788787750.578579,2075,1760,1
1788787750.578698,2124,2370,1
1788787750.5802188,2113,2404,1
1788787750.581685,2060,1715,1
1788787750.591882,2146,2104,1
1788787750.592212,2091,1516,1
1788787750.592627,2027,1260,1
1788787750.592881,1926,2322,1
1788787750.595721,2058,2137,1
1788787750.597495,2079,2634,1
1788787750.5987682,2102,2367,1
1788787750.5992472,2048,1892,1
1788787750.603004,2071,1912,1
1788787750.603463,2120,1872,1
1788787750.603594,2056,778,1
1788787750.606244,1952,2124,1
1788787750.6110961,2029,2244,1
1788787750.612162,2078,2005,1
1788787750.614002,2129,2295,1
1788787750.616286,2099,2152,1
1788787750.616531,2071,1768,1
1788787750.618762,2145,2565,1
1788787750.622873,2082,1193,1
1788787750.622981,1986,1759,1
1788787750.624338,1991,2376,1
1788787750.62572,2067,1746,1
1788787750.628397,2127,2375,1
1788787750.634458,2103,2441,1
1788787750.638444,2046,1712,1
1788787750.640922,2146,2115,1
1788787750.642587,2096,1543,1
1788787750.644068,2012,1278,1
1788787750.644591,1936,2331,1
1788787750.645024,2057,2093,1
1788787750.647249,2113,2614,1
1788787750.648142,2123,2365,1
1788787750.648224,2066,1878,1
1788787750.649583,2084,1908,1
1788787750.6566432,2128,1850,1
1788787750.657917,2053,783,1
1788787750.660633,1931,2135,1
1788787750.663732,2013,2248,1
1788787750.6653051,2075,2069,1
1788787750.665699,2116,2218,1
1788787750.665948,2064,2151,1
1788787750.667577,2064,1768,1
1788787750.667837,2151,2571,1
1788787750.670982,2070,1129,1
1788787750.672512,1980,1768,1
1788787750.673855,1985,2376,1
1788787750.676453,2076,1740,1
1788787750.6816509,2129,2374,1
1788787750.681833,2101,2416,1
1788787750.684553,2060,1705,1
1788787750.686643,2144,2121,1
1788787750.686999,2094,1522,1
1788787750.690718,2024,1286,1
1788787750.691013,1935,2331,1
1788787750.692758,2065,2086,1
1788787750.6955929,2107,2602,1
1788787750.695668,2110,2339,1
1788787750.698362,2061,1880,1
1788787750.702655,2090,1912,1
1788787750.70284,2120,1823,1
1788787750.705567,2052,790,1
1788787750.707346,1947,2136,1
1788787750.7117429,2022,2243,1
1788787750.713652,2085,2169,1
1788787750.7138848,2127,2275,1
1788787750.7144551,2080,2141,1
1788787750.717383,2080,1781,1
1788787750.717584,2134,2596,1
1788787750.720315,2078,1112,1
1788787750.721668,1983,1784,1
1788787750.7323809,1988,2370,1
1788787750.732806,2087,1717,1
1788787750.7350452,2125,2361,1
1788787750.735329,2110,2445,1
1788787750.736869,2057,1702,1
1788787750.739488,2141,2137,1
1788787750.739692,2101,1537,1
1788787750.740099,2024,1307,1
1788787750.743086,1951,2338,1
1788787750.743372,2063,2080,1
1788787750.7435,2112,2601,1
1788787750.746496,2108,2331,1
1788787750.751724,2062,1877,1
1788787750.755012,2092,1913,1
1788787750.756948,2128,1774,1
1788787750.7590752,2046,812,1
1788787750.760948,1939,2145,1
1788787750.761728,2026,2237,1
1788787750.76218,2077,2244,1
1788787750.762722,2113,2247,1
1788787750.765344,2075,2123,1
1788787750.765501,2065,1783,1
1788787750.7681239,2155,2619,1
1788787750.769511,2085,1103,1
1788787750.776236,1988,1795,1
1788787750.7774909,1974,2365,1
1788787750.7800791,2059,1703,1
1788787750.7803562,2126,2375,1
1788787750.782824,2113,2433,1
1788787750.784524,2067,1705,1
1788787750.78479,2136,2151,1
1788787750.7872179,2093,1534,1
1788787750.789951,2020,1322,1
1788787750.790029,1940,2341,1
1788787750.797215,2074,2069,1
1788787750.801334,2107,2562,1
1788787750.801638,2106,2362,1
1788787750.801993,2049,1859,1
1788787750.804151,2085,1915,1
1788787750.8063822,2118,1749,1
1788787750.8087838,2047,828,1
1788787750.8128781,1932,2152,1
1788787750.8129878,2031,2233,1
1788787750.8130372,2085,2310,1
1788787750.813086,2108,2215,1
1788787750.814558,2072,2126,1
1788787750.815973,2054,1805,1
1788787750.824215,2142,2628,1
1788787750.82554,2067,1027,1
1788787750.828078,1980,1815,1
1788787750.8347678,1971,2363,1
1788787750.837867,2077,1703,1
1788787750.8390179,2123,2363,1
1788787750.8391051,2107,2417,1
1788787750.839191,2071,1701,1
1788787750.839363,2144,2162,1
1788787750.8394508,2104,1546,1
1788787750.8395252,2019,1340,1
1788787750.839572,1940,2345,1
1788787750.847218,2084,2060,1
1788787750.849914,2120,2569,1
1788787750.852114,2129,2361,1
1788787750.8544672,2066,1855,1
1788787750.856638,2098,1922,1
1788787750.856787,2111,1746,1
1788787750.85719,2047,845,1
1788787750.8574662,1932,2160,1
1788787750.857676,2030,2229,1
1788787750.860279,2092,2310,1
1788787750.861711,2123,2213,1
1788787750.864171,2079,2118,1
1788787750.865542,2067,1803,1
1788787750.872129,2141,2640,1
1788787750.873274,2073,1018,1
1788787750.873889,1986,1825,1
1788787750.8756301,1980,2364,1
1788787750.875969,2068,1682,1
1788787750.878377,2117,2361,1
1788787750.881721,2098,2418,1
1788787750.8820102,2060,1694,1
1788787750.8846998,2142,2164,1
1788787750.886104,2097,1551,1
1788787750.8874838,2022,1349,1
1788787750.8927412,1936,2349,1
1788787750.893878,2079,2059,1
1788787750.893991,2115,2584,1
1788787750.8960361,2103,2335,1
1788787750.897831,2038,1861,1
1788787750.901742,2093,1927,1
1788787750.901967,2127,1706,1
1788787750.9049752,2045,856,1
1788787750.9062972,1916,2164,1
1788787750.9076102,2018,2226,1
1788787750.9102259,2068,2346,1
1788787750.915005,2124,2219,1
1788787750.915892,2081,2108,1
1788787750.9161332,2055,1808,1
1788787750.919165,2128,2647,1
1788787750.921203,2078,1029,1
1788787750.923093,1992,1831,1
1788787750.925385,1983,2361,1
1788787750.9256582,2078,1666,1
1788787750.928519,2141,2359,1
1788787750.929847,2107,2434,1
1788787750.932629,2052,1693,1
1788787750.933984,2157,2184,1
1788787750.9386911,2109,1538,1
1788787750.9399009,2015,1360,1
1788787750.940465,1924,2354,1
1788787750.942579,2074,2056,1
1788787750.9447522,2105,2564,1
1788787750.9481442,2115,2391,1
1788787750.948405,2058,1841,1
1788787750.9510772,2088,1921,1
1788787750.952568,2110,1689,1
1788787750.953838,2032,871,1
1788787750.956461,1928,2173,1
1788787750.95786,2027,2225,1
1788787750.961385,2096,2368,1
1788787750.962424,2123,2276,1
1788787750.965258,2076,2096,1
1788787750.971293,2067,1808,1
1788787750.971551,2149,2666,1
1788787750.971804,2075,991,1
1788787750.972042,1969,1852,1
1788787750.9748611,1986,2364,1
1788787750.976191,2074,1650,1
1788787750.97757,2120,2304,1
1788787750.980147,2092,2452,1
1788787750.984803,2072,1687,1
1788787750.9853709,2144,2177,1
1788787750.985961,2092,1548,1
1788787750.988193,2020,1375,1
1788787750.9902458,1944,2362,1
1788787750.993721,2081,2054,1
1788787750.993823,2115,2599,1
1788787750.9963388,2114,2447,1
1788787750.997647,2036,1817,1
1788787751.0002291,2093,1929,1
1788787751.001536,2138,1670,1
1788787751.006529,2060,896,1
1788787751.0074189,1947,2186,1
1788787751.00881,2064,2221,1
1788787751.010735,2101,2213,1
1788787751.013896,2139,2207,1
1788787751.0140522,2092,2090,1
1788787751.016424,2070,1796,1
1788787751.017877,2136,2650,1
1788787751.020504,2067,976,1
1788787751.021863,1978,1853,1
1788787751.026817,1972,2372,1
1788787751.027377,2073,1698,1
1788787751.027808,2116,2409,1
1788787751.0311282,2100,2446,1
1788787751.034622,2058,1659,1
1788787751.034844,2139,2168,1
1788787751.037438,2095,1555,1
1788787751.037656,2014,1383,1
1788787751.04025,1928,2360,1
1788787751.041557,2076,2045,1
1788787751.0471182,2115,2532,1
1788787751.04794,2113,2457,1
1788787751.0484328,2048,1821,1
1788787751.0499141,2098,1918,1
1788787751.0531762,2108,1752,1
1788787751.055556,2053,890,1
1788787751.0557451,1955,2187,1
1788787751.0582762,2076,2228,1
1788787751.0595882,2084,2237,1
1788787751.062353,2138,2279,1
1788787751.0684109,2090,2084,1
1788787751.073034,2098,1792,1
1788787751.077112,2150,2656,1
1788787751.07776,2081,1011,1
1788787751.078131,1980,1856,1
1788787751.080069,1980,2375,1
1788787751.0809312,2078,1662,1
1788787751.081057,2092,2530,1
1788787751.081106,2087,2436,1
1788787751.08246,2052,1677,1
1788787751.083816,2138,2187,1
1788787751.0864608,2094,1574,1
1788787751.09116,1988,1395,1
1788787751.092462,1898,2371,1
1788787751.0945668,2053,2049,1
1788787751.096307,2097,2649,1
1788787751.096857,2082,2465,1
1788787751.100559,2050,1810,1
1788787751.100802,2065,1931,1
1788787751.103483,2105,1763,1
1788787751.103592,2083,911,1
1788787751.106647,1931,2199,1
1788787751.136469,2028,2227,1
1788787751.1367629,2101,2407,1
1788787751.136925,2117,2289,1
1788787751.13703,2060,2083,1
1788787751.13712,2013,1803,1
1788787751.137179,2124,2688,1
1788787751.137254,2059,847,1
1788787751.137413,1976,1897,1
1788787751.137538,1952,2371,1
1788787751.137658,2036,1626,1
1788787751.137739,2101,2339,1
1788787751.1378508,2063,2397,1
1788787751.137939,2045,1674,1
1788787751.1379871,2155,2191,1
1788787751.138029,2108,1551,1
1788787751.138071,2015,1415,1
1788787751.1407201,1949,2376,1
1788787751.142081,2071,2038,1
1788787751.143585,2114,2484,1
1788787751.1464262,2095,2489,1
1788787751.1478488,2068,1798,1
1788787751.1504781,2183,1929,1
1788787751.151783,2145,1746,1
1788787751.156776,2003,914,1
1788787751.157676,1870,2205,1
1788787751.158338,1989,2232,1
1788787751.160257,2094,2082,1
1788787751.162287,2181,2198,1
1788787751.166166,2022,2077,1
1788787751.1665258,2002,1776,1
1788787751.169122,2108,2621,1
1788787751.17046,2064,756,1
1788787751.171971,2018,1883,1
1788787751.174598,2061,2386,1
1788787751.178897,2121,1653,1
1788787751.179483,2190,2365,1
1788787751.179979,2156,2422,1
1788787751.182661,2057,1666,1
1788787751.1846359,2114,2179,1
1788787751.188791,2033,1572,1
1788787751.18903,2053,1396,1
1788787751.191372,1948,2378,1
1788787751.191564,2031,2057,1
1788787751.194174,2181,2530,1
1788787751.1954901,2098,2475,1
1788787751.2015622,2041,1806,1
1788787751.203385,2131,1918,1
1788787751.2050738,2138,1756,1
1788787751.20528,2057,896,1
1788787751.2054799,1855,2199,1
1788787751.211112,1905,2239,1
1788787751.2113018,2019,2210,1
1788787751.211555,2102,2218,1
1788787751.213927,2012,2082,1
1788787751.215338,2048,1784,1
1788787751.2178729,2183,2631,1
1788787751.219341,2088,775,1
1788787751.224273,1897,1879,1
1788787751.225537,2056,2381,1
1788787751.225674,2246,1650,1
1788787751.227476,2186,2358,1
1788787751.230593,2162,2426,1
1788787751.233682,2074,1683,1
1788787751.2340999,2165,2177,1
1788787751.236855,2055,1548,1
1788787751.238073,1998,1398,1
1788787751.2393842,1929,2377,1
1788787751.24212,2105,2054,1
1788787751.245304,2067,2376,1
1788787751.245752,1995,2562,1
1788787751.248641,1989,1799,1
1788787751.251714,2131,1906,1
1788787751.252018,2127,1903,1
1788787751.2549708,2110,875,1
1788787751.257479,1947,2202,1
1788787751.257698,2072,2261,1
1788787751.260028,2083,2401,1
1788787751.2625222,2092,2281,1
1788787751.267345,2146,2075,1
1788787751.26788,2188,1784,1
1788787751.268467,2167,2636,1
1788787751.271879,2068,767,1
1788787751.272803,1925,1885,1
1788787751.276909,2020,2381,1
1788787751.27724,2083,1644,1
1788787751.277471,2161,2313,1
1788787751.279664,2105,2443,1
1788787751.2823,2035,1664,1
1788787751.283705,2117,2181,1
1788787751.293172,2065,1560,1
1788787751.293567,2056,1399,1
1788787751.296085,2046,2378,1
1788787751.297527,2107,2055,1
1788787751.30086,2075,2534,1
1788787751.30129,2096,2630,1
1788787751.3017302,2100,1791,1
1788787751.304663,2170,1910,1
1788787751.3047822,2136,1852,1
1788787751.304846,2005,910,1
1788787751.306257,1927,2214,1
1788787751.3114738,1980,2247,1
1788787751.3121579,2059,2371,1
1788787751.312383,2149,2387,1
1788787751.314431,2055,2049,1
1788787751.316511,2045,1789,1
1788787751.321292,2111,2651,1
1788787751.321965,2046,775,1
1788787751.322324,1989,1914,1
1788787751.3246841,2025,2381,1
1788787751.326028,2029,1621,1
1788787751.327351,2107,2328,1
1788787751.333646,2051,2412,1
1788787751.336283,1978,1662,1
1788787751.337802,2119,2198,1
1788787751.338049,2149,1583,1
1788787751.339905,2052,1424,1
1788787751.3401039,1968,2387,1
1788787751.3419552,1972,2046,1
1788787751.345634,2092,2401,1
1788787751.346306,2134,2439,1
1788787751.34927,2185,1800,1
1788787751.34937,2282,1911,1
1788787751.352154,2073,2081,1
1788787751.356831,1939,864,1
1788787751.357557,1829,2203,1
1788787751.358878,1992,2273,1
1788787751.361257,2006,2449,1
1788787751.363088,2065,2427,1
1788787751.368938,2083,2061,1
1788787751.3719401,2103,1788,1
1788787751.3723788,2084,2645,1
1788787751.372447,1923,689,1
1788787751.372509,1891,1907,1
1788787751.373864,2001,2386,1
1788787751.376435,2120,1655,1
1788787751.377825,2378,2344,1
1788787751.383564,2097,2400,1
1788787751.385428,1864,1666,1
1788787751.387357,1965,2190,1
1788787751.388923,2095,1562,1
1788787751.3900852,2070,1417,1
1788787751.391596,2042,2383,1
1788787751.3955579,2045,2047,1
1788787751.396615,2104,2436,1
1788787751.399277,2153,2728,1
1788787751.3993669,2106,1773,1
1788787751.399432,2174,1917,1
1788787751.402412,2061,1729,1
1788787751.4093518,2000,941,1
1788787751.411744,1952,2229,1
1788787751.415482,2022,2242,1
1788787751.420158,2038,2503,1
1788787751.4205272,2024,2639,1
1788787751.420971,2042,2002,1
1788787751.42145,2063,1805,1
1788787751.423967,2149,2729,1
1788787751.424177,2140,778,1
1788787751.42452,2008,1964,1
1788787751.4245849,2032,2384,1
1788787751.425921,2104,1583,1
1788787751.4273422,2090,2129,1
1788787751.429987,2047,2390,1
1788787751.439266,2083,1660,1
1788787751.439561,1988,2202,1
1788787751.439868,2198,1726,1
1788787751.440087,2116,1433,1
1788787751.4414122,1893,2399,1
1788787751.4425442,1900,2055,1
1788787751.443989,2104,2374,1
1788787751.448231,2250,2633,1
1788787751.448502,2228,1770,1
1788787751.451319,2192,1904,1
1788787751.451411,2027,2309,1
1788787751.458337,1895,864,1
1788787751.459527,1878,2227,1
1788787751.461775,2067,2304,1
1788787751.462261,2134,2039,1
1788787751.464536,2104,2544,1
1788787751.466534,1956,2045,1
1788787751.470918,1992,1718,1
1788787751.473366,2170,2590,1
1788787751.47422,2194,492,1
1788787751.474289,2068,1928,1
1788787751.4743521,2111,2426,1
1788787751.475691,2167,1670,1
1788787751.4783502,2130,2224,1
1788787751.4796958,2079,2425,1
1788787751.486763,2028,1633,1
1788787751.489616,2090,2150,1
1788787751.4900212,2118,1704,1
1788787751.491683,2043,1389,1
1788787751.494312,1944,2400,1
1788787751.498882,2087,2093,1
1788787751.499467,2127,2132,1
1788787751.499774,2138,2691,1
1788787751.50244,2038,1779,1
1788787751.502762,2141,1858,1
1788787751.502836,2114,2419,1
1788787751.504282,2016,784,1
1788787751.505884,1936,2208,1
1788787751.510804,2075,2347,1
1788787751.513655,2110,2080,1
1788787751.5137658,2147,2799,1
1788787751.513906,2080,1983,1
1788787751.518611,2042,1693,1
1788787751.5189602,2131,2562,1
1788787751.5238888,2096,395,1
1788787751.524431,2029,1915,1
1788787751.5249028,1979,2431,1
1788787751.527919,2017,1689,1
1788787751.528569,2052,2443,1
1788787751.5299861,2066,2419,1
1788787751.531344,2060,1634,1
1788787751.534071,2132,2138,1
1788787751.53568,2069,1703,1
1788787751.5425239,1941,1399,1
1788787751.547698,1969,2401,1
1788787751.554882,2051,2086,1
1788787751.555716,2114,2211,1
1788787751.558837,2108,2748,1
1788787751.559211,2049,1767,1
1788787751.5592902,2118,1864,1
1788787751.559356,2093,2415,1
1788787751.559413,1934,812,1
1788787751.559474,1965,2220,1
1788787751.55954,2040,2339,1
1788787751.5596008,2082,1841,1
1788787751.561557,2136,2688,1
1788787751.5714781,2090,2045,1
1788787751.573772,2077,1619,1
1788787751.576242,2094,2534,1
1788787751.581495,2041,484,1
1788787751.582456,1926,1903,1
1788787751.585459,1934,2440,1
1788787751.5864,2091,1710,1
1788787751.586544,2105,2161,1
1788787751.586665,2097,2453,1
1788787751.5867362,2073,1637,1
1788787751.586872,2167,2114,1
1788787751.586936,2108,1649,1
1788787751.588297,2052,1358,1
1788787751.589655,1937,2394,1
1788787751.5923772,2020,2113,1
1788787751.599803,2090,2055,1
1788787751.602707,2079,2808,1
1788787751.603457,2029,1778,1
1788787751.60377,2137,1833,1
1788787751.606129,2074,2217,1
1788787751.608602,1989,783,1
1788787751.6139112,1910,2203,1
1788787751.614711,2034,2341,1
1788787751.6151922,2101,1667,1
1788787751.6154912,2139,2717,1
1788787751.6196291,2045,2067,1
1788787751.620041,2079,1661,1
1788787751.620119,2160,2493,1
1788787751.6203861,2082,531,1
1788787751.621898,1980,1882,1
1788787751.623465,2024,2454,1
1788787751.631944,2077,1747,1
1788787751.632261,2123,2453,1
1788787751.632684,2109,2456,1
1788787751.634769,2043,1608,1
1788787751.635586,2124,2113,1
1788787751.642327,2085,1768,1
1788787751.642881,1999,1350,1
1788787751.643404,1959,2396,1
1788787751.643615,2090,2121,1
1788787751.643989,2142,2088,1
1788787751.646921,2138,2843,1
1788787751.648521,2088,1778,1
1788787751.650005,2147,1833,1
1788787751.651503,2158,2413,1
1788787751.654152,2024,761,1
1788787751.655639,1881,2205,1
1788787751.6628082,1980,2362,1
1788787751.663828,2082,1894,1
1788787751.666077,2118,2892,1
1788787751.6666691,2047,2052,1
1788787751.668681,2109,1666,1
1788787751.6712892,2160,2515,1
1788787751.6765819,2048,603,1
1788787751.676736,1933,1893,1
1788787751.6771939,1979,2453,1
1788787751.6776278,2103,1738,1
1788787751.6778922,2147,2415,1
1788787751.681262,2073,2460,1
1788787751.681337,2018,1623,1
1788787751.684077,2100,2118,1
1788787751.692137,2070,1750,1
1788787751.6942348,2027,1360,1
1788787751.696429,1972,2401,1
1788787751.698988,2093,2120,1
1788787751.699409,2118,2195,1
1788787751.704799,2101,2824,1
1788787751.705387,2022,1773,1
1788787751.705726,2084,1840,1
1788787751.706078,2094,2281,1
1788787751.706409,2024,794,1
1788787751.7067032,1951,2212,1
1788787751.709913,2068,2344,1
1788787751.710017,2131,1826,1
1788787751.711377,2154,2860,1
1788787751.7140648,2082,2042,1
1788787751.715466,2070,1674,1
1788787751.7246919,2114,2525,1
1788787751.728749,2067,583,1
1788787751.731571,1968,1906,1
1788787751.738786,2001,2451,1
1788787751.739501,2102,1724,1
1788787751.742578,2138,2483,1
1788787751.743555,2096,2420,1
1788787751.743667,2105,1624,1
1788787751.7437701,2132,2122,1
1788787751.743836,2047,1670,1
1788787751.743938,1979,1387,1
1788787751.744016,1947,2403,1
1788787751.744129,2077,2100,1
1788787751.744193,2118,2204,1
1788787751.745579,2103,2828,1
1788787751.753284,2071,1762,1
1788787751.755439,2125,1860,1
1788787751.756512,2095,2366,1
1788787751.758945,2035,813,1
1788787751.7593658,1931,2224,1
1788787751.7623081,2054,2343,1
1788787751.7705731,2096,1951,1
1788787751.773686,2107,2855,1
1788787751.774676,2046,2027,1
1788787751.774766,2075,1685,1
1788787751.7748291,2130,2559,1
1788787751.774894,2089,554,1
1788787751.774981,1949,1925,1
1788787751.775077,2015,2449,1
1788787751.7764149,2093,1704,1
1788787751.777754,2136,2462,1
1788787751.78045,2085,2409,1
1788787751.782204,2033,1623,1
1788787751.788502,2132,2148,1
1788787751.7893708,2102,1676,1
1788787751.789958,2016,1404,1
1788787751.792067,1955,2410,1
1788787751.792186,2084,2095,1
1788787751.796458,2123,2243,1
1788787751.796623,2128,2840,1
1788787751.8019001,2061,1752,1
1788787751.802558,2121,1860,1
1788787751.805366,2051,2303,1
1788787751.80616,2028,841,1
1788787751.806508,1963,2233,1
1788787751.80787,2076,2333,1
1788787751.8091981,2089,2053,1
1788787751.814676,2097,2946,1
1788787751.817143,2087,2003,1
1788787751.8191922,2087,1700,1
1788787751.819424,2137,2593,1
1788787751.821992,2087,570,1
1788787751.824272,1951,1953,1
1788787751.8245199,1997,2444,1
1788787751.829225,2052,1674,1
1788787751.829451,2094,2545,1
1788787751.829584,2073,2372,1
1788787751.831629,2054,1619,1
1788787751.834295,2130,2173,1
1788787751.835445,2084,1622,1
1788787751.8378592,2006,1446,1
1788787751.8427022,1965,2418,1
1788787751.843253,2075,2070,1
1788787751.845773,2129,2272,1
1788787751.845927,2109,2809,1
1788787751.848269,2032,1738,1
1788787751.854377,2119,1880,1
1788787751.854691,2104,2271,1
1788787751.854864,2064,884,1
1788787751.857388,1942,2250,1
1788787751.857601,2072,2319,1
1788787751.8638132,2133,2008,1
1788787751.864757,2121,2925,1
1788787751.865792,2054,1986,1
1788787751.867765,2098,1703,1
1788787751.8679821,2149,2616,1
1788787751.87137,2055,559,1
1788787751.8716428,1956,1973,1
1788787751.8762162,1987,2445,1
1788787751.876582,2073,1658,1
1788787751.879238,2119,2481,1
1788787751.879337,2082,2357,1
1788787751.881927,2035,1624,1
1788787751.8832839,2143,2177,1
1788787751.89009,2077,1601,1
1788787751.891052,2006,1461,1
1788787751.892649,1951,2425,1
1788787751.892916,2060,2066,1
1788787751.8951502,2116,2257,1
1788787751.896539,2129,2773,1
1788787751.901194,2066,1742,1
1788787751.901555,2116,1880,1
1788787751.9016771,2068,2236,1
1788787751.904415,2046,893,1
1788787751.9055622,1934,2254,1
1788787751.911368,2057,2316,1
1788787751.91188,2103,2050,1
1788787751.912024,2131,2855,1
1788787751.9149508,2073,1927,1
1788787751.9183638,2043,1717,1
1788787751.922966,2143,2620,1
1788787751.923178,2071,552,1
1788787751.923392,1956,1966,1
1788787751.923712,2025,2436,1
1788787751.92594,2072,1652,1
1788787751.927253,2114,2529,1
1788787751.929816,2081,2357,1
1788787751.931196,2061,1622,1
1788787751.93595,2150,2187,1
1788787751.936934,2089,1571,1
1788787751.9386659,2003,1466,1
1788787751.9401731,1953,2420,1
1788787751.941769,2081,2055,1
1788787751.945794,2115,2268,1
1788787751.945913,2104,2820,1
1788787751.9483562,2046,1730,1
1788787751.9496691,2117,1889,1
1788787751.952234,2108,2181,1
1788787751.953554,2042,914,1
1788787751.958442,1934,2259,1
1788787751.959718,2056,2305,1
1788787751.9598029,2104,2185,1
1788787751.961308,2113,2904,1
1788787751.964282,2042,1966,1
1788787751.968315,2089,1727,1
1788787751.968492,2139,2651,1
1788787751.970978,2064,530,1
1788787751.972296,1951,1998,1
1788787751.9736059,2019,2433,1
1788787751.976352,2078,1620,1
1788787751.979763,2126,2577,1
1788787751.981057,2085,2315,1
1788787751.9814432,2074,1618,1
1788787751.984598,2147,2213,1
1788787751.990056,2067,1530,1
1788787751.990243,1988,1507,1
1788787751.9925492,1959,2429,1
1788787751.99293,2072,2033,1
1788787751.994316,2103,2347,1
1788787751.99566,2107,2771,1
1788787751.9976761,2047,1719,1
1788787752.0062468,2132,1909,1
1788787752.0085602,2102,2070,1
1788787752.009887,2033,967,1
1788787752.010926,1934,2274,1
1788787752.0124319,2052,2281,1
1788787752.016742,2095,2345,1
1788787752.017333,2125,2869,1
1788787752.017662,2054,1946,1
1788787752.018074,2083,1758,1
1788787752.020571,2117,2623,1
1788787752.020735,2076,536,1
1788787752.02208,1945,2030,1
1788787752.026408,2006,2413,1
1788787752.0269198,2069,1565,1
1788787752.0294862,2116,2589,1
1788787752.0313358,2081,2278,1
1788787752.0331311,2065,1622,1
1788787752.0334,2138,2256,1
1788787752.0376441,2078,1419,1
1788787752.038037,2009,1560,1
1788787752.04054,1991,2434,1
1788787752.041852,2081,1994,1
1788787752.043225,2125,2435,1
1788787752.0458071,2099,2714,1
1788787752.0506299,2040,1705,1
1788787752.05131,2100,1944,1
1788787752.0522828,2084,1952,1
1788787752.054234,2036,1037,1
1788787752.056282,1936,2294,1
1788787752.061553,2066,2248,1
1788787752.0619478,2095,2265,1
1788787752.0622551,2084,2812,1
1788787752.064481,2037,1924,1
1788787752.06581,2045,1769,1
1788787752.0720289,2148,2602,1
1788787752.0738418,2073,545,1
1788787752.0739908,1954,2058,1
1788787752.074255,2006,2404,1
1788787752.076243,2099,1530,1
1788787752.081611,2137,2588,1
1788787752.082129,2119,2251,1
1788787752.0825322,2106,1621,1
1788787752.084918,2185,2283,1
1788787752.086255,2105,1410,1
1788787752.087668,1998,1591,1
1788787752.0904,1959,2440,1
1788787752.0944462,2068,1977,1
1788787752.09548,2143,2403,1
1788787752.095928,2090,2715,1
1788787752.0973692,2052,1691,1
1788787752.1003919,2153,1953,1
1788787752.10463,2107,1883,1
1788787752.104975,2031,1069,1
1788787752.107434,1925,2306,1
1788787752.107723,2051,2237,1
1788787752.110323,2075,2316,1
1788787752.115207,2180,2726,1
1788787752.116329,2134,1917,1
1788787752.118119,2133,1780,1
1788787752.11828,2080,2492,1
1788787752.125791,2042,545,1
1788787752.126026,1982,2070,1
1788787752.1264389,2037,2387,1
1788787752.1267252,2081,1594,1
1788787752.129427,2103,2628,1
1788787752.1295512,2106,2224,1
1788787752.132223,2113,1636,1
1788787752.133576,2135,2325,1
1788787752.141071,2086,1358,1
1788787752.143093,2012,1625,1
1788787752.1435552,1992,2435,1
1788787752.145813,2082,1941,1
1788787752.1473439,2154,2390,1
1788787752.152173,2110,2668,1
1788787752.152447,2074,1690,1
1788787752.152912,2139,1976,1
1788787752.155705,2095,1815,1
1788787752.1558201,2035,1107,1
1788787752.155947,1997,2313,1
1788787752.157377,2093,2215,1
1788787752.165479,2107,2417,1
1788787752.16721,2136,2714,1
1788787752.173425,2078,1904,1
1788787752.1737118,2032,1804,1
1788787752.173911,2115,2496,1
1788787752.1741178,2066,578,1
1788787752.1744099,1968,2090,1
1788787752.174592,2062,2373,1
1788787752.176886,2122,1613,1
1788787752.178275,2119,2536,1
1788787752.179636,2099,2212,1
1788787752.1823528,2108,1645,1
1788787752.187574,2207,2347,1
1788787752.18884,2145,1355,1
1788787752.1907682,2031,1643,1
1788787752.1909919,1972,2433,1
1788787752.192327,2078,1922,1
1788787752.19473,2099,2384,1
1788787752.1990578,2098,2660,1
1788787752.199643,2049,1677,1
1788787752.2014852,2067,1992,1
1788787752.2021718,2081,1735,1
1788787752.20357,2021,1134,1
1788787752.207772,1964,2318,1
1788787752.209155,2067,2199,1
1788787752.2097821,2110,2437,1
1788787752.2117949,2136,2700,1
1788787752.2152,2097,1892,1
1788787752.2198641,2072,1818,1
1788787752.220186,2109,2400,1
1788787752.2206059,2074,617,1
1788787752.22318,1988,2100,1
1788787752.223268,2015,2357,1
1788787752.226006,2072,1648,1
1788787752.229265,2110,2510,1
1788787752.229752,2100,2193,1
1788787752.234992,2084,1660,1
1788787752.235321,2133,2378,1
1788787752.238264,2045,1312,1
1788787752.238633,1952,1666,1
1788787752.2420568,1993,2428,1
1788787752.247686,2076,1896,1
1788787752.250412,2126,2395,1
1788787752.2507572,2084,2633,1
1788787752.250835,2010,1687,1
1788787752.250958,2147,2009,1
1788787752.2510989,2140,1706,1
1788787752.257845,2030,1162,1
1788787752.259124,1915,2324,1
1788787752.2604039,2050,2184,1
1788787752.26247,2110,2461,1
1788787752.264543,2147,2623,1
1788787752.265216,2095,1894,1
1788787752.272415,2096,1825,1
1788787752.272752,2131,2257,1
1788787752.272971,2062,637,1
1788787752.27526,1955,2108,1
1788787752.276278,2024,2336,1
1788787752.276365,2064,1734,1
1788787752.2777128,2103,2491,1
1788787752.279139,2081,2171,1
1788787752.281856,2073,1687,1
1788787752.2892082,2148,2420,1
1788787752.2898529,2076,1236,1
1788787752.291934,1994,1694,1
1788787752.294076,1973,2418,1
1788787752.29626,2069,1859,1
1788787752.301302,2113,2397,1
1788787752.3016489,2105,2583,1
1788787752.30201,2046,1687,1
1788787752.304518,2141,2037,1
1788787752.30603,2106,1695,1
1788787752.30612,2025,1192,1
1788787752.306185,1923,2329,1
1788787752.307523,2057,2164,1
1788787752.3161159,2104,2490,1
1788787752.3195462,2098,2590,1
1788787752.31993,2041,1883,1
1788787752.324054,2076,1840,1
1788787752.329338,2123,2154,1
1788787752.329773,2063,676,1
1788787752.330036,1947,2118,1
1788787752.330454,2017,2316,1
1788787752.330889,2093,1756,1
1788787752.333586,2124,2395,1
1788787752.333917,2093,2178,1
1788787752.333987,2070,1698,1
1788787752.334049,2143,2448,1
1788787752.3355,2078,1211,1
1788787752.338132,1980,1710,1
1788787752.3394759,1977,2412,1
1788787752.346837,2072,1837,1
1788787752.350622,2130,2345,1
1788787752.352726,2103,2559,1
1788787752.357748,2059,1689,1
1788787752.358186,2129,2046,1
1788787752.35848,2084,1657,1
1788787752.358869,2019,1206,1
1788787752.359102,1937,2329,1
1788787752.3596318,2064,2153,1
1788787752.362057,2101,2470,1
1788787752.362454,2109,2531,1
1788787752.3638191,2046,1885,1
1788787752.365526,2090,1855,1
1788787752.372145,2133,2178,1
1788787752.372829,2050,677,1
1788787752.37361,1940,2118,1
1788787752.377737,2028,2315,1
1788787752.3784802,2073,1891,1
1788787752.3800619,2133,2403,1
1788787752.380383,2084,2175,1
1788787752.386365,2061,1709,1
1788787752.3869069,2143,2466,1
1788787752.389963,2071,1143,1
1788787752.3903391,1980,1725,1
1788787752.390408,1978,2405,1
1788787752.391744,2065,1815,1
1788787752.393116,2108,2328,1
1788787752.395761,2095,2542,1
1788787752.419411,2045,1683,1
1788787752.420002,2129,2063,1
1788787752.420073,2087,1651,1
1788787752.420135,2027,1221,1
1788787752.420198,1945,2331,1
1788787752.4203331,2074,2142,1
1788787752.420393,2120,2481,1
1788787752.420453,2111,2618,1
1788787752.4205709,2063,1869,1
1788787752.420722,2102,1857,1
1788787752.420853,2127,2136,1
1788787752.421103,2057,710,1
1788787752.4211688,1959,2132,1
1788787752.4427772,2028,2306,1
1788787752.443734,2092,1872,1
1788787752.443928,2128,2407,1
1788787752.443994,2082,2155,1
1788787752.444104,2070,1714,1
1788787752.444174,2149,2487,1
1788787752.444243,2067,1153,1
1788787752.444302,1975,1749,1
1788787752.4444292,1974,2406,1
1788787752.444492,2066,1803,1
1788787752.444551,2129,2373,1
1788787752.445956,2111,2573,1
1788787752.447501,2053,1683,1
1788787752.455059,2135,2073,1
1788787752.459727,2089,1667,1
1788787752.469333,2029,1245,1
1788787752.469857,1935,2342,1
1788787752.470203,2070,2136,1
1788787752.473056,2126,2468,1
1788787752.4739032,2118,2539,1
1788787752.474305,2060,1864,1
1788787752.474371,2091,1860,1
1788787752.4744341,2128,2089,1
1788787752.474491,2064,722,1
1788787752.4745522,1958,2136,1
1788787752.474616,2036,2301,1
1788787752.47595,2078,1946,1
1788787752.47731,2108,2380,1
1788787752.4831638,2079,2154,1
1788787752.487169,2065,1723,1
1788787752.490195,2144,2498,1
1788787752.4922528,2076,1068,1
1788787752.4980621,1978,1758,1
1788787752.4983969,1972,2402,1
1788787752.498788,2056,1783,1
1788787752.499153,2117,2394,1
1788787752.499698,2086,2529,1
1788787752.500052,2059,1696,1
1788787752.503516,2135,2092,1
1788787752.504651,2104,1653,1
1788787752.504731,2024,1265,1
1788787752.506079,1951,2346,1
1788787752.507413,2077,2125,1
1788787752.510038,2124,2464,1
1788787752.5178812,2104,2570,1
1788787752.519393,2039,1853,1
1788787752.520162,2084,1867,1
1788787752.522814,2097,2064,1
1788787752.523211,2033,747,1
1788787752.5236192,1940,2148,1
1788787752.525768,2026,2296,1
1788787752.52602,2084,1953,1
1788787752.528511,2110,2369,1
1788787752.53424,2080,2144,1
1788787752.534647,2081,1726,1
1788787752.535128,2144,2512,1
1788787752.5355499,2064,1061,1
1788787752.538891,1972,1772,1
1788787752.5402792,1995,2403,1
1788787752.54193,2063,1772,1
1788787752.547603,2103,2364,1
1788787752.551339,2079,2531,1
1788787752.5548658,2050,1680,1
1788787752.562248,2129,2084,1
1788787752.562836,2068,1660,1
1788787752.563211,2000,1275,1
1788787752.563683,1941,2349,1
1788787752.564064,2048,2120,1
1788787752.567091,2094,2498,1
1788787752.56738,2107,2505,1
1788787752.567829,2034,1856,1
1788787752.567924,2065,1874,1
1788787752.567988,2102,2035,1
1788787752.5693388,2057,755,1
1788787752.571976,1933,2147,1
1788787752.573324,2022,2289,1
1788787752.5759869,2096,2054,1
1788787752.5832472,2118,2388,1
1788787752.583498,2081,2134,1
1788787752.584501,2080,1742,1
1788787752.585293,2138,2541,1
1788787752.587399,2079,1061,1
1788787752.58929,1983,1782,1
1788787752.59061,1974,2396,1
1788787752.592415,2069,1754,1
1788787752.598357,2124,2388,1
1788787752.5985138,2123,2516,1
1788787752.599309,2068,1680,1
1788787752.5995252,2153,2111,1
1788787752.603232,2095,1670,1
1788787752.603447,2029,1289,1
1788787752.606102,1945,2351,1
1788787752.6116989,2064,2112,1
1788787752.612479,2117,2499,1
1788787752.614304,2106,2637,1
1788787752.616624,2061,1836,1
1788787752.616838,2098,1877,1
1788787752.621519,2120,1997,1
1788787752.6216938,2043,790,1
1788787752.6272619,1928,2165,1
1788787752.627656,2036,2283,1
1788787752.628122,2096,2109,1
1788787752.6287308,2124,2417,1
1788787752.631792,2076,2125,1
1788787752.632201,2055,1743,1
1788787752.633564,2145,2567,1
1788787752.636277,2071,1074,1
1788787752.63782,1972,1808,1
1788787752.639513,1983,2398,1
1788787752.651954,2079,1734,1
1788787752.654913,2112,2390,1
1788787752.660746,2101,2512,1
1788787752.6645088,2061,1673,1
1788787752.664734,2125,2124,1
1788787752.664812,2112,1652,1
1788787752.664877,2010,1317,1
1788787752.664978,1923,2361,1
1788787752.665067,2069,2101,1
1788787752.6651268,2113,2491,1
1788787752.66519,2122,2527,1
1788787752.6652522,2054,1833,1
1788787752.6653209,2074,1884,1
1788787752.668148,2066,1943,1
1788787752.68272,2040,804,1
1788787752.6916502,1919,2168,1
1788787752.692092,2048,2275,1
1788787752.692173,2088,2051,1
1788787752.6923158,2098,2396,1
1788787752.6923862,2046,2110,1
1788787752.6924381,2067,1748,1
1788787752.692487,2143,2573,1
1788787752.692534,2071,976,1
1788787752.6925828,1975,1819,1
1788787752.692631,1979,2397,1
1788787752.692684,2060,1723,1
1788787752.694178,2122,2412,1
1788787752.6955771,2123,2496,1
1788787752.698365,2049,1676,1
1788787752.699755,2156,2131,1
1788787752.707798,2122,1645,1
1788787752.708707,2049,1331,1
1788787752.711831,1948,2365,1
1788787752.7124531,2066,2095,1
1788787752.7175539,2112,2503,1
1788787752.723408,2108,2574,1
1788787752.723923,2056,1826,1
1788787752.724179,2085,1884,1
1788787752.724498,2117,1948,1
1788787752.7247748,2049,824,1
1788787752.7277892,1927,2179,1
1788787752.7278988,2055,2273,1
1788787752.7281039,2099,2190,1
1788787752.728201,2126,2376,1
1788787752.729656,2071,2097,1
1788787752.737273,2079,1761,1
1788787752.7396731,2152,2596,1
1788787752.7399669,2080,889,1
1788787752.740298,1997,1845,1
1788787752.742923,1996,2392,1
1788787752.750103,2079,1695,1
1788787752.750488,2124,2361,1
1788787752.750892,2107,2474,1
1788787752.751413,2056,1669,1
1788787752.754672,2146,2150,1
1788787752.754845,2082,1607,1
1788787752.754903,2029,1355,1
1788787752.7562308,1950,2369,1
1788787752.757612,2073,2081,1
1788787752.760206,2130,2461,1
1788787752.761573,2116,2642,1
1788787752.766931,2069,1808,1
1788787752.767735,2114,1891,1
1788787752.768639,2105,1961,1
1788787752.771682,2028,849,1
1788787752.774064,1924,2194,1
1788787752.7742279,2012,2272,1
1788787752.776683,2067,2283,1
1788787752.7820458,2104,2348,1
1788787752.782275,2062,2086,1
1788787752.7824981,2046,1767,1
1788787752.7858229,2132,2623,1
1788787752.7859032,2069,844,1
1788787752.787314,1974,1866,1
1788787752.794705,1988,2391,1
1788787752.796621,2080,1676,1
1788787752.79681,2122,2386,1
1788787752.79698,2099,2442,1
1788787752.799266,2052,1667,1
1788787752.80087,2144,2165,1
1788787752.805418,2099,1601,1
1788787752.805758,2017,1377,1
1788787752.8059552,1962,2375,1
1788787752.8084538,2093,2070,1
1788787752.8097742,2136,2370,1
1788787752.811139,2134,2579,1
1788787752.813727,2045,1805,1
1788787752.8183522,2074,1903,1
1788787752.818864,2103,1922,1
1788787752.822444,2062,853,1
1788787752.824424,1950,2196,1
1788787752.826314,2047,2271,1
1788787752.82652,2107,2126,1
1788787752.8309062,2142,2379,1
1788787752.831267,2090,2080,1
1788787752.831483,2100,1754,1
1788787752.833726,2154,2595,1
1788787752.835053,2106,835,1
1788787752.840884,1993,1865,1
1788787752.841953,2002,2399,1
1788787752.8428512,2106,1686,1
1788787752.844478,2154,2470,1
1788787752.846763,2092,2464,1
1788787752.853166,2059,1670,1
1788787752.853777,2148,2162,1
1788787752.853981,2133,1617,1
1788787752.854235,2034,1385,1
1788787752.8566358,1949,2382,1
1788787752.857964,2061,2073,1
1788787752.859278,2118,2388,1
1788787752.861867,2094,2653,1
1788787752.867209,2047,1792,1
1788787752.8678348,2092,1893,1
1788787752.8684711,2152,1820,1
1788787752.871726,2024,882,1
1788787752.872246,1894,2208,1
1788787752.873944,2034,2263,1
1788787752.878578,2068,2279,1
1788787752.8787289,2119,2476,1
1788787752.8809202,2048,2049,1
1788787752.882247,2043,1770,1
1788787752.8835762,2118,2644,1
1788787752.889684,2088,725,1
1788787752.8921359,2032,1909,1
1788787752.8923168,1965,2393,1
1788787752.8925152,2055,1641,1
1788787752.8961,2118,2381,1
1788787752.900639,2086,2414,1
1788787752.9008949,2003,1657,1
1788787752.90142,2129,2189,1
1788787752.901603,2087,1636,1
1788787752.904332,2004,1414,1
1788787752.905647,1949,2390,1
1788787752.908211,2096,2059,1
1788787752.9096398,2231,2375,1
1788787752.913568,2101,2687,1
1788787752.914093,2084,1776,1
1788787752.916513,2014,1900,1
1788787752.9184651,2092,2023,1
1788787752.9235861,2001,888,1
1788787752.9238038,1932,2223,1
1788787752.9239109,2049,2278,1
1788787752.925955,2054,2064,1
1788787752.9272509,2160,2428,1
1788787752.929834,2019,2049,1
1788787752.9311419,2066,1737,1
1788787752.9376159,2205,2612,1
1788787752.939757,2160,697,1
1788787752.941838,2046,1904,1
1788787752.947975,2027,2412,1
1788787752.9482932,2112,1671,1
1788787752.948506,2158,2428,1
1788787752.949077,2157,2424,1
1788787752.951371,2136,1647,1
1788787752.952138,2036,2170,1
1788787752.9522612,2026,1657,1
1788787752.953639,1924,1402,1
1788787752.955064,1837,2394,1
1788787752.958954,1867,2074,1
1788787752.9598851,2031,2369,1
1788787752.962872,2000,2712,1
1788787752.965125,2011,1770,1
1788787752.9666061,2208,1888,1
1788787752.971273,2144,2106,1
1788787752.971667,1953,867,1
1788787752.9739552,1935,2221,1
1788787752.974005,2168,2294,1
1788787752.975317,2084,2189,1
1788787752.977727,2129,2616,1
1788787752.9790301,2109,2034,1
1788787752.984498,2144,1741,1
1788787752.987296,2146,2615,1
1788787752.989567,2099,644,1
1788787752.9897249,1970,1925,1
1788787752.990999,1929,2414,1
1788787752.995234,2000,1656,1
1788787752.99543,2104,2352,1
1788787752.995677,2161,2411,1
1788787752.998206,2115,1643,1
1788787752.999618,2185,2169,1
1788787753.004705,2052,1661,1
1788787753.005631,1984,1412,1
1788787753.0069098,1932,2399,1
1788787753.0084639,2041,2072,1
1788787753.010365,2132,2325,1
1788787753.016083,2118,2739,1
1788787753.0167549,1942,1767,1
1788787753.018701,2036,1884,1
1788787753.019485,2086,2149,1
1788787753.019705,2069,869,1
1788787753.021127,1940,2227,1
1788787753.023756,2096,2301,1
1788787753.02515,2127,2328,1
1788787753.02911,2103,2704,1
1788787753.030296,2122,2028,1
1788787753.0344472,2139,1744,1
1788787753.0352378,2217,2645,1
1788787753.0369978,2080,606,1
1788787753.0409229,1946,1948,1
1788787753.0413592,2013,2414,1
1788787753.041562,2078,1637,1
1788787753.0434592,2217,2253,1
1788787753.045835,2263,2402,1
1788787753.0505931,2087,1640,1
1788787753.051852,2115,2175,1
1788787753.052384,1987,1640,1
1788787753.055892,2019,1425,1
1788787753.0565288,1956,2404,1
1788787753.062037,2151,2069,1
1788787753.0625432,2184,2267,1
1788787753.062882,2069,2702,1
1788787753.064862,1982,1765,1
1788787753.0657148,2146,1883,1
1788787753.06707,2152,2178,1
1788787753.0695958,2299,864,1
1788787753.0712929,2204,2228,1
1788787753.075455,2014,2307,1
1788787753.0790248,1897,2075,1
1788787753.0796149,2074,2742,1
1788787753.0832782,2065,2011,1
1788787753.0835671,2052,1705,1
1788787753.087839,2137,2613,1
1788787753.088362,2099,552,1
1788787753.0886028,2092,1941,1
1788787753.0913339,2163,2426,1
1788787753.09163,2195,1659,1
1788787753.09307,2119,2262,1
1788787753.100231,2061,2409,1
1788787753.10302,2112,1632,1
1788787753.103484,2135,2159,1
1788787753.105419,2031,1611,1
1788787753.107559,1998,1416,1
1788787753.1123729,2018,2405,1
1788787753.1127932,2075,2077,1
1788787753.113305,2040,2255,1
1788787753.1136189,2113,2711,1
1788787753.116553,2121,1765,1
1788787753.116937,2101,1875,1
1788787753.1170108,2099,2210,1
1788787753.119641,1962,850,1
1788787753.122103,1891,2225,1
1788787753.128566,2093,2314,1
1788787753.129184,2018,1978,1
1788787753.131265,2274,2866,1
1788787753.1318028,2318,2012,1
1788787753.134231,2121,1705,1
1788787753.135989,2081,2597,1
1788787753.140764,1992,699,1
1788787753.140927,1980,1929,1
1788787753.14138,2000,2437,1
1788787753.1416461,2013,1685,1
1788787753.144296,2157,2477,1
1788787753.145674,2190,2398,1
1788787753.1546261,2094,1624,1
1788787753.1548831,2120,2164,1
1788787753.155104,2054,1702,1
1788787753.156916,2074,1412,1
1788787753.1589272,1998,2408,1
1788787753.163535,2001,2085,1
1788787753.163844,1961,2088,1
1788787753.1646311,2119,2840,1
1788787753.167559,2018,1754,1
1788787753.167964,2054,1851,1
1788787753.1680388,2055,2480,1
1788787753.1693811,2039,812,1
1788787753.17204,1952,2231,1
1788787753.173395,2061,2355,1
1788787753.18232,2132,1812,1
1788787753.1825988,2142,2956,1
1788787753.182724,2111,2016,1
1788787753.1852381,2103,1678,1
1788787753.185458,2160,2514,1
1788787753.185594,2097,476,1
1788787753.187902,2013,1941,1
1788787753.1952808,2193,2463,1
1788787753.19537,2165,1709,1
1788787753.195435,2201,2531,1
1788787753.195743,2083,2388,1
1788787753.197335,1929,1611,1
1788787753.2052622,2043,2146,1
1788787753.207486,2029,1909,1
1788787753.207965,1977,1393,1
1788787753.210001,1919,2419,1
1788787753.216544,1999,2116,1
1788787753.2171268,2071,2016,1
1788787753.219706,2124,2932,1
1788787753.220621,2114,1746,1
1788787753.220744,2218,1823,1
1788787753.220897,2171,2580,1
1788787753.221052,2160,779,1
1788787753.221239,1992,2233,1
1788787753.2238379,2253,2385,1
1788787753.225193,2081,1647,1
1788787753.2325819,1940,2949,1
1788787753.237663,2007,2030,1
1788787753.239402,2102,1618,1
1788787753.244021,2078,2475,1
1788787753.244681,1957,487,1
1788787753.245148,1897,1914,1
1788787753.245703,1940,2480,1
1788787753.247762,2062,1756,1
1788787753.24859,2137,2403,1
1788787753.248665,2161,2435,1
1788787753.248731,2116,1621,1
1788787753.2501178,2191,2100,1
1788787753.257139,2116,2001,1
1788787753.259399,2023,1337,1
1788787753.2597,1986,2414,1
1788787753.259924,2079,2158,1
1788787753.2602382,2140,2139,1
1788787753.262532,2145,2999,1
1788787753.269679,2113,1753,1
1788787753.2700942,2142,1800,1
1788787753.270675,2074,2825,1
1788787753.2729821,2050,720,1
1788787753.273837,1928,2219,1
1788787753.273908,2051,2417,1
1788787753.2752461,2053,1725,1
1788787753.278254,2031,3091,1
1788787753.279903,1992,2036,1
1788787753.284558,2066,1613,1
1788787753.2868118,2147,2455,1
1788787753.289171,2044,398,1
1788787753.2895591,1959,1912,1
1788787753.28987,2056,2487,1
1788787753.292235,2096,1768,1
1788787753.298265,2159,2425,1
1788787753.30093,2086,2439,1
1788787753.3019369,2020,1603,1
1788787753.302043,2168,2092,1
1788787753.302111,2194,1824,1
1788787753.303457,1962,1352,1
1788787753.312976,1770,2414,1
1788787753.313468,2016,2145,1
1788787753.315815,2020,1868,1
1788787753.3224409,1961,3015,1
1788787753.323246,2006,1751,1
1788787753.32351,2213,1790,1
1788787753.326293,2123,2679,1
1788787753.326656,2043,720,1
1788787753.326725,1936,2219,1
1788787753.3267882,2041,2416,1
1788787753.326849,2109,1710,1
1788787753.326936,2162,3071,1
1788787753.329567,2079,2038,1
1788787753.330932,2085,1609,1
1788787753.333868,2103,2450,1
1788787753.338397,2059,425,1
1788787753.339199,1930,1905,1
1788787753.340567,1884,2486,1
1788787753.342716,1997,1772,1
1788787753.3512661,2164,2482,1
1788787753.352271,2205,2447,1
1788787753.355252,2233,1604,1
1788787753.3553421,2184,2096,1
1788787753.355408,2028,1950,1
1788787753.3554702,1968,1340,1
1788787753.355531,1970,2415,1
1788787753.3569841,2094,2155,1
1788787753.3652742,2156,2171,1
1788787753.3676999,2123,2987,1
1788787753.369993,1948,1754,1
1788787753.370753,2058,1812,1
1788787753.372617,2066,2542,1
1788787753.372992,2084,756,1
1788787753.378454,1969,2221,1
1788787753.37872,2090,2389,1
1788787753.3814662,2159,1767,1
1788787753.382349,2138,3108,1
1788787753.382421,2067,2020,1
1788787753.382483,2055,1638,1
1788787753.38385,2081,2496,1
1788787753.384989,1977,410,1
1788787753.387639,1962,1932,1
1788787753.388941,2044,2477,1
1788787753.396668,2109,1736,1
1788787753.398973,2109,2487,1
1788787753.401145,2070,2408,1
1788787753.40375,2049,1604,1
1788787753.404022,2137,2122,1
1788787753.4094489,2098,1717,1
1788787753.409847,2021,1394,1
1788787753.4101639,1981,2419,1
1788787753.4107451,2092,2116,1
1788787753.413755,2137,2013,1
1788787753.414128,2093,2942,1
1788787753.414201,2047,1744,1
1788787753.415539,2113,1825,1
1788787753.41726,2092,2574,1
1788787753.4254022,2000,781,1
1788787753.425855,1924,2234,1
1788787753.4288461,2050,2385,1
1788787753.430662,2091,1910,1
1788787753.43954,2128,3037,1
1788787753.440125,2078,2011,1
1788787753.440214,2096,1651,1
1788787753.440277,2099,2520,1
1788787753.440334,2055,361,1
1788787753.440394,1957,1950,1
1788787753.440454,2052,2470,1
1788787753.441834,2102,1711,1
1788787753.443232,2120,2325,1
1788787753.445868,2070,2409,1
1788787753.447247,2051,1605,1
1788787753.459323,2161,2107,1
1788787753.4617128,2095,1676,1
1788787753.46189,2039,1402,1
1788787753.4622269,1957,2418,1
1788787753.462443,2033,2107,1
1788787753.467975,2124,2112,1
1788787753.468666,2119,2943,1
1788787753.4692109,2041,1739,1
1788787753.469577,2143,1840,1
1788787753.469812,2091,2489,1
1788787753.473068,2003,811,1
1788787753.4731462,1910,2240,1
1788787753.473207,2057,2367,1
1788787753.475819,2110,1919,1
1788787753.4852228,2122,2973,1
1788787753.485593,2034,2005,1
1788787753.485829,2050,1662,1
1788787753.4880152,2135,2544,1
1788787753.490517,2064,403,1
1788787753.490783,1967,1954,1
1788787753.4961941,2026,2464,1
1788787753.4966998,2134,1699,1
1788787753.49734,2119,2509,1
1788787753.50074,2058,2376,1
1788787753.5012321,2019,1609,1
1788787753.5013492,2126,2151,1
1788787753.50142,2071,1623,1
1788787753.502941,2000,1434,1
1788787753.505582,1956,2423,1
1788787753.5068579,2031,2087,1
1788787753.509757,2075,2153,1
1788787753.516151,2099,2901,1
1788787753.516371,2081,1720,1
1788787753.5171149,2198,1855,1
1788787753.519962,2127,2452,1
1788787753.524622,2006,845,1
1788787753.5300858,1899,2249,1
1788787753.53056,2051,2351,1
1788787753.5312371,2095,1845,1
1788787753.5315552,2110,3059,1
1788787753.531851,2026,1985,1
1788787753.535923,2067,1670,1
1788787753.536299,2136,2566,1
1788787753.5363681,2065,359,1
1788787753.537722,1957,1984,1
1788787753.5391,2012,2467,1
1788787753.545505,2090,1679,1
1788787753.546845,2121,2513,1
1788787753.547692,2070,2356,1
1788787753.5500622,2034,1598,1
1788787753.550463,2138,2159,1
1788787753.5552871,2067,1491,1
1788787753.561116,1989,1475,1
1788787753.561467,1960,2432,1
1788787753.5616472,2082,2065,1
1788787753.562219,2114,2083,1
1788787753.562356,2121,2881,1
1788787753.56564,2062,1710,1
1788787753.56574,2148,1862,1
1788787753.567101,2097,2376,1
1788787753.569786,2031,880,1
1788787753.571222,1922,2263,1
1788787753.577787,2056,2341,1
1788787753.579285,2106,1974,1
1788787753.580099,2117,2996,1
1788787753.580723,2046,1966,1
1788787753.583248,2072,1685,1
1788787753.58599,2118,2601,1
1788787753.588647,2065,336,1
1788787753.594239,1955,2004,1
1788787753.594518,2041,2459,1
1788787753.594701,2089,1650,1
1788787753.594868,2105,2480,1
1788787753.5951412,2079,2332,1
1788787753.5985248,2054,1600,1
1788787753.59997,2133,2182,1
1788787753.601336,2071,1519,1
1788787753.6082182,1990,1490,1
1788787753.608382,2000,2436,1
1788787753.6104152,2081,2056,1
1788787753.61073,2127,2084,1
1788787753.610986,2118,2858,1
1788787753.615045,2067,1726,1
1788787753.615387,2157,1868,1
1788787753.6214058,2108,2408,1
1788787753.621808,2045,889,1
1788787753.62215,1958,2270,1
1788787753.624358,2068,2342,1
1788787753.6256828,2121,1902,1
1788787753.627002,2120,3029,1
1788787753.6295848,2081,1962,1
1788787753.6309178,2086,1676,1
1788787753.6382349,2119,2598,1
1788787753.63841,2061,331,1
1788787753.638987,1951,2011,1
1788787753.639124,1987,2466,1
1788787753.641068,2081,1653,1
1788787753.645028,2126,2586,1
1788787753.645288,2069,2317,1
1788787753.650545,2058,1596,1
1788787753.6506891,2147,2191,1
1788787753.651016,2090,1487,1
1788787753.653805,1964,1509,1
1788787753.655123,1944,2442,1
1788787753.661191,2060,2050,1
1788787753.661694,2134,2125,1
1788787753.662643,2084,2847,1
1788787753.664362,2080,1706,1
1788787753.6663601,2162,1882,1
1788787753.672469,2118,2321,1
1788787753.6729238,2047,917,1
1788787753.67312,1927,2279,1
1788787753.673255,2062,2330,1
1788787753.675814,2090,2215,1
1788787753.677124,2114,2954,1
1788787753.67969,2034,1953,1
1788787753.6809962,2052,1712,1
1788787753.687055,2071,2658,1
1788787753.6876469,2011,385,1
1788787753.688597,1907,2026,1
1788787753.6902559,2021,2447,1
1788787753.691933,2095,1616,1
1788787753.693662,2128,2491,1
1788787753.698352,2070,2307,1
1788787753.698564,2040,1602,1
1788787753.701132,2129,2212,1
1788787753.7013462,2084,1341,1
1788787753.703935,2002,1537,1
1788787753.7084658,2003,2440,1
1788787753.709462,2078,2022,1
1788787753.711475,2110,2222,1
1788787753.7117069,2105,2805,1
1788787753.713792,2050,1704,1
1788787753.71962,2128,1906,1
1788787753.7198138,2100,2222,1
1788787753.720018,2011,965,1
1788787753.7228942,1942,2288,1
1788787753.7229419,2070,2301,1
1788787753.725513,2106,2058,1
1788787753.726824,2106,2966,1
1788787753.733366,2042,1934,1
1788787753.733967,2100,1721,1
1788787753.7349591,2142,2644,1
1788787753.736676,2059,407,1
1788787753.738071,1929,2044,1
1788787753.740184,2010,2446,1
1788787753.744905,2090,1598,1
1788787753.745307,2129,2654,1
1788787753.7456372,2091,2270,1
1788787753.7481291,2070,1595,1
1788787753.749614,2134,2237,1
1788787753.751148,2075,1275,1
1788787753.755792,1982,1578,1
1788787753.756587,1971,2447,1
1788787753.758265,2069,1997,1
1788787753.7601159,2095,2306,1
1788787753.7653859,2088,2765,1
1788787753.765547,2060,1691,1
1788787753.765718,2144,1913,1
1788787753.7681549,2102,2140,1
1788787753.76956,2025,1019,1
1788787753.7708318,1953,2303,1
1788787753.773462,2061,2276,1
1788787753.7768059,2113,2035,1
1788787753.777689,2117,2869,1
1788787753.7799559,2060,1923,1
1788787753.781748,2082,1715,1
1788787753.787703,2101,2628,1
1788787753.7879329,2066,439,1
1788787753.790154,1945,2056,1
1788787753.790398,2005,2434,1
1788787753.791713,2052,1779,1
1788787753.793021,2094,2785,1
1788787753.795598,2055,2236,1
1788787753.801553,2066,1631,1
1788787753.80704,2142,2295,1
1788787753.8119848,1969,1126,1
1788787753.812423,1963,1637,1
1788787753.813062,2003,2442,1
1788787753.8135529,2134,1941,1
1788787753.813967,2147,2327,1
1788787753.816714,2104,2700,1
1788787753.8168802,2056,1678,1
1788787753.8169558,2151,1970,1
1788787753.817021,2107,2056,1
1788787753.8198779,1995,1085,1
1788787753.8244328,1912,2320,1
1788787753.8250601,2047,2242,1
1788787753.825614,2114,2250,1
1788787753.827438,2135,2866,1
1788787753.830705,2059,1879,1
1788787753.835575,2083,1774,1
1788787753.836415,2120,2562,1
1788787753.8387809,2046,531,1
1788787753.8390331,1923,2092,1
1788787753.839164,2022,2404,1
1788787753.841804,2027,1705,1
1788787753.8431208,2053,2575,1
1788787753.849359,2107,2214,1
1788787753.850409,2133,1635,1
1788787753.852056,2178,2333,1
1788787753.852184,2054,1071,1
1788787753.855489,2026,1667,1
1788787753.85979,2034,2441,1
1788787753.860148,2067,1912,1
1788787753.860319,2099,2324,1
1788787753.862752,2055,2659,1
1788787753.862856,2040,1678,1
1788787753.868608,2112,1990,1
1788787753.869409,2112,1887,1
1788787753.87244,2003,1132,1
1788787753.872669,1949,2328,1
1788787753.874315,2068,2214,1
1788787753.876123,2065,2273,1
1788787753.880553,2129,2706,1
1788787753.880746,2114,1891,1
1788787753.8810399,2107,1792,1
1788787753.883567,2102,2474,1
1788787753.884911,2045,567,1
1788787753.887677,1949,2099,1
1788787753.888999,2076,2383,1
1788787753.893736,2140,1711,1
1788787753.89499,2160,2617,1
1788787753.896493,2033,2195,1
1788787753.898409,2037,1649,1
1788787753.90416,2153,2364,1
1788787753.904521,2043,1026,1
1788787753.9046881,1947,1696,1
1788787753.9049149,1968,2436,1
1788787753.908021,2082,1881,1
1788787753.9092932,2104,2393,1
1788787753.911854,2101,2614,1
1788787753.917414,2033,1682,1
1788787753.9184241,2129,2020,1
1788787753.935573,2098,1718,1
1788787753.9359958,2035,1186,1
1788787753.93617,1951,2337,1
1788787753.936437,2068,2180,1
1788787753.936502,2094,2314,1
1788787753.9365618,2129,2743,1
1788787753.936623,2060,1865,1
1788787753.9368231,2095,1817,1
1788787753.936897,2122,2340,1
1788787753.955812,2037,644,1
1788787753.958752,1929,2127,1
1788787753.958862,2006,2355,1
1788787753.9589288,2096,1828,1
1788787753.9589918,2132,2508,1
1788787753.959051,2088,2166,1
1788787753.9591098,2056,1675,1
1788787753.95917,2100,2423,1
1788787753.9592252,2055,999,1
1788787753.959285,1996,1734,1
1788787753.9593432,1982,2425,1
1788787753.959404,2077,1835,1
1788787753.959463,2143,2386,1
1788787753.960911,2086,2591,1
1788787753.967662,2033,1658,1
1788787753.9697542,2124,2054,1
1788787753.970379,2101,1771,1
1788787753.972311,2007,1220,1
1788787753.974255,1903,2344,1
1788787753.974519,2042,2161,1
1788787753.978922,2107,2384,1
1788787753.979458,2117,2612,1
1788787753.979698,2078,1865,1
1788787753.982155,2109,1835,1
1788787753.983503,2121,2286,1
1788787753.9848452,2057,672,1
1788787753.987828,1938,2131,1
1788787753.992126,2006,2337,1
1788787753.993294,2067,1977,1
1788787753.9943721,2110,2459,1
1788787753.99602,2059,2157,1
1788787753.998183,2057,1703,1
1788787754.004304,2142,2464,1
1788787754.004561,2071,958,1
1788787754.00471,1998,1754,1
1788787754.004989,1990,2412,1
1788787754.007412,2075,1800,1
1788787754.008846,2127,2323,1
1788787754.013416,2057,2563,1
1788787754.014771,2026,1677,1
1788787754.017049,2146,2070,1
1788787754.017308,2118,1716,1
1788787754.021078,2027,1243,1
1788787754.026022,1962,2346,1
1788787754.026644,2070,2144,1
1788787754.0269608,2122,2374,1
1788787754.0275111,2104,2590,1
1788787754.0293949,2038,1861,1
1788787754.030813,2093,1846,1
1788787754.0334148,2118,2201,1
1788787754.034846,2041,701,1
1788787754.042115,1926,2138,1
1788787754.042853,2027,2322,1
1788787754.046598,2084,1963,1
1788787754.049301,2122,2452,1
1788787754.0545468,2083,2150,1
1788787754.05515,2051,1709,1
1788787754.055388,2145,2481,1
1788787754.056046,2068,962,1
1788787754.0587451,1983,1768,1
1788787754.059078,1981,2410,1
1788787754.0591419,2064,1785,1
1788787754.0592031,2139,2364,1
1788787754.0672262,2118,2551,1
1788787754.0698528,2063,1676,1
1788787754.071676,2125,2086,1
1788787754.072454,2079,1684,1
1788787754.074156,2024,1267,1
1788787754.0789142,1948,2351,1
1788787754.0791569,2075,2131,1
1788787754.079531,2108,2384,1
1788787754.079895,2090,2614,1
1788787754.082228,2021,1848,1
1788787754.083168,2083,1854,1
1788787754.083242,2112,2146,1
1788787754.084805,2042,733,1
1788787754.087453,1919,2151,1
1788787754.088871,2004,2313,1
1788787754.096756,2090,2063,1
1788787754.0972228,2122,2419,1
1788787754.099204,2067,2135,1
1788787754.099999,2073,1723,1
1788787754.106997,2139,2517,1
1788787754.107562,2057,914,1
1788787754.107902,1985,1791,1
1788787754.1083,1987,2405,1
1788787754.111191,2087,1757,1
1788787754.111275,2111,2327,1
1788787754.11134,2089,2527,1
1788787754.1188061,2053,1673,1
1788787754.1215382,2140,2102,1
1788787754.123687,2093,1647,1
1788787754.124442,1999,1291,1
1788787754.126094,1930,2356,1
1788787754.131098,2079,2117,1
1788787754.1315498,2125,2382,1
1788787754.132011,2115,2562,1
1788787754.132322,2048,1845,1
1788787754.13603,2103,1864,1
1788787754.13637,2103,2127,1
1788787754.136478,2046,750,1
1788787754.137824,1938,2156,1
1788787754.139267,2017,2305,1
1788787754.142058,2082,2017,1
1788787754.150434,2108,2360,1
1788787754.15495,2062,2135,1
1788787754.159992,2064,1723,1
1788787754.160471,2133,2520,1
1788787754.160915,2073,926,1
1788787754.161272,1971,1791,1
1788787754.164056,1976,2405,1
1788787754.164149,2064,1758,1
1788787754.164222,2119,2340,1
1788787754.164293,2088,2527,1
1788787754.164356,2053,1674,1
1788787754.1656902,2129,2101,1
1788787754.167073,2082,1659,1
1788787754.173856,2025,1291,1
1788787754.174656,1941,2356,1
1788787754.175385,2073,2117,1
1788787754.1774411,2126,2399,1
1788787754.177852,2119,2637,1
1788787754.181657,2064,1834,1
1788787754.182017,2113,1865,1
1788787754.1880908,2123,2127,1
1788787754.188565,2030,763,1
1788787754.191348,1926,2164,1
1788787754.191675,2039,2305,1
1788787754.1917381,2105,2065,1
1788787754.193076,2115,2397,1
1788787754.195762,2077,2115,1
1788787754.197492,2060,1719,1
1788787754.2059588,2138,2536,1
1788787754.207913,2072,850,1
1788787754.20836,1960,1811,1
1788787754.20987,1984,2403,1
1788787754.2174962,2078,1739,1
1788787754.217925,2128,2358,1
1788787754.2183712,2108,2507,1
1788787754.218783,2063,1671,1
1788787754.2220428,2154,2118,1
1788787754.222443,2090,1653,1
1788787754.2225122,2014,1313,1
1788787754.2225752,1951,2362,1
1788787754.223913,2057,2107,1
1788787754.231939,2101,2432,1
1788787754.234943,2103,2647,1
1788787754.2374961,2036,1824,1
1788787754.238299,2091,1875,1
1788787754.238534,2094,2079,1
1788787754.2457752,2027,793,1
1788787754.246229,1929,2176,1
1788787754.2465868,2046,2295,1
1788787754.247168,2096,2140,1
1788787754.2475688,2121,2392,1
1788787754.251552,2071,2102,1
1788787754.2516448,2075,1741,1
1788787754.251717,2139,2564,1
1788787754.251799,2071,796,1
1788787754.253236,1970,1838,1
1788787754.255691,2002,2401,1
1788787754.257039,2073,1713,1
1788787754.264216,2123,2336,1
1788787754.2655602,2091,2493,1
1788787754.268338,2074,1663,1
1788787754.2709708,2143,2132,1
1788787754.272853,2095,1622,1
1788787754.273126,2006,1341,1
1788787754.2733371,1947,2369,1
1788787754.2787452,2082,2093,1
1788787754.27916,2117,2364,1
1788787754.2793589,2109,2624,1
1788787754.2797801,2061,1814,1
1788787754.2828412,2105,1877,1
1788787754.283283,2105,2067,1
1788787754.284708,2058,808,1
1788787754.2922308,1956,2184,1
1788787754.2929852,2064,2293,1
1788787754.293652,2102,2083,1
1788787754.294304,2119,2423,1
1788787754.29635,2087,2096,1
1788787754.298496,2076,1735,1
1788787754.306655,2146,2566,1
1788787754.3072069,2082,796,1
1788787754.307678,1978,1848,1
1788787754.308314,1989,2406,1
1788787754.310921,2064,1711,1
1788787754.3116999,2125,2361,1
1788787754.3121579,2072,2498,1
1788787754.313364,2042,1667,1
1788787754.3147268,2134,2134,1
1788787754.3173609,2102,1591,1
1788787754.3187141,2012,1357,1
1788787754.325623,1949,2377,1
1788787754.3259158,2088,2090,1
1788787754.327868,2124,2365,1
1788787754.331538,2117,2651,1
1788787754.334424,2066,1800,1
1788787754.340286,2108,1883,1
1788787754.34054,2116,2053,1
1788787754.340681,2050,826,1
1788787754.341328,1929,2194,1
1788787754.341728,2050,2293,1
1788787754.344219,2086,2261,1
1788787754.345126,2128,2514,1
1788787754.345197,2098,2074,1
1788787754.347819,2087,1751,1
1788787754.354322,2143,2605,1
1788787754.35443,2062,773,1
1788787754.356294,1969,1879,1
1788787754.3589919,1980,2402,1
1788787754.361383,2049,1679,1
1788787754.369122,2090,2348,1
1788787754.369868,2077,2447,1
1788787754.370202,2057,1659,1
1788787754.3704078,2134,2157,1
1788787754.370854,2071,1622,1
1788787754.374176,2005,1378,1
1788787754.374549,1956,2382,1
1788787754.3746161,2077,2078,1
1788787754.374697,2120,2367,1
1788787754.377406,2116,2675,1
1788787754.379808,2044,1792,1
1788787754.3811562,2102,1895,1
1788787754.389494,2112,2002,1
1788787754.392436,2037,855,1
1788787754.39488,1938,2207,1
1788787754.3971992,2046,2285,1
1788787754.397463,2107,2200,1
1788787754.403307,2127,2521,1
1788787754.403523,2070,2058,1
1788787754.403883,2075,1750,1
1788787754.404344,2130,2616,1
1788787754.404769,2073,712,1
1788787754.4051461,1980,1900,1
1788787754.405569,2004,2406,1
1788787754.409019,2088,1666,1
1788787754.409096,2129,2366,1
1788787754.411772,2100,2430,1
1788787754.41872,2077,1653,1
1788787754.418922,2142,2164,1
1788787754.422668,2090,1579,1
1788787754.425319,2011,1404,1
1788787754.426365,1958,2390,1
1788787754.428332,2059,2067,1
1788787754.4339578,2107,2434,1
1788787754.434392,2115,2657,1
1788787754.4347389,2046,1793,1
1788787754.435298,2098,1896,1
1788787754.4386182,2090,1968,1
1788787754.438993,2044,888,1
1788787754.439127,1931,2220,1
1788787754.439286,2037,2274,1
1788787754.441969,2092,2255,1
1788787754.443327,2108,2570,1
1788787754.444779,2071,2032,1
1788787754.4507232,2079,1760,1
1788787754.451575,2132,2628,1
1788787754.452397,2069,714,1
1788787754.456129,1974,1925,1
1788787754.458425,2026,2401,1
1788787754.458674,2082,1638,1
1788787754.461097,2121,2419,1
1788787754.461371,2101,2405,1
1788787754.466754,2068,1651,1
1788787754.4672692,2143,2186,1
1788787754.4676108,2096,1667,1
1788787754.4709918,2015,1427,1
1788787754.4711418,1953,2398,1
1788787754.4737742,2051,2058,1
1788787754.4792728,2087,2449,1
1788787754.479991,2090,2705,1
1788787754.480684,2046,1774,1
1788787754.483021,2106,1903,1
1788787754.483277,2102,1914,1
1788787754.4878101,2035,922,1
1788787754.4880042,1953,2235,1
1788787754.493186,2059,2266,1
1788787754.493707,2100,2277,1
1788787754.493912,2122,2795,1
1788787754.496752,2101,1993,1
1788787754.4970298,2093,1763,1
1788787754.499615,2146,2663,1
1788787754.500932,2064,747,1
1788787754.507561,1954,1967,1
1788787754.508563,2000,2405,1
1788787754.509151,2082,1609,1
1788787754.510825,2120,2421,1
1788787754.510942,2097,2357,1
1788787754.514372,2060,1639,1
1788787754.5187762,2122,2212,1
1788787754.519259,2079,1612,1
1788787754.5193632,1990,1467,1
1788787754.5222359,1957,2410,1
1788787754.523564,2067,2041,1
1788787754.524908,2144,2470,1
1788787754.529442,2129,2589,1
1788787754.5303118,2050,1760,1
1788787754.532367,2124,1921,1
1788787754.534647,2113,1875,1
1788787754.536035,2050,947,1
1788787754.5404842,1931,2242,1
1788787754.540916,2050,2254,1
1788787754.5412638,2086,2189,1
1788787754.543734,2109,2674,1
1788787754.545054,2032,1994,1
1788787754.547629,2074,1765,1
1788787754.548936,2144,2662,1
1788787754.554812,2066,673,1
1788787754.5549812,1961,1971,1
1788787754.555525,2017,2406,1
1788787754.558021,2091,1605,1
1788787754.559597,2140,2364,1
1788787754.5613241,2068,2357,1
1788787754.565707,2033,1636,1
1788787754.566033,2114,2207,1
1788787754.568131,2088,1560,1
1788787754.569979,2013,1470,1
1788787754.5712042,1958,2410,1
1788787754.576465,2064,2038,1
1788787754.577046,2113,2360,1
1788787754.579016,2114,2686,1
1788787754.579104,2075,1747,1
1788787754.582645,2139,1913,1
1788787754.587339,2115,2041,1
1788787754.587759,2028,932,1
1788787754.58816,1934,2248,1
1788787754.59058,2039,2276,1
1788787754.590863,2105,2142,1
1788787754.5934458,2105,2766,1
1788787754.5947561,2063,1986,1
1788787754.599814,2077,1746,1
1788787754.600404,2114,2642,1
1788787754.602956,2049,692,1
1788787754.603072,1963,1971,1
1788787754.606107,1988,2418,1
1788787754.609962,2022,1623,1
1788787754.610045,2112,2435,1
1788787754.612389,2112,2358,1
1788787754.613697,2082,1629,1
1788787754.61501,2152,2202,1
1788787754.617695,2077,1660,1
1788787754.623463,1991,1461,1
1788787754.623918,1981,2415,1
1788787754.624052,2093,2053,1
1788787754.62553,2121,2349,1
1788787754.627064,2113,2774,1
1788787754.632521,2062,1741,1
1788787754.6326568,2128,1898,1
1788787754.632929,2125,2147,1
1788787754.63528,2030,919,1
1788787754.637904,1914,2254,1
1788787754.639211,2046,2295,1
1788787754.645113,2117,2126,1
1788787754.64604,2127,2779,1
1788787754.646158,2025,1985,1
1788787754.648139,2030,1731,1
1788787754.651339,2141,2641,1
1788787754.651556,2061,586,1
1788787754.6560571,1948,1977,1
1788787754.6562822,1963,2429,1
1788787754.658706,2110,1632,1
1788787754.658754,2152,2502,1
1788787754.661514,2103,2346,1
1788787754.662969,2066,1624,1
1788787754.672908,2123,2200,1
1788787754.6753201,2096,1629,1
1788787754.6755068,2020,1472,1
1788787754.676949,1946,2421,1
1788787754.677186,2035,2052,1
1788787754.681103,2089,2359,1
1788787754.681366,2076,2677,1
1788787754.681521,1954,1742,1
1788787754.6816819,2081,1901,1
1788787754.683743,2098,2151,1
1788787754.685174,1985,914,1
1788787754.6914291,1946,2251,1
1788787754.692066,2112,2294,1
1788787754.693093,2052,2145,1
1788787754.694695,2046,2693,1
1788787754.6948512,2127,1999,1
1788787754.6979132,2089,1734,1
1788787754.70194,2079,2636,1
1788787754.702268,2030,528,1
1788787754.704784,1996,1973,1
1788787754.704829,2111,2425,1
1788787754.707412,2086,1631,1
1788787754.7087271,2101,2242,1
1788787754.7138171,2043,2390,1
1788787754.714666,1981,1625,1
1788787754.7147799,2104,2178,1
1788787754.717464,2076,1509,1
1788787754.7194932,1959,1456,1
1788787754.724601,2001,2414,1
1788787754.724991,2065,2056,1
1788787754.7252018,2093,2135,1
1788787754.727115,2108,2747,1
1788787754.72969,2064,1743,1
1788787754.731031,2183,1877,1
1788787754.738079,2068,2233,1
1788787754.740149,1896,874,1
1788787754.742063,1873,2242,1
1788787754.743841,2120,2316,1
1788787754.748,2166,2053,1
1788787754.748163,2179,2789,1
1788787754.748369,2044,1986,1
1788787754.748629,2088,1722,1
1788787754.748811,2213,2603,1
1788787754.7511082,2111,479,1
1788787754.7537339,1878,1962,1
1788787754.758761,1935,2437,1
1788787754.7593532,1951,1656,1
1788787754.761298,2072,2395,1
1788787754.762579,2036,2374,1
1788787754.763423,2087,1623,1
1788787754.7684789,2261,2172,1
1788787754.7687528,2090,1595,1
1788787754.769391,2122,1445,1
1788787754.77189,1924,2416,1
1788787754.773225,2046,2068,1
1788787754.7758021,2192,2298,1
1788787754.777112,2139,2752,1
1788787754.782212,2069,1748,1
1788787754.7847,2017,1885,1
1788787754.785072,2016,2287,1
1788787754.7882712,1933,877,1
1788787754.788388,1961,2245,1
1788787754.792602,2103,2317,1
1788787754.7928488,2050,1966,1
1788787754.793115,2109,2896,1
1788787754.7953,2054,1997,1
1788787754.796673,2061,1698,1
1788787754.799246,2090,2604,1
1788787754.8057039,2000,475,1
1788787754.805877,1897,1974,1
1788787754.808081,2112,2445,1
1788787754.8084311,2108,1657,1
1788787754.8114371,2220,2476,1
1788787754.811717,2189,2359,1
1788787754.81616,2047,1613,1
1788787754.816736,1995,2180,1
1788787754.819205,2017,1516,1
1788787754.8193018,2036,1470,1
1788787754.820695,2030,2423,1
1788787754.825382,2104,2057,1
1788787754.826184,2009,2247,1
1788787754.8281028,2067,2810,1
1788787754.830013,2067,1731,1
1788787754.835284,2185,1888,1
1788787754.8355682,2178,2213,1
1788787754.835806,2110,909,1
1788787754.837685,1920,2260,1
1788787754.839083,2103,2311,1
1788787754.841713,2188,2024,1
1788787754.8430321,2127,2826,1
1788787754.8483908,2080,1983,1
1788787754.848971,2207,1711,1
1788787754.8513641,2064,2616,1
1788787754.851777,2016,435,1
1788787754.8549361,1895,1991,1
1788787754.8551629,2017,2442,1
1788787754.859096,2032,1638,1
1788787754.8593888,2032,2502,1
1788787754.86192,1971,2336,1
1788787754.863269,2035,1613,1
1788787754.8686678,2129,2196,1
1788787754.869324,2103,1482,1
1788787754.8698208,2139,1493,1
1788787754.871711,2113,2428,1
1788787754.874688,1983,2043,1
1788787754.874933,1862,2189,1
1788787754.8790069,2159,2764,1
1788787754.879416,2288,1728,1
1788787754.882088,2958,1889,1
1788787754.883492,2453,2346,1
1788787754.8848388,1619,903,1
1788787754.8873222,1157,2264,1
1788787754.891073,1961,2321,1
1788787754.8920221,2281,2062,1
1788787754.895048,2081,2831,1
1788787754.895318,1955,1982,1
1788787754.897541,1879,1704,1
1788787754.9038432,1889,2628,1
1788787754.904264,2030,367,1
1788787754.907056,2106,1998,1
1788787754.907352,2335,2446,1
1788787754.907419,2228,1637,1
1788787754.908779,2231,2473,1
1788787754.915051,1996,2332,1
1788787754.917529,1904,1612,1
1788787754.917931,1901,2194,1
1788787754.9202209,2099,1483,1
1788787754.92048,2253,1495,1
1788787754.922571,2178,2431,1
1788787754.923302,2006,2046,1
1788787754.927579,2094,2236,1
1788787754.928212,2048,2811,1
1788787754.9311948,2073,1722,1
1788787754.9312692,2080,1890,1
1788787754.932616,2061,2291,1
1788787754.9352782,1927,922,1
1788787754.9366772,1789,2271,1
1788787754.942911,1988,2315,1
1788787754.944032,2115,1728,1
1788787754.9447901,2154,2983,1
1788787754.948621,2060,1961,1
1788787754.950787,1941,1677,1
1788787754.9558961,2015,2596,1
1788787754.956799,2138,445,1
1788787754.957321,2270,2002,1
1788787754.957613,2047,2464,1
1788787754.960564,1967,1659,1
1788787754.960712,2329,2657,1
1788787754.96079,2179,2316,1
1788787754.9637,1811,1599,1
1788787754.969804,1874,2197,1
1788787754.9734101,1959,1378,1
1788787754.973998,1844,1520,1
1788787754.974129,1835,2441,1
1788787754.976109,1887,2038,1
1788787754.976338,2094,2105,1
1788787754.9813719,2061,2826,1
1788787754.983941,2123,1702,1
1788787754.984787,2162,1883,1
1788787754.98486,2130,2357,1
1788787754.984919,2074,921,1
1788787754.9875681,2049,2279,1
1788787754.988915,2205,2327,1
1788787754.9951801,2101,1748,1
1788787754.998878,2021,2936,1
1788787754.99925,1944,1959,1
1788787755.002938,1995,1670,1
1788787755.0031621,2035,2584,1
1788787755.010001,2035,327,1
1788787755.0108202,1926,2012,1
1788787755.0111501,2051,2468,1
1788787755.011251,2044,1656,1
1788787755.0113149,2043,2585,1
1788787755.011382,2054,2309,1
1788787755.0127308,2143,1605,1
1788787755.019451,2247,2171,1
1788787755.022225,2115,1473,1
1788787755.022547,2032,1509,1
1788787755.0230699,2054,2442,1
1788787755.025418,2169,2048,1
1788787755.0273001,2208,1767,1
1788787755.032354,2020,2872,1
1788787755.032893,1981,1707,1
1788787755.0331671,2173,1846,1
1788787755.03342,2141,2698,1
1788787755.036146,1991,836,1
1788787755.037638,1796,2269,1
1788787755.039028,1918,2385,1
1788787755.041468,1984,1452,1
1788787755.048327,2095,3067,1
1788787755.0486279,2112,1981,1
1788787755.049304,2185,1605,1
1788787755.0511842,2248,2485,1
1788787755.051472,2043,236,1
1788787755.0555038,1950,1980,1
1788787755.06015,2134,2502,1
1788787755.0606542,2275,1729,1
1788787755.0610502,2145,2570,1
1788787755.061575,1927,2376,1
1788787755.0643232,1872,1575,1
1788787755.065703,2130,2133,1
1788787755.077466,2109,1638,1
1788787755.0825548,2016,1445,1
1788787755.0829928,1869,2443,1
1788787755.083112,2034,2105,1
1788787755.083391,2153,1687,1
1788787755.083657,2224,2959,1
1788787755.087113,2145,1713,1
1788787755.08723,2103,1808,1
1788787755.087337,1966,2909,1
1788787755.0874062,1880,747,1
1788787755.08747,1925,2250,1
1788787755.088812,2025,2436,1
1788787755.091423,2140,1613,1
1788787755.092757,2123,3107,1
1788787755.1044989,2088,2010,1
1788787755.106961,2238,1591,1
1788787755.107187,2275,2439,1
1788787755.113138,2005,187,1
1788787755.113854,1965,1950,1
1788787755.114379,1982,2507,1
1788787755.11729,1908,1762,1
1788787755.117576,1960,2477,1
1788787755.1176472,2075,2403,1
1788787755.11771,2032,1584,1
1788787755.117771,2065,2101,1
1788787755.117831,2134,2037,1
1788787755.1192,2027,1359,1
1788787755.1206028,2012,2432,1
1788787755.127257,2214,2163,1
1788787755.128982,2193,1482,1
1788787755.129264,1995,3055,1
1788787755.131161,1893,1743,1
1788787755.1314912,2031,1742,1
1788787755.1414442,2103,2785,1
1788787755.142018,2045,665,1
1788787755.1423948,1923,2218,1
1788787755.142829,2038,2461,1
1788787755.143192,2190,1550,1
1788787755.146333,2133,3296,1
1788787755.146461,2121,2031,1
1788787755.146572,2094,1567,1
1788787755.1491342,2225,2392,1
1788787755.1505651,2071,149,1
1788787755.153374,1889,1926,1
1788787755.15966,1986,2514,1
1788787755.160609,1999,1792,1
1788787755.161387,2156,2459,1
1788787755.161502,1972,2429,1
1788787755.1637928,1929,1584,1
1788787755.1681862,2034,2079,1
1788787755.17394,2013,2042,1
1788787755.174876,1922,1331,1
1788787755.175081,1980,2426,1
1788787755.175478,1989,2179,1
1788787755.17573,2108,1822,1
1788787755.1780338,2132,3062,1
1788787755.17945,2112,1759,1
1788787755.180796,2224,1763,1
1788787755.191353,2154,2828,1
1788787755.19172,2072,677,1
1788787755.194206,1974,2218,1
1788787755.1961,2073,2451,1
1788787755.2017221,2141,1469,1
1788787755.2025049,2123,3128,1
1788787755.2031732,2067,2051,1
1788787755.205674,2095,1563,1
1788787755.2067971,2094,2378,1
1788787755.2068639,2056,120,1
1788787755.206929,1954,1914,1
1788787755.206995,1998,2511,1
1788787755.207055,2093,1798,1
1788787755.209728,2111,2569,1
1788787755.211176,2076,2429,1
1788787755.212569,2067,1590,1
1788787755.2209651,2148,2086,1
1788787755.2224,2103,1984,1
1788787755.224575,2082,1340,1
1788787755.224881,1994,2425,1
1788787755.2250738,2057,2169,1
1788787755.227293,2104,1883,1
1788787755.229783,2080,3041,1
1788787755.2363179,2022,1745,1
1788787755.2367811,2097,1775,1
1788787755.237324,2058,2814,1
1788787755.240056,1977,692,1
1788787755.2402701,1893,2219,1
1788787755.241159,2036,2440,1
1788787755.2413042,2112,1621,1
1788787755.242649,2135,3237,1
1788787755.249247,2037,2027,1
1788787755.2500181,2080,1589,1
1788787755.250876,2135,2416,1
1788787755.252209,2053,164,1
1788787755.254276,1944,1935,1
1788787755.256329,2059,2502,1
1788787755.258881,2112,1768,1
1788787755.265215,2144,2639,1
1788787755.2654452,2135,2396,1
1788787755.265933,2119,1599,1
1788787755.266737,2129,2111,1
1788787755.269183,2007,1921,1
1788787755.270296,1944,1379,1
1788787755.2717109,1925,2431,1
1788787755.273091,2021,2144,1
1788787755.2758179,2077,1871,1
1788787755.277204,2017,3012,1
1788787755.2843142,2012,1734,1
1788787755.285164,2114,1789,1
1788787755.288177,2096,2819,1
1788787755.2884579,2059,724,1
1788787755.2887628,2002,2232,1
1788787755.291601,2135,2431,1
1788787755.293427,2108,1659,1
1788787755.299307,2086,3261,1
1788787755.299576,2024,2008,1
1788787755.299853,2082,1594,1
1788787755.300591,2100,2449,1
1788787755.300854,2054,194,1
1788787755.304718,1975,1953,1
1788787755.304885,2075,2501,1
1788787755.312692,2084,1751,1
1788787755.314344,2102,2667,1
1788787755.316364,2059,2376,1
1788787755.316566,2100,1588,1
1788787755.319051,2162,2127,1
1788787755.321511,2045,2007,1
1788787755.327231,1988,1389,1
1788787755.327403,1959,2435,1
1788787755.327829,2051,2142,1
1788787755.328054,2125,2054,1
1788787755.328556,2111,2982,1
1788787755.328769,2072,1728,1
1788787755.331446,2132,1805,1
1788787755.332798,2057,2756,1
1788787755.335393,1964,757,1
1788787755.336809,1916,2240,1
1788787755.3437288,2016,2413,1
1788787755.344568,2135,1653,1
1788787755.3454149,2149,3256,1
1788787755.3485062,2097,1995,1
1788787755.351397,2082,1603,1
1788787755.353329,2072,2473,1
1788787755.3592682,1966,221,1
1788787755.359508,1876,1967,1
1788787755.3597949,1969,2497,1
1788787755.3602948,2066,1734,1
1788787755.3605812,2110,2408,1
1788787755.3624551,2052,2390,1
1788787755.363243,1987,1586,1
1788787755.364733,2057,2114,1
1788787755.370503,2050,1607,1
1788787755.372324,2023,1419,1
1788787755.37392,2000,2433,1
1788787755.376045,2034,2113,1
1788787755.376853,2077,1964,1
1788787755.3770869,2057,2955,1
1788787755.383381,2044,1728,1
1788787755.383538,2140,1821,1
1788787755.3838148,2114,2703,1
1788787755.386107,2015,782,1
1788787755.387975,1967,2247,1
1788787755.3893518,2077,2401,1
1788787755.39069,2098,1647,1
1788787755.3974981,2115,3264,1
1788787755.3981462,2034,1982,1
1788787755.399201,2052,1615,1
1788787755.400918,2085,2496,1
1788787755.401071,2017,241,1
1788787755.40352,1917,1979,1
1788787755.4050078,1975,2496,1
1788787755.4421399,2019,1723,1
1788787755.442204,2065,2634,1
1788787755.442316,2047,2349,1
1788787755.442364,2075,1586,1
1788787755.442407,2162,2143,1
1788787755.442467,2097,1514,1
1788787755.442537,1990,1465,1
1788787755.4425988,2006,2441,1
1788787755.442647,2073,2085,1
1788787755.442694,2086,1922,1
1788787755.44274,2035,2923,1
1788787755.442785,2051,1712,1
1788787755.4428291,2172,1837,1
1788787755.442892,2081,2678,1
1788787755.4429572,1993,818,1
1788787755.443006,1944,2261,1
1788787755.443052,2064,2390,1
1788787755.4430988,2100,1648,1
1788787755.4431412,2108,3169,1
1788787755.4455569,2058,1976,1
1788787755.4470642,2107,1619,1
1788787755.449804,2120,2511,1
1788787755.4510798,2046,257,1
1788787755.4538088,1942,1987,1
1788787755.4551291,2024,2494,1
1788787755.457746,2082,1713,1
1788787755.4591,2110,2731,1
1788787755.465663,2055,2316,1
1788787755.4662359,2067,1586,1
1788787755.46738,2143,2163,1
1788787755.467978,2063,1236,1
1788787755.470171,1981,1512,1
1788787755.472115,1988,2444,1
1788787755.4740312,2069,2049,1
1788787755.4789288,2118,2074,1
1788787755.4790862,2088,2863,1
1788787755.479383,2044,1697,1
1788787755.482058,2125,1874,1
1788787755.483375,2093,2549,1
1788787755.48468,2025,891,1
1788787755.490294,1954,2279,1
1788787755.492279,2074,2353,1
1788787755.492585,2131,1751,1
1788787755.492817,2134,3143,1
1788787755.496038,2050,1945,1
1788787755.501004,2118,1652,1
1788787755.501389,2115,2580,1
1788787755.501527,2029,324,1
1788787755.504407,1917,2019,1
1788787755.5045362,2015,2481,1
1788787755.507113,2094,1667,1
1788787755.508491,2138,2770,1
1788787755.514304,2075,2294,1
1788787755.5153332,2064,1587,1
1788787755.51641,2116,2197,1
1788787755.5179121,2074,1094,1
1788787755.521125,1979,1571,1
1788787755.525627,1980,2453,1
1788787755.5258508,2069,2011,1
1788787755.526346,2092,2276,1
1788787755.5266728,2042,2779,1
1788787755.529883,2042,1684,1
1788787755.531287,2151,1918,1
1788787755.532681,2103,2377,1
1788787755.540483,2012,980,1
1788787755.540728,1957,2303,1
1788787755.5439281,2068,2309,1
1788787755.5490701,2084,1964,1
1788787755.549559,2087,3027,1
1788787755.5518122,1997,1915,1
1788787755.55215,2069,1702,1
1788787755.552256,2102,2662,1
1788787755.552295,2055,407,1
1788787755.55251,1928,2055,1
1788787755.555093,2037,2459,1
1788787755.556475,2086,1660,1
1788787755.561887,2131,2664,1
1788787755.56284,2113,2259,1
1788787755.5637472,2081,1597,1
1788787755.565382,2138,2236,1
1788787755.568652,2070,830,1
1788787755.568833,1971,1634,1
1788787755.573405,1981,2453,1
1788787755.573783,2069,1957,1
1788787755.5764549,2106,2288,1
1788787755.576542,2094,2716,1
1788787755.5822148,2046,1676,1
1788787755.583203,2124,1957,1
1788787755.5837262,2065,2173,1
1788787755.585703,2004,1062,1
1788787755.587183,1926,2322,1
1788787755.58906,2065,2265,1
1788787755.593761,2124,1942,1
1788787755.594094,2113,2900,1
1788787755.5959392,2064,1896,1
1788787755.5972621,2112,1725,1
1788787755.598568,2102,2642,1
1788787755.6011882,2036,464,1
1788787755.602497,1926,2078,1
1788787755.607577,2038,2441,1
1788787755.6084769,2084,1704,1
1788787755.608664,2113,2644,1
1788787755.610523,2052,2233,1
1788787755.613656,2066,1602,1
1788787755.6185238,2143,2280,1
1788787755.619052,2035,749,1
1788787755.6216252,1966,1674,1
1788787755.621938,2006,2449,1
1788787755.6232588,2112,1918,1
1788787755.6279402,2134,2350,1
1788787755.6289952,2112,2670,1
1788787755.630026,2037,1668,1
1788787755.6351511,2132,1990,1
1788787755.635442,2110,2007,1
1788787755.64062,2025,1125,1
1788787755.641006,1955,2334,1
1788787755.6412768,2053,2228,1
1788787755.641612,2137,1977,1
1788787755.644098,2103,2846,1
1788787755.64542,2074,1876,1
1788787755.6468391,2152,1754,1
1788787755.649503,2112,2576,1
1788787755.6544561,2008,534,1
1788787755.655017,1945,2101,1
1788787755.655164,2078,2419,1
1788787755.657852,2107,1692,1
1788787755.659787,2127,2653,1
1788787755.665565,2107,2201,1
1788787755.6658728,2110,1621,1
1788787755.666145,2156,2320,1
1788787755.668469,2101,613,1
1788787755.6687,1996,1725,1
1788787755.671689,2001,2449,1
1788787755.675531,2098,1875,1
1788787755.677048,2190,2462,1
1788787755.677632,2134,2605,1
1788787755.679395,2077,1665,1
1788787755.6818502,2177,2011,1
1788787755.683566,2119,1926,1
1788787755.688551,2028,1193,1
1788787755.6887941,1932,2350,1
1788787755.689009,2094,2193,1
1788787755.6914089,2136,2141,1
1788787755.6927419,2124,2829,1
1788787755.695325,2023,1849,1
1788787755.6965709,2131,1790,1
1788787755.7019362,2157,2513,1
1788787755.7024682,2093,615,1
1788787755.703213,1979,2135,1
1788787755.704934,2096,2390,1
1788787755.708441,2106,1735,1
1788787755.7086499,2117,2572,1
1788787755.7136772,2103,2166,1
1788787755.714061,2114,1642,1
1788787755.716276,2130,2380,1
1788787755.7177448,2072,656,1
1788787755.7193081,2000,1762,1
1788787755.724166,1995,2445,1
1788787755.7248828,2077,1838,1
1788787755.726027,2141,2369,1
1788787755.7278552,2134,2579,1
1788787755.7313862,2091,1649,1
1788787755.7372532,2176,2048,1
1788787755.739871,2094,1815,1
1788787755.740449,2065,1230,1
1788787755.74084,1986,2359,1
1788787755.740893,2086,2172,1
1788787755.74099,2136,2271,1
1788787755.7424572,2120,2833,1
1788787755.745109,2068,1831,1
1788787755.7465081,2114,1811,1
1788787755.752686,2140,2411,1
1788787755.7550972,2021,677,1
1788787755.756716,1949,2155,1
1788787755.7573051,2068,2365,1
1788787755.7579079,2110,1909,1
1788787755.7649121,2150,2614,1
1788787755.7674298,2081,2129,1
1788787755.768425,2079,1672,1
1788787755.768598,2126,2451,1
1788787755.76865,2028,596,1
1788787755.768766,2004,1814,1
1788787755.771443,2021,2435,1
1788787755.78163,2098,1779,1
1788787755.789129,2122,2351,1
1788787755.789696,2131,2525,1
1788787755.7900338,2087,1653,1
1788787755.790427,2172,2086,1
1788787755.790775,2104,1710,1
1788787755.793463,2027,1294,1
1788787755.7935371,1943,2372,1
1788787755.7936,2052,2136,1
1788787755.79366,2107,2188,1
1788787755.7937212,2111,2766,1
1788787755.7954612,2076,1813,1
1788787755.79681,2104,1832,1
1788787755.799634,2055,2314,1
1788787755.805863,2044,728,1
1788787755.806997,1966,2174,1
1788787755.80718,2051,2348,1
1788787755.809705,2086,1999,1
1788787755.8190851,2084,2633,1
1788787755.8195121,2054,2103,1
1788787755.819885,2086,1693,1
1788787755.823313,2152,2501,1
1788787755.823421,2071,614,1
1788787755.823489,1970,1847,1
1788787755.823552,2027,2430,1
1788787755.823613,2086,1745,1
1788787755.824991,2122,2350,1
1788787755.826498,2110,2492,1
1788787755.8326662,2093,1646,1
1788787755.835069,2131,2106,1
1788787755.83532,2079,1657,1
1788787755.839156,2006,1331,1
1788787755.839512,1958,2379,1
1788787755.847415,2074,2115,1
1788787755.84779,2113,2296,1
1788787755.847862,2106,2775,1
1788787755.847924,2050,1794,1
1788787755.847986,2117,1857,1
1788787755.8494122,2116,2228,1
1788787755.850784,2037,787,1
1788787755.853518,1939,2194,1
1788787755.854938,2048,2325,1
1788787755.859752,2098,2041,1
1788787755.8649118,2108,2734,1
1788787755.86625,2037,2062,1
1788787755.868017,2054,1709,1
1788787755.875809,2108,2559,1
1788787755.8766851,2065,634,1
1788787755.8767638,1965,1889,1
1788787755.8768268,2001,2428,1
1788787755.876887,2069,1706,1
1788787755.876991,2130,2382,1
1788787755.87713,2091,2438,1
1788787755.8785012,2059,1640,1
1788787755.886773,2151,2137,1
1788787755.8889081,2101,1646,1
1788787755.891198,2009,1375,1
1788787755.8967922,1959,2391,1
1788787755.897519,2085,2094,1
1788787755.900783,2116,2316,1
1788787755.900919,2120,2726,1
1788787755.900993,2043,1783,1
1788787755.901064,2120,1870,1
1788787755.9011269,2089,2193,1
1788787755.901184,2026,826,1
1788787755.902653,1937,2210,1
1788787755.905356,2049,2314,1
1788787755.906728,2106,2139,1
1788787755.912674,2122,2740,1
1788787755.913575,2071,2041,1
1788787755.9181309,2072,1726,1
1788787755.918365,2120,2596,1
1788787755.920778,2081,626,1
1788787755.9260118,1966,1917,1
1788787755.926599,2009,2424,1
1788787755.927139,2077,1676,1
1788787755.9276512,2127,2381,1
1788787755.930149,2101,2417,1
1788787755.930339,2064,1636,1
1788787755.930607,2133,2161,1
1788787755.939085,2092,1604,1
1788787755.9412422,2010,1408,1
1788787755.945354,1963,2399,1
1788787755.950894,2060,2076,1
1788787755.951602,2112,2326,1
1788787755.9546309,2082,2720,1
1788787755.954741,2057,1770,1
1788787755.9548092,2125,1881,1
1788787755.954875,2097,2123,1
1788787755.9549341,2034,865,1
1788787755.955032,1938,2225,1
1788787755.955101,2050,2300,1
1788787755.95648,2096,2082,1
1788787755.959163,2113,2792,1
1788787755.960524,2070,2016,1
1788787755.96827,2081,1725,1
1788787755.969205,2131,2611,1
1788787755.971769,2059,623,1
1788787755.972215,1953,1941,1
1788787755.976733,1995,2426,1
1788787755.9827058,2058,1658,1
1788787755.983333,2121,2434,1
1788787755.9836211,2092,2378,1
1788787755.984145,2068,1634,1
1788787755.98446,2158,2176,1
1788787755.984707,2087,1586,1
1788787755.985099,2013,1436,1
1788787755.988856,1982,2407,1
1788787755.9889338,2087,2063,1
1788787755.9915562,2139,2408,1
1788787755.9975748,2106,2734,1
1788787755.9988742,2056,1754,1
1788787756.001853,2137,1897,1
1788787756.0042272,2117,2064,1
1788787756.006786,2029,908,1
1788787756.013154,1938,2241,1
1788787756.013532,2057,2286,1
1788787756.013721,2087,2259,1
1788787756.017066,2108,2771,1
1788787756.017189,2060,1990,1
1788787756.017271,2080,1759,1
1788787756.0173361,2133,2647,1
1788787756.0173929,2067,612,1
1788787756.018749,1951,1972,1
1788787756.02141,2021,2415,1
1788787756.022804,2085,1618,1
1788787756.030685,2136,2481,1
1788787756.033352,2103,2346,1
1788787756.036169,2085,1632,1
1788787756.038849,2150,2207,1
1788787756.044962,2090,1560,1
1788787756.045409,1999,1479,1
1788787756.045634,1956,2415,1
1788787756.0461829,2064,2038,1
1788787756.046561,2117,2399,1
1788787756.0470452,2113,2712,1
1788787756.050467,2041,1740,1
1788787756.051025,2095,1913,1
1788787756.051109,2105,2030,1
1788787756.051169,2048,948,1
1788787756.0525131,1939,2257,1
1788787756.059284,2057,2273,1
1788787756.061109,2107,2219,1
1788787756.063232,2133,2763,1
1788787756.065855,2054,1982,1
1788787756.066178,2073,1752,1
1788787756.067839,2121,2639,1
1788787756.07388,2055,616,1
1788787756.0743942,1963,1992,1
1788787756.074649,2004,2414,1
1788787756.0752032,2089,1599,1
1788787756.077803,2128,2432,1
1788787756.07887,2094,2334,1
1788787756.079204,2071,1617,1
1788787756.0806022,2156,2228,1
1788787756.083238,2088,1520,1
1788787756.084636,1990,1496,1
1788787756.092906,1968,2420,1
1788787756.0967062,2074,2029,1
1788787756.0971808,2137,2327,1
1788787756.097609,2115,2697,1
1788787756.100352,2046,1732,1
1788787756.102564,2125,1911,1
1788787756.108583,2114,2000,1
1788787756.108968,2038,956,1
1788787756.1092858,1933,2260,1
1788787756.1096299,2049,2271,1
1788787756.109984,2116,2282,1
1788787756.110376,2120,2735,1
1788787756.110761,2068,1973,1
1788787756.113534,2079,1761,1
1788787756.114899,2119,2658,1
1788787756.122494,2066,582,1
1788787756.123183,1959,2000,1
1788787756.126508,2031,2411,1
1788787756.1269271,2078,1589,1
1788787756.1272671,2138,2457,1
1788787756.129363,2113,2323,1
1788787756.130156,2083,1640,1
1788787756.1386108,2137,2219,1
1788787756.138825,2087,1570,1
1788787756.139125,1998,1504,1
1788787756.1396039,1979,2423,1
1788787756.1421728,2065,2027,1
1788787756.143164,2119,2338,1
1788787756.143242,2113,2727,1
1788787756.1445959,2036,1725,1
1788787756.1472409,2130,1920,1
1788787756.148601,2107,2082,1
1788787756.1562629,2022,959,1
1788787756.158046,1949,2267,1
1788787756.1603441,2071,2279,1
1788787756.1605928,2120,2202,1
1788787756.165067,2124,2840,1
1788787756.1655738,2047,1959,1
1788787756.171851,2074,1747,1
1788787756.17261,2139,2648,1
1788787756.173472,2070,597,1
1788787756.177037,1949,2008,1
1788787756.177155,2009,2421,1
1788787756.177322,2070,1595,1
1788787756.1773992,2129,2524,1
1788787756.17745,2087,2312,1
1788787756.1790552,2070,1637,1
1788787756.186453,2146,2225,1
1788787756.1878688,2079,1506,1
1788787756.191324,1979,1521,1
1788787756.191809,1971,2431,1
1788787756.193973,2046,2023,1
1788787756.196461,2117,2403,1
1788787756.203368,2101,2718,1
1788787756.203768,2033,1715,1
1788787756.204125,2116,1930,1
1788787756.2044969,2114,1951,1
1788787756.204968,2044,994,1
1788787756.205288,1925,2277,1
1788787756.207778,2049,2263,1
1788787756.208983,2109,2267,1
1788787756.20912,2120,2773,1
1788787756.2104478,2065,1951,1
1788787756.213065,2084,1763,1
1788787756.214452,2145,2624,1
1788787756.223249,2059,581,1
1788787756.2251341,1958,2025,1
1788787756.227298,2024,2409,1
1788787756.230193,2062,1564,1
1788787756.231966,2096,2499,1
1788787756.238176,2066,2291,1
1788787756.238508,2064,1626,1
1788787756.2387211,2166,2257,1
1788787756.239095,2099,1442,1
1788787756.2393112,2003,1546,1
1788787756.242261,1965,2431,1
1788787756.242327,2079,2002,1
1788787756.2423801,2121,2407,1
1788787756.24243,2112,2673,1
1788787756.245044,2049,1714,1
1788787756.250546,2129,1937,1
1788787756.251905,2072,1955,1
1788787756.252061,2016,1013,1
1788787756.254903,1943,2282,1
1788787756.2552,2062,2253,1
1788787756.257546,2128,2263,1
1788787756.25967,2145,2701,1
1788787756.265166,2051,1955,1
1788787756.265728,2065,1771,1
1788787756.2659998,2116,2622,1
1788787756.268557,2047,554,1
1788787756.269221,1941,2032,1
1788787756.27057,2009,2406,1
1788787756.2732182,2075,1554,1
1788787756.274546,2105,2466,1
1788787756.281486,2083,2293,1
1788787756.281635,2057,1610,1
1788787756.28271,2129,2254,1
1788787756.2844942,2086,1446,1
1788787756.284666,2005,1549,1
1788787756.288278,1963,2429,1
1788787756.2885242,2056,1997,1
1788787756.293206,2127,2390,1
1788787756.2935371,2104,2696,1
1788787756.296264,2060,1725,1
1788787756.296337,2118,1940,1
1788787756.298938,2099,1901,1
1788787756.304802,2026,1076,1
1788787756.307132,1928,2281,1
1788787756.307369,2069,2248,1
1788787756.307534,2110,2232,1
1788787756.310951,2115,2799,1
1788787756.3112571,2051,1941,1
1788787756.315906,2066,1770,1
1788787756.316136,2111,2591,1
1788787756.318728,2044,599,1
1788787756.3189602,1919,2038,1
1788787756.3203259,2010,2403,1
1788787756.3229198,2069,1545,1
1788787756.3243399,2109,2500,1
1788787756.3292239,2077,2280,1
1788787756.329752,2062,1642,1
1788787756.332696,2136,2255,1
1788787756.33289,2053,1457,1
1788787756.335005,1988,1560,1
1788787756.34114,1954,2434,1
1788787756.3414521,2057,1994,1
1788787756.34177,2098,2402,1
1788787756.3442419,2080,2714,1
1788787756.3443189,2041,1704,1
1788787756.350325,2140,1942,1
1788787756.350935,2090,1963,1
1788787756.351947,2026,1031,1
1788787756.355912,1946,2292,1
1788787756.3565571,2060,2251,1
1788787756.35674,2100,2263,1
1788787756.362738,2112,2749,1
1788787756.36306,2029,1915,1
1788787756.3632052,2072,1772,1
1788787756.365744,2125,2478,1
1788787756.366873,2068,546,1
1788787756.3695118,1951,2047,1
1788787756.370844,2010,2392,1
1788787756.376896,2075,1577,1
1788787756.377451,2099,2581,1
1788787756.377909,2096,2251,1
1788787756.380157,2068,1638,1
1788787756.381736,2149,2294,1
1788787756.3832479,2090,1354,1
1788787756.387706,1994,1595,1
1788787756.387882,1961,2431,1
1788787756.390374,2071,1960,1
1788787756.390419,2133,2282,1
1788787756.392999,2085,2669,1
1788787756.394322,2066,1702,1
1788787756.399261,2127,1956,1
1788787756.400148,2085,1941,1
1788787756.401881,2037,1051,1
1788787756.40508,1930,2297,1
1788787756.4092789,2067,2241,1
1788787756.409469,2114,2204,1
1788787756.409603,2126,2798,1
1788787756.4121459,2079,1933,1
1788787756.413468,2082,1761,1
1788787756.41478,2125,2619,1
1788787756.417357,2067,572,1
1788787756.4215,1956,2059,1
1788787756.4216142,2032,2407,1
1788787756.4246788,2086,1544,1
1788787756.426218,2121,2545,1
1788787756.427876,2094,2254,1
1788787756.4321432,2070,1620,1
1788787756.432471,2142,2278,1
1788787756.432578,2075,1412,1
1788787756.434756,1984,1586,1
1788787756.437645,1976,2440,1
1788787756.439046,2076,1980,1
1788787756.4403682,2123,2280,1
1788787756.445863,2094,2706,1
1788787756.448513,2055,1679,1
1788787756.450716,2127,1939,1
1788787756.4523,2090,2016,1
1788787756.457066,2025,1032,1
1788787756.457694,1946,2297,1
1788787756.460233,2076,2257,1
1788787756.460371,2106,2198,1
1788787756.4604769,2118,2829,1
1788787756.4605498,2087,1923,1
1788787756.4661682,2090,1761,1
1788787756.4667819,2128,2598,1
1788787756.4677298,2067,533,1
1788787756.4697332,1939,2056,1
1788787756.4716768,2005,2413,1
1788787756.47714,2072,1632,1
1788787756.477366,2110,2591,1
1788787756.4777138,2075,2252,1
1788787756.480148,2042,1627,1
1788787756.481676,2124,2285,1
1788787756.4830668,2068,1370,1
1788787756.484385,1991,1594,1
1788787756.490356,1962,2438,1
1788787756.490537,2055,1971,1
1788787756.491081,2117,2180,1
1788787756.493664,2105,2677,1
1788787756.495214,2048,1711,1
1788787756.5011861,2112,1937,1
1788787756.501548,2080,2009,1
1788787756.501725,2036,1028,1
1788787756.504294,1952,2297,1
1788787756.5043762,2076,2261,1
1788787756.5069928,2121,2068,1
1788787756.510443,2116,2800,1
1788787756.510921,2066,1929,1
1788787756.5134988,2102,1745,1
1788787756.5154712,2145,2602,1
1788787756.516942,2077,476,1
1788787756.5213451,1948,2051,1
1788787756.521591,2018,2423,1
1788787756.523896,2091,1561,1
1788787756.525218,2162,2577,1
1788787756.526369,2099,2260,1
1788787756.5289001,2068,1614,1
1788787756.53357,2145,2258,1
1788787756.534513,2092,1411,1
1788787756.535062,2000,1574,1
1788787756.536959,1968,2443,1
1788787756.539022,2050,1994,1
1788787756.544221,2127,2324,1
1788787756.544428,2107,2723,1
1788787756.544681,2049,1697,1
1788787756.547055,2102,1935,1
1788787756.54837,2114,2139,1
1788787756.555062,2066,1014,1
1788787756.55707,1946,2298,1
1788787756.557365,2054,2275,1
1788787756.55878,2102,2165,1
1788787756.5606668,2102,2786,1
1788787756.564712,2071,1935,1
1788787756.5652092,2088,1742,1
1788787756.567221,2140,2630,1
1788787756.567894,2075,464,1
1788787756.569215,1923,2048,1
1788787756.570663,1955,2425,1
1788787756.5734909,2069,1577,1
1788787756.5778,2109,2639,1
1788787756.578371,2098,2257,1
1788787756.578953,2081,1614,1
1788787756.580425,2103,2259,1
1788787756.5876129,2058,1275,1
1788787756.58799,2011,1592,1
1788787756.588245,2043,2443,1
1788787756.5886028,2074,1980,1
1788787756.590564,2097,2265,1
1788787756.593158,2120,2706,1
1788787756.59448,2065,1687,1
1788787756.6009548,2120,1935,1
1788787756.6014621,2088,2071,1
1788787756.603296,2045,1029,1
1788787756.605293,1949,2301,1
1788787756.606849,2068,2264,1
1788787756.6070662,2100,2090,1
1788787756.6110249,2107,2771,1
1788787756.6112452,2057,1928,1
1788787756.6132329,2072,1742,1
1788787756.614539,2062,2675,1
1788787756.617198,2029,442,1
1788787756.618377,1994,2053,1
1788787756.624703,2083,2429,1
1788787756.625487,2079,1568,1
1788787756.6269498,2139,2539,1
1788787756.62714,2093,2265,1
1788787756.629066,2125,1610,1
1788787756.634512,2249,2247,1
1788787756.635257,2086,1466,1
1788787756.637119,1941,1562,1
1788787756.6377149,1918,2444,1
1788787756.639009,2071,2006,1
1788787756.6403542,2081,2277,1
1788787756.643081,2097,2739,1
1788787756.646528,2060,1696,1
1788787756.647299,2118,1921,1
1788787756.649324,2075,2200,1
1788787756.652489,2007,990,1
1788787756.656963,1965,2293,1
1788787756.657315,2128,2288,1
1788787756.657483,2240,2095,1
1788787756.65951,2233,2839,1
1788787756.6608808,1907,1937,1
1788787756.6622632,2014,1728,1
1788787756.664927,2097,2631,1
1788787756.670748,2060,443,1
1788787756.6725981,1939,2040,1
1788787756.674567,2044,2435,1
1788787756.67496,2009,1587,1
1788787756.676716,2086,2660,1
1788787756.677588,2052,2260,1
1788787756.710003,1963,1611,1
1788787756.7100658,2201,2244,1
1788787756.7101061,2203,1410,1
1788787756.710145,2031,1566,1
1788787756.710182,1926,2444,1
1788787756.710407,2058,2003,1
1788787756.72314,2162,2302,1
1788787756.728966,2168,2767,1
1788787756.729538,2083,1695,1
1788787756.7303622,2021,1925,1
1788787756.732755,2063,2191,1
1788787756.7330182,2125,1002,1
1788787756.7330828,1971,2299,1
1788787756.733142,2050,2285,1
1788787756.733202,2116,2045,1
1788787756.733309,2190,2858,1
1788787756.7333708,2085,1932,1
1788787756.733439,2058,1723,1
1788787756.7334988,2149,2637,1
1788787756.733553,2016,422,1
1788787756.733613,1884,2049,1
1788787756.7336729,2022,2439,1
1788787756.733734,2099,1632,1
1788787756.7337952,2014,2647,1
1788787756.7338529,2063,2267,1
1788787756.7339132,2107,1544,1
1788787756.733979,2266,2275,1
1788787756.7340522,2154,1376,1
1788787756.7341352,2055,1573,1
1788787756.7409139,1912,2439,1
1788787756.742086,2034,1991,1
1788787756.744392,2098,2271,1
1788787756.753706,2125,2744,1
1788787756.7546072,2122,1697,1
1788787756.754954,2048,1932,1
1788787756.7578628,2068,2211,1
1788787756.7579362,2013,1002,1
1788787756.7580302,1922,2297,1
1788787756.758104,2081,2282,1
1788787756.7581692,2193,1990,1
1788787756.758232,2130,2835,1
1788787756.7608619,2002,1936,1
1788787756.7622101,2010,1728,1
1788787756.770296,2111,2653,1
1788787756.773068,2112,411,1
1788787756.773512,1888,2046,1
1788787756.7756412,1980,2443,1
1788787756.7777112,2085,1593,1
1788787756.782466,2108,2573,1
1788787756.7829819,2095,2274,1
1788787756.783423,2109,1609,1
1788787756.783802,2132,2228,1
1788787756.787272,2011,1313,1
1788787756.787373,2010,1570,1
1788787756.787491,1968,2447,1
1788787756.7889311,2067,2003,1
1788787756.790369,2164,2275,1
1788787756.796421,2169,2767,1
1788787756.7983942,2124,1693,1
1788787756.800191,2080,1924,1
1788787756.8009422,2115,2224,1
1788787756.801707,1956,998,1
1788787756.808148,1912,2300,1
1788787756.808693,2072,2291,1
1788787756.811064,2164,2097,1
1788787756.811879,2044,2911,1
1788787756.811977,2033,1923,1
1788787756.8120792,2105,1727,1
1788787756.8147259,2162,2675,1
1788787756.8161018,2102,425,1
1788787756.823852,2027,2054,1
1788787756.825162,2072,2442,1
1788787756.82713,2104,1585,1
1788787756.8309271,2101,2744,1
1788787756.836331,2047,2249,1
1788787756.836936,1960,1604,1
1788787756.8392801,2190,2249,1
1788787756.8401868,2042,1411,1
1788787756.840255,1991,1586,1
1788787756.840318,2022,2452,1
1788787756.840378,2130,1997,1
1788787756.8404381,2187,1889,1
1788787756.8432598,2137,2764,1
1788787756.850979,2196,1689,1
1788787756.853199,2188,1889,1
1788787756.85551,2002,2230,1
1788787756.860288,1935,963,1
1788787756.860749,1892,2295,1
1788787756.861156,2020,2313,1
1788787756.861526,2053,2039,1
1788787756.864416,2150,3040,1
1788787756.864516,2253,1927,1
1788787756.864589,1924,1705,1
1788787756.8646579,1942,2657,1
1788787756.866081,2206,404,1
1788787756.8687098,2182,2050,1
1788787756.8701901,2228,2455,1
1788787756.875307,2021,1605,1
1788787756.876427,1933,2767,1
1788787756.878936,1823,2254,1
1788787756.881561,2187,1596,1
1788787756.888334,2327,2252,1
1788787756.888924,1875,967,1
1788787756.889327,1710,1626,1
1788787756.892009,1894,2456,1
1788787756.892085,2048,1968,1
1788787756.892148,2118,2182,1
1788787756.89221,2161,2741,1
1788787756.8950322,2107,1677,1
1788787756.905029,2205,1935,1
1788787756.9054248,2237,2177,1
1788787756.9121091,2142,1042,1
1788787756.912508,1970,2319,1
1788787756.912821,2084,2278,1
1788787756.9131808,2091,1927,1
1788787756.9161339,2049,2950,1
1788787756.9164312,2024,1895,1
1788787756.916503,2138,1722,1
1788787756.916567,2144,2693,1
1788787756.916626,2060,444,1
1788787756.919328,1948,2074,1
1788787756.920747,2066,2453,1
1788787756.922105,2135,1583,1
1788787756.929472,2213,2728,1
1788787756.929594,2162,2230,1
1788787756.9309828,2177,1594,1
1788787756.9331598,2152,2251,1
1788787756.9334779,1961,1286,1
1788787756.9367082,1937,1609,1
1788787756.938602,1961,2460,1
1788787756.944149,1954,1988,1
1788787756.944607,2021,2100,1
1788787756.945005,2013,2765,1
1788787756.9454038,1948,1689,1
1788787756.94864,2081,1930,1
1788787756.9487202,2040,2550,1
1788787756.950059,2147,975,1
1788787756.95806,2478,2315,1
1788787756.958733,2637,2331,1
1788787756.961457,1977,1753,1
1788787756.9634361,1751,3090,1
1788787756.966418,1733,1908,1
1788787756.9668741,2032,1662,1
1788787756.9724212,2163,2625,1
1788787756.97281,1984,381,1
1788787756.9734342,1853,2055,1
1788787756.974002,1945,2481,1
1788787756.976942,2069,1637,1
1788787756.977022,2093,2735,1
1788787756.977084,2132,2262,1
1788787756.97844,2160,1580,1
1788787756.9811058,2166,2211,1
1788787756.9823208,1940,1617,1
1788787756.989876,1853,1543,1
1788787756.991235,1911,2462,1
1788787756.993361,2093,2047,1
1788787756.9937742,2147,1943,1
1788787756.998314,2165,2846,1
1788787756.998722,2135,1691,1
1788787757.004891,2201,1863,1
1788787757.0050938,2109,2678,1
1788787757.0056,2057,881,1
1788787757.006036,1895,2290,1
1788787757.006388,2056,2376,1
1788787757.0068119,2119,1674,1
1788787757.009971,2155,3144,1
1788787757.010067,2059,1945,1
1788787757.020055,2170,1626,1
1788787757.0340009,2187,2552,1
1788787757.034879,1993,302,1
1788787757.03531,1866,2016,1
1788787757.035429,2014,2495,1
1788787757.035499,2035,1689,1
1788787757.0355651,2061,2653,1
1788787757.035626,2082,2315,1
1788787757.035687,2145,1587,1
1788787757.035747,2165,2165,1
1788787757.035807,2047,1338,1
1788787757.035924,1914,1522,1
1788787757.036026,2009,2453,1
1788787757.038688,2059,2053,1
1788787757.040072,2150,1913,1
1788787757.0428019,2055,2871,1
1788787757.048964,1947,1696,1
1788787757.050275,2031,1853,1
1788787757.0529761,2039,2751,1
1788787757.05539,2017,856,1
1788787757.056297,1920,2281,1
1788787757.058829,2020,2385,1
1788787757.0591722,2085,1584,1
1788787757.064791,2149,3150,1
1788787757.0656471,2119,1958,1
1788787757.065888,2132,1616,1
1788787757.0684779,2126,2520,1
1788787757.0694132,2037,274,1
1788787757.0697558,2028,2002,1
1788787757.0711071,1971,2500,1
1788787757.0725062,2058,1708,1
1788787757.077801,2021,2573,1
1788787757.078953,2046,2335,1
1788787757.07918,2121,1580,1
1788787757.0825338,2171,2151,1
1788787757.0847738,2023,1633,1
1788787757.087467,2029,1465,1
1788787757.0932548,1955,2448,1
1788787757.093921,1990,2095,1
1788787757.094304,2071,1933,1
1788787757.094835,2041,2912,1
1788787757.095179,2065,1714,1
1788787757.0984378,2189,1827,1
1788787757.098583,2084,2614,1
1788787757.099989,2021,821,1
1788787757.1027682,1939,2263,1
1788787757.104226,2061,2389,1
1788787757.111655,2127,1663,1
1788787757.1137862,2194,3236,1
1788787757.116338,2158,1969,1
1788787757.1188831,2096,1628,1
1788787757.121354,2003,2516,1
1788787757.12176,1928,270,1
1788787757.128011,1808,1996,1
1788787757.13136,1973,2496,1
1788787757.132488,2070,1707,1
1788787757.132642,2067,2755,1
1788787757.1327,2018,2323,1
1788787757.13275,2051,1585,1
1788787757.132798,2179,2166,1
1788787757.132861,2088,1467,1
1788787757.1342359,2009,1500,1
1788787757.1402938,1982,2449,1
1788787757.141589,2081,2066,1
1788787757.142975,2089,2019,1
1788787757.145327,2082,2883,1
1788787757.145675,2002,1700,1
1788787757.148536,2143,1855,1
1788787757.1503859,2081,2549,1
1788787757.150636,1995,871,1
1788787757.156387,1924,2276,1
1788787757.1565309,2055,2365,1
1788787757.156731,2138,1756,1
1788787757.159864,2119,3132,1
1788787757.160219,2013,1952,1
1788787757.162842,2014,1644,1
1788787757.16417,2042,2564,1
1788787757.166794,2011,307,1
1788787757.17336,1948,2010,1
1788787757.176956,2025,2483,1
1788787757.177166,2048,1678,1
1788787757.1774468,2091,2732,1
1788787757.1776052,2043,2306,1
1788787757.179698,2046,1588,1
1788787757.181878,2144,2185,1
1788787757.182034,2089,1272,1
1788787757.187704,2021,1538,1
1788787757.188121,2039,2450,1
1788787757.1884842,2048,2035,1
1788787757.1908102,2034,1892,1
1788787757.1921332,2013,2851,1
1788787757.1984792,1976,1698,1
1788787757.1990058,2117,1864,1
1788787757.1995149,2091,2564,1
1788787757.201504,2032,890,1
1788787757.205041,1912,2284,1
1788787757.205208,2053,2361,1
1788787757.210003,2124,1769,1
1788787757.2103198,2154,3106,1
1788787757.2104661,2111,1946,1
1788787757.212974,2119,1649,1
1788787757.214297,2130,2573,1
1788787757.216885,2080,318,1
1788787757.218205,1948,2017,1
1788787757.224305,2067,2483,1
1788787757.224912,2125,1672,1
1788787757.225067,2161,2822,1
1788787757.227482,2014,2287,1
1788787757.229634,1971,1584,1
1788787757.236473,2072,2197,1
1788787757.236952,2036,1280,1
1788787757.237191,1955,1553,1
1788787757.237494,1945,2453,1
1788787757.2399418,2069,2027,1
1788787757.240163,2093,2097,1
1788787757.2428522,2070,2819,1
1788787757.247537,2080,1692,1
1788787757.248498,2168,1899,1
1788787757.2508328,2122,2573,1
1788787757.2509801,2048,923,1
1788787757.254987,1963,2295,1
1788787757.259918,2045,2347,1
1788787757.260097,2046,1742,1
1788787757.260382,2103,3109,1
1788787757.260811,2090,1933,1
1788787757.263463,2112,1655,1
1788787757.264791,2101,2596,1
1788787757.2661262,2005,342,1
1788787757.2683241,1908,2032,1
1788787757.273731,2018,2483,1
1788787757.273891,2092,1659,1
1788787757.275977,2121,2753,1
1788787757.277628,2078,2286,1
1788787757.281259,2085,1574,1
1788787757.2814982,2165,2200,1
1788787757.286703,2102,1140,1
1788787757.287324,1993,1574,1
1788787757.289535,1996,2456,1
1788787757.290292,2070,2012,1
1788787757.290346,2135,2021,1
1788787757.292973,2097,2806,1
1788787757.2979488,2051,1684,1
1788787757.298487,2139,1892,1
1788787757.300566,2061,2517,1
1788787757.3008058,1989,939,1
1788787757.303947,1967,2299,1
1788787757.304121,2067,2339,1
1788787757.308416,2078,1773,1
1788787757.308573,2089,3059,1
1788787757.311035,2040,1928,1
1788787757.312352,2094,1663,1
1788787757.314913,2106,2611,1
1788787757.316215,2048,352,1
1788787757.320658,1977,2035,1
1788787757.320781,2058,2479,1
1788787757.3235059,2125,1651,1
1788787757.325421,2189,2696,1
1788787757.3308039,2098,2284,1
1788787757.330961,2055,1583,1
1788787757.33113,2122,2200,1
1788787757.333424,2045,1090,1
1788787757.334728,1942,1579,1
1788787757.33603,1938,2455,1
1788787757.338624,2040,2007,1
1788787757.3422909,2079,2089,1
1788787757.343175,2113,2798,1
1788787757.3449259,2072,1685,1
1788787757.346426,2163,1905,1
1788787757.348021,2117,2484,1
1788787757.3528168,2051,955,1
1788787757.355146,1971,2302,1
1788787757.355996,2073,2330,1
1788787757.356085,2103,1775,1
1788787757.3639622,2111,3064,1
1788787757.3668108,2038,1932,1
1788787757.367062,2094,1669,1
1788787757.3693519,2107,2622,1
1788787757.375316,2040,368,1
1788787757.375542,1947,2044,1
1788787757.375964,2043,2478,1
1788787757.37622,2103,1642,1
1788787757.376539,2113,2738,1
1788787757.378738,2078,2268,1
1788787757.379018,2085,1583,1
1788787757.380394,2149,2211,1
1788787757.383036,2066,1056,1
1788787757.3844092,2013,1596,1
1788787757.38941,2004,2458,1
1788787757.3898969,2088,1997,1
1788787757.3908339,2120,2085,1
1788787757.392398,2084,2776,1
1788787757.393952,2053,1679,1
1788787757.4005,2146,1908,1
1788787757.400836,2070,2470,1
1788787757.4009879,1996,969,1
1788787757.402911,1919,2307,1
1788787757.40432,2052,2324,1
1788787757.409375,2121,1813,1
1788787757.410691,2097,3089,1
1788787757.412998,2050,1915,1
1788787757.4131808,2102,1676,1
1788787757.415303,2143,2639,1
1788787757.421396,2067,385,1
1788787757.421855,1964,2053,1
1788787757.422008,2034,2475,1
1788787757.422262,2106,1630,1
1788787757.424435,2139,2773,1
1788787757.427011,2068,2255,1
1788787757.4283352,2070,1582,1
1788787757.434616,2126,2223,1
1788787757.437349,2061,1006,1
1788787757.437728,1973,1614,1
1788787757.43789,1999,2461,1
1788787757.439593,2083,1985,1
1788787757.441281,2132,2079,1
1788787757.445803,2095,2765,1
1788787757.4460201,2062,1663,1
1788787757.446173,2150,1912,1
1788787757.448458,2100,2434,1
1788787757.451257,2010,988,1
1788787757.4558568,1930,2312,1
1788787757.456824,2056,2314,1
1788787757.4573529,2110,1820,1
1788787757.461827,2100,3102,1
1788787757.466578,2041,1901,1
1788787757.466849,2112,1682,1
1788787757.4671519,2117,2655,1
1788787757.467305,2049,403,1
1788787757.46977,1942,2063,1
1788787757.470001,2018,2472,1
1788787757.4726741,2076,1619,1
1788787757.4739819,2129,2751,1
1788787757.478915,2101,2247,1
1788787757.479946,2055,1538,1
1788787757.480392,2111,2249,1
1788787757.482257,2052,966,1
1788787757.484292,1973,1622,1
1788787757.4901602,2007,2458,1
1788787757.4904919,2097,1974,1
1788787757.49067,2132,2129,1
1788787757.492912,2096,2740,1
1788787757.49437,2069,1676,1
1788787757.497082,2155,1925,1
1788787757.503922,2082,2381,1
1788787757.505716,2019,1007,1
1788787757.505962,1965,2315,1
1788787757.5062459,2074,2303,1
1788787757.5063722,2098,1844,1
1788787757.5082161,2098,3073,1
1788787757.513897,2031,1900,1
1788787757.514295,2112,1693,1
1788787757.51459,2120,2658,1
1788787757.5163462,2030,421,1
1788787757.51918,1942,2069,1
1788787757.5234811,2063,2467,1
1788787757.5239491,2093,1615,1
1788787757.524479,2113,2792,1
1788787757.526554,2062,2236,1
1788787757.5284312,2078,1585,1
1788787757.533955,2146,2240,1
1788787757.53409,2071,877,1
1788787757.534334,1986,1650,1
1788787757.537204,2014,2464,1
1788787757.5385332,2095,1958,1
1788787757.539851,2119,2224,1
1788787757.542419,2086,2711,1
1788787757.54797,2039,1664,1
1788787757.54967,2129,1949,1
1788787757.550719,2091,2265,1
1788787757.550945,2015,1054,1
1788787757.552913,1941,2328,1
1788787757.558462,2072,2280,1
1788787757.558794,2108,1922,1
1788787757.559009,2096,3005,1
1788787757.561244,2060,1884,1
1788787757.5625541,2097,1705,1
1788787757.5670478,2112,2645,1
1788787757.569958,2023,465,1
1788787757.5705678,1948,2085,1
1788787757.5723991,2057,2451,1
1788787757.572953,2107,1655,1
1788787757.578946,2125,2760,1
1788787757.579227,2102,2216,1
1788787757.5795991,2084,1600,1
1788787757.582013,2160,2274,1
1788787757.5820851,2077,793,1
1788787757.584738,1981,1682,1
1788787757.5860322,1989,2460,1
1788787757.59294,2069,1926,1
1788787757.596282,2103,2322,1
1788787757.596844,2039,2668,1
1788787757.600363,2025,1665,1
1788787757.605412,2153,1979,1
1788787757.608317,2127,2096,1
1788787757.609345,2022,1115,1
1788787757.6094441,1967,2339,1
1788787757.6095612,2075,2244,1
1788787757.609617,2135,2021,1
1788787757.6096609,2137,2952,1
1788787757.611701,2068,1865,1
1788787757.61588,2120,1747,1
1788787757.617289,2088,2581,1
1788787757.618678,1975,534,1
1788787757.620573,1910,2110,1
1788787757.622081,2032,2426,1
1788787757.622636,2076,1736,1
1788787757.625095,2058,2782,1
1788787757.630493,2041,2186,1
1788787757.6308842,2094,1621,1
1788787757.631239,2172,2336,1
1788787757.634481,2090,802,1
1788787757.634603,1986,1726,1
1788787757.635796,2035,2455,1
1788787757.638489,2098,1882,1
1788787757.639869,2132,2380,1
1788787757.64591,2064,2616,1
1788787757.647198,2015,1655,1
1788787757.6497002,2151,2014,1
1788787757.65887,2073,2021,1
1788787757.659318,1977,1171,1
1788787757.659709,1964,2351,1
1788787757.6605198,2079,2212,1
1788787757.660856,2111,2132,1
1788787757.663502,2136,2956,1
1788787757.663584,2128,1841,1
1788787757.663717,2068,1777,1
1788787757.663817,2074,2537,1
1788787757.673058,2037,605,1
1788787757.677508,1964,2138,1
1788787757.684242,2045,2403,1
1788787757.684909,2089,1798,1
1788787757.685336,2136,2739,1
1788787757.685787,2111,2150,1
1788787757.686023,2064,1639,1
1788787757.6889,2166,2388,1
1788787757.6889799,2070,754,1
1788787757.689044,1952,1768,1
1788787757.689106,1998,2451,1
1788787757.689182,2093,1840,1
1788787757.690527,2121,2441,1
1788787757.69186,2111,2569,1
1788787757.694466,2071,1651,1
1788787757.702029,2101,2047,1
1788787757.705258,2066,1891,1
1788787757.707967,1997,1234,1
1788787757.708384,1881,2364,1
1788787757.7138429,2040,2177,1
1788787757.7141728,2117,2189,1
1788787757.714776,2156,2846,1
1788787757.715214,2070,1829,1
1788787757.717952,2137,1798,1
1788787757.71805,2142,2476,1
1788787757.7181199,2080,663,1
1788787757.718184,1968,2156,1
1788787757.725402,2073,2379,1
1788787757.727104,2093,1861,1
1788787757.72893,2101,2682,1
1788787757.73074,2047,2115,1
1788787757.731349,2063,1664,1
1788787757.733377,2139,2436,1
1788787757.733675,2067,679,1
1788787757.7390249,1943,1802,1
1788787757.7394938,2020,2443,1
1788787757.739966,2078,1800,1
1788787757.740443,2120,2378,1
1788787757.743177,2113,2537,1
1788787757.7445261,2054,1651,1
1788787757.745821,2136,2073,1
1788787757.748451,2142,1792,1
1788787757.7568052,2067,1273,1
1788787757.75795,1973,2371,1
1788787757.758234,2038,2153,1
1788787757.7604501,2081,2263,1
1788787757.761039,2066,2813,1
1788787757.764777,2034,1812,1
1788787757.765107,2112,1827,1
1788787757.770837,2125,2366,1
1788787757.7711701,2052,716,1
1788787757.771998,1945,2172,1
1788787757.772419,2059,2355,1
1788787757.772665,2113,1944,1
1788787757.7755089,2078,2673,1
1788787757.77688,2039,2103,1
1788787757.778251,2076,1675,1
1788787757.784728,2151,2488,1
1788787757.785984,2012,746,1
1788787757.7861671,1951,1827,1
1788787757.786863,2009,2435,1
1788787757.789068,2074,1767,1
1788787757.79133,2146,2411,1
1788787757.7998421,2118,2501,1
1788787757.802078,2065,1650,1
1788787757.8029451,2123,2097,1
1788787757.80302,2079,1760,1
1788787757.8030841,2007,1306,1
1788787757.803147,1958,2376,1
1788787757.804688,2072,2131,1
1788787757.8060741,2128,2269,1
1788787757.808684,2118,2720,1
1788787757.810308,2045,1810,1
1788787757.816892,2099,1840,1
1788787757.820148,2102,2305,1
1788787757.822999,2028,744,1
1788787757.824723,1930,2178,1
1788787757.825044,2044,2340,1
1788787757.831368,2097,1975,1
1788787757.832024,2125,2682,1
1788787757.834404,2058,2090,1
1788787757.835098,2071,1694,1
1788787757.8353999,2141,2514,1
1788787757.8354719,2058,734,1
1788787757.8355572,1962,1846,1
1788787757.8357928,1996,2430,1
1788787757.838948,2065,1746,1
1788787757.84382,2115,2413,1
1788787757.845226,2100,2486,1
1788787757.8459241,2057,1648,1
1788787757.848758,2127,2110,1
1788787757.849005,2075,1730,1
1788787757.859398,2000,1329,1
1788787757.8598971,1950,2381,1
1788787757.86019,2070,2118,1
1788787757.8604941,2106,2293,1
1788787757.860893,2094,2736,1
1788787757.863931,2068,1800,1
1788787757.864137,2113,1852,1
1788787757.864507,2094,2287,1
1788787757.865907,2027,773,1
1788787757.8685272,1928,2190,1
1788787757.870021,2042,2332,1
1788787757.8789499,2088,2005,1
1788787757.879742,2103,2654,1
1788787757.882368,2050,2078,1
1788787757.8827899,2068,1698,1
1788787757.8831291,2133,2531,1
1788787757.8834062,2050,695,1
1788787757.886229,1947,1864,1
1788787757.8881211,2000,2428,1
1788787757.888504,2086,1727,1
1788787757.894859,2132,2423,1
1788787757.895465,2113,2458,1
1788787757.898238,2060,1646,1
1788787757.8991292,2130,2129,1
1788787757.899453,2078,1696,1
1788787757.900813,2026,1351,1
1788787757.9024699,1966,2385,1
1788787757.9084811,2062,2106,1
1788787757.909902,2128,2333,1
1788787757.912641,2103,2716,1
1788787757.913226,2057,1795,1
1788787757.9153512,2126,1865,1
1788787757.918389,2106,2265,1
1788787757.924693,2046,797,1
1788787757.925078,1934,2199,1
1788787757.9254851,2041,2323,1
1788787757.925848,2080,2052,1
1788787757.926188,2098,2717,1
1788787757.926502,2058,2059,1
1788787757.9295092,2052,1709,1
1788787757.9308622,2112,2574,1
1788787757.932204,2045,704,1
1788787757.934874,1967,1886,1
1788787757.9365718,2005,2428,1
1788787757.943351,2079,1709,1
1788787757.9458282,2107,2453,1
1788787757.9464169,2101,2442,1
1788787757.94911,2064,1640,1
1788787757.950956,2141,2145,1
1788787757.951102,2090,1680,1
1788787757.957233,1999,1377,1
1788787757.957491,1942,2393,1
1788787757.957705,2060,2094,1
1788787757.958097,2110,2307,1
1788787757.960877,2097,2752,1
1788787757.96192,2054,1779,1
1788787757.96205,2117,1870,1
1788787757.964702,2103,2222,1
1788787757.9709172,2041,827,1
1788787757.971884,1939,2214,1
1788787757.972092,2062,2318,1
1788787757.97403,2094,2024,1
1788787757.9763288,2119,2753,1
1788787757.976777,2062,2055,1
1788787757.979477,2081,1704,1
1788787757.988439,2131,2577,1
1788787757.989093,2069,682,1
1788787757.989701,1964,1910,1
1788787757.9923232,2012,2432,1
1788787757.993144,2080,1694,1
1788787757.993357,2113,2405,1
1788787757.9936929,2080,2425,1
1788787757.993763,2043,1635,1
1788787757.996415,2139,2149,1
1788787757.997747,2069,1685,1
1788787758.000622,2012,1391,1
1788787758.0068648,1951,2400,1
1788787758.008302,2055,2092,1
1788787758.0110981,2094,2335,1
1788787758.011401,2105,2744,1
1788787758.011699,2073,1787,1
1788787758.013886,2120,1871,1
1788787758.016377,2088,2233,1
1788787758.0553348,2045,840,1
1788787758.0554821,1952,2222,1
1788787758.0556521,2067,2319,1
1788787758.055862,2115,2058,1
1788787758.055934,2129,2745,1
1788787758.05609,2078,2028,1
1788787758.056202,2079,1705,1
1788787758.056278,2124,2582,1
1788787758.056368,2061,695,1
1788787758.056433,1962,1914,1
1788787758.0565,2008,2430,1
1788787758.0565782,2072,1688,1
1788787758.05665,2112,2428,1
1788787758.056735,2084,2419,1
1788787758.056912,2067,1636,1
1788787758.057028,2140,2156,1
1788787758.057157,2088,1667,1
1788787758.0572522,2001,1401,1
1788787758.057356,1944,2402,1
1788787758.0574348,2070,2086,1
1788787758.057524,2115,2320,1
1788787758.057683,2109,2692,1
1788787758.0742872,2045,1775,1
1788787758.0746381,2115,1876,1
1788787758.074962,2084,2199,1
1788787758.081138,2039,843,1
1788787758.081376,1954,2220,1
1788787758.081719,2054,2312,1
1788787758.084693,2088,2068,1
1788787758.085153,2107,2755,1
1788787758.085226,2067,2031,1
1788787758.08528,2061,1715,1
1788787758.08533,2121,2596,1
1788787758.085376,2067,673,1
1788787758.0854242,1991,1920,1
1788787758.086821,2030,2429,1
1788787758.0882509,2080,1681,1
1788787758.094495,2114,2438,1
1788787758.0962172,2100,2412,1
1788787758.098179,2066,1636,1
1788787758.098579,2139,2154,1
1788787758.100458,2079,1658,1
1788787758.1017962,1993,1409,1
1788787758.101992,1960,2403,1
1788787758.1090088,2063,2080,1
1788787758.109271,2115,2333,1
1788787758.109535,2109,2731,1
1788787758.109772,2053,1763,1
1788787758.113096,2122,1880,1
1788787758.1144419,2116,2183,1
1788787758.115781,2031,859,1
1788787758.1183329,1927,2226,1
1788787758.123522,2034,2307,1
1788787758.124649,2090,2089,1
1788787758.127413,2108,2728,1
1788787758.127659,2051,2011,1
1788787758.129591,2065,1725,1
1788787758.131489,2127,2609,1
1788787758.1397262,2053,661,1
1788787758.140079,1964,1927,1
1788787758.14019,2014,2427,1
1788787758.140238,2076,1672,1
1788787758.1402838,2123,2471,1
1788787758.143098,2098,2399,1
1788787758.146689,2055,1636,1
1788787758.147748,2124,2170,1
1788787758.1487901,2068,1665,1
1788787758.1510148,2013,1419,1
1788787758.154621,1976,2405,1
1788787758.1593091,2076,2075,1
1788787758.159582,2117,2334,1
1788787758.159809,2110,2694,1
1788787758.1600819,2055,1767,1
1788787758.162657,2127,1899,1
1788787758.1639879,2123,2186,1
1788787758.166574,2031,864,1
1788787758.167886,1929,2229,1
1788787758.172982,2035,2308,1
1788787758.173079,2084,2234,1
1788787758.176351,2107,2770,1
1788787758.176681,2050,2015,1
1788787758.180042,2071,1733,1
1788787758.180236,2164,2629,1
1788787758.185018,2050,694,1
1788787758.185555,1949,1938,1
1788787758.185796,2005,2422,1
1788787758.188329,2071,1656,1
1788787758.1896472,2110,2433,1
1788787758.194623,2101,2390,1
1788787758.1951702,2071,1632,1
1788787758.198008,2137,2179,1
1788787758.198373,2062,1616,1
1788787758.200049,2014,1433,1
1788787758.201781,1945,2406,1
1788787758.206617,2063,2065,1
1788787758.2068899,2144,2410,1
1788787758.2096992,2107,2660,1
1788787758.209745,2052,1772,1
1788787758.2123141,2118,1896,1
1788787758.213623,2103,2119,1
1788787758.22611,2041,890,1
1788787758.232696,1955,2233,1
1788787758.2332969,2052,2291,1
1788787758.233985,2080,2223,1
1788787758.2364259,2110,2776,1
1788787758.237579,2058,2005,1
1788787758.237678,2080,1743,1
1788787758.2377448,2116,2650,1
1788787758.237803,2050,714,1
1788787758.237939,1945,1950,1
1788787758.238063,1997,2418,1
1788787758.238152,2061,1641,1
1788787758.2395892,2089,2442,1
1788787758.245601,2069,2373,1
1788787758.2462249,2063,1636,1
1788787758.248936,2117,2192,1
1788787758.249283,2067,1682,1
