timestamp,ch1,ch2,label
1788787462.475959,2198,2289,e
1788787462.476041,2098,1936,e
1788787462.487236,1974,1772,e
1788787462.4874969,1966,2220,e
1788787462.487697,2083,2187,e
1788787462.487974,2138,2245,e
1788787462.491654,2113,2054,e
1788787462.492692,2067,2095,e
1788787462.4929368,2160,2438,e
1788787462.493234,2101,1964,e
1788787462.495583,1995,1833,e
1788787462.496922,1882,1880,e
1788787462.498249,2035,2373,e
1788787462.500822,2102,2292,e
1788787462.502132,2147,2138,e
1788787462.508323,2067,1911,e
1788787462.509322,2087,2267,e
1788787462.509953,2146,2059,e
1788787462.5115578,2061,1864,e
1788787462.513769,1918,1675,e
1788787462.51507,2008,2355,e
1788787462.518131,2100,2222,e
1788787462.518711,2152,2172,e
1788787462.520149,2087,1990,e
1788787462.5227368,2064,2170,e
1788787462.524113,2171,2290,e
1788787462.5285451,2084,1961,e
1788787462.5291111,1959,1784,e
1788787462.531275,1944,2181,e
1788787462.533191,2082,2167,e
1788787462.535267,2166,2256,e
1788787462.537622,2109,2089,e
1788787462.538957,2052,2089,e
1788787462.540513,2165,2455,e
1788787462.541868,2116,1983,e
1788787462.544445,2027,1823,e
1788787462.548179,1903,1873,e
1788787462.5491168,2059,2376,e
1788787462.5528471,2127,2304,e
1788787462.553807,2133,2133,e
1788787462.554997,2059,1918,e
1788787462.558655,2106,2264,e
1788787462.5587058,2139,2071,e
1788787462.560034,2049,1860,e
1788787462.5626082,1899,1680,e
1788787462.563912,2000,2351,e
1788787462.568925,2079,2243,e
1788787462.570094,2156,2194,e
1788787462.571955,2101,1967,e
1788787462.575187,2059,2164,e
1788787462.5753431,2181,2307,e
1788787462.5768719,2076,1955,e
1788787462.5791202,1951,1740,e
1788787462.580255,1944,2204,e
1788787462.581768,2057,2193,e
1788787462.5843441,2127,2254,e
1788787462.589945,2095,2049,e
1788787462.593769,2059,2074,e
1788787462.6012402,2170,2446,e
1788787462.601294,2111,1969,e
1788787462.601432,2004,1822,e
1788787462.6014998,1885,1886,e
1788787462.601543,2068,2368,e
1788787462.601581,2130,2290,e
1788787462.6016839,2143,2130,e
1788787462.604342,2053,1936,e
1788787462.6057,2095,2288,e
1788787462.615631,2148,2052,e
1788787462.616391,2079,1879,e
1788787462.617882,1917,1658,e
1788787462.619207,2007,2361,e
1788787462.619667,2065,2218,e
1788787462.620012,2122,2173,e
1788787462.6223161,2080,1993,e
1788787462.6228569,2100,2184,e
1788787462.624303,2176,2270,e
1788787462.625694,2088,1962,e
1788787462.628639,1958,1767,e
1788787462.633526,1939,2196,e
1788787462.634326,2105,2185,e
1788787462.636322,2165,2245,e
1788787462.636746,2126,2066,e
1788787462.640553,2050,2059,e
1788787462.6420438,2155,2465,e
1788787462.642293,2117,1950,e
1788787462.645025,2029,1830,e
1788787462.6464,1912,1889,e
1788787462.647757,2061,2381,e
1788787462.653974,2111,2307,e
1788787462.655412,2129,2137,e
1788787462.6556108,2041,1928,e
1788787462.6585128,2091,2255,e
1788787462.658908,2139,2060,e
1788787462.664076,2045,1869,e
1788787462.664621,1908,1693,e
1788787462.66498,2011,2335,e
1788787462.6677198,2095,2212,e
1788787462.667808,2171,2181,e
1788787462.6705139,2108,2005,e
1788787462.671895,2083,2189,e
1788787462.678833,2185,2282,e
1788787462.682338,2085,1969,e
1788787462.6826031,1953,1774,e
1788787462.6844668,1928,2211,e
1788787462.6884851,2065,2153,e
1788787462.6892009,2138,2264,e
1788787462.689549,2111,2047,e
1788787462.6899998,2050,2049,e
1788787462.692665,2153,2452,e
1788787462.692897,2119,1987,e
1788787462.694282,2015,1843,e
1788787462.6956632,1910,1859,e
1788787462.701243,2055,2380,e
1788787462.7041001,2111,2301,e
1788787462.706314,2130,2133,e
1788787462.7137332,2037,1906,e
1788787462.713971,2098,2251,e
1788787462.714072,2154,2040,e
1788787462.715704,2059,1905,e
1788787462.7173839,1905,1682,e
1788787462.7174652,2003,2321,e
1788787462.7176661,2086,2220,e
1788787462.7177322,2153,2197,e
1788787462.741438,2102,1985,e
1788787462.741649,2085,2184,e
1788787462.741719,2173,2282,e
1788787462.756194,2099,1956,e
1788787462.756959,1967,1760,e
1788787462.7573462,1940,2204,e
1788787462.7577002,2080,2178,e
1788787462.758014,2134,2236,e
1788787462.7602072,2126,2062,e
1788787462.761146,2067,2082,e
1788787462.761235,2166,2432,e
1788787462.761303,2127,1977,e
1788787462.761364,2015,1835,e
1788787462.7614248,1879,1872,e
1788787462.761525,2053,2349,e
1788787462.761599,2132,2304,e
1788787462.7616482,2132,2143,e
1788787462.761693,2058,1947,e
1788787462.761736,2100,2265,e
1788787462.7617788,2148,2056,e
1788787462.761822,2066,1888,e
1788787462.761863,1911,1680,e
1788787462.7691488,2023,2356,e
1788787462.77089,2105,2214,e
1788787462.772767,2150,2180,e
1788787462.774975,2072,1987,e
1788787462.7789881,2066,2177,e
1788787462.7795572,2164,2305,e
1788787462.779974,2125,1948,e
1788787462.780343,1993,1757,e
1788787462.7807832,1960,2181,e
1788787462.783543,2075,2200,e
1788787462.783617,2142,2253,e
1788787462.7861829,2128,2049,e
1788787462.7875571,2066,2097,e
1788787462.7938461,2148,2450,e
1788787462.794612,2080,1954,e
1788787462.7957199,2000,1820,e
1788787462.798091,1892,1885,e
1788787462.798351,2060,2486,e
1788787462.800735,2133,2432,e
1788787462.8023229,2160,2136,e
1788787462.804369,2087,1800,e
1788787462.8074508,2086,2068,e
1788787462.807619,2137,2104,e
1788787462.8105412,2069,1938,e
1788787462.815694,1930,1722,e
1788787462.818401,2009,2292,e
1788787462.818602,2066,2220,e
1788787462.818954,2127,2182,e
1788787462.82363,2096,2028,e
1788787462.8238878,2049,2209,e
1788787462.824181,2180,2301,e
1788787462.8264499,2113,1993,e
1788787462.829304,1990,2008,e
1788787462.8306859,1971,2069,e
1788787462.8320441,2071,2061,e
1788787462.8346848,2140,2196,e
1788787462.841723,2098,2000,e
1788787462.843023,2031,2168,e
1788787462.8436868,2187,2564,e
1788787462.8470201,2149,1908,e
1788787462.848135,2001,1732,e
1788787462.851674,1816,1892,e
1788787462.852046,2003,2380,e
1788787462.852302,2156,2315,e
1788787462.852635,2185,2174,e
1788787462.8559098,2091,1968,e
1788787462.856019,2109,2334,e
1788787462.859016,2159,2063,e
1788787462.864274,2085,1794,e
1788787462.864564,1927,1662,e
1788787462.867199,2029,2464,e
1788787462.8698812,2096,2354,e
1788787462.8721862,2146,2128,e
1788787462.87418,2058,1745,e
1788787462.875042,2053,2193,e
1788787462.875551,2168,2391,e
1788787462.878618,2100,1912,e
1788787462.87874,1983,1766,e
1788787462.8801138,1940,2190,e
1788787462.8816571,2077,2173,e
1788787462.884313,2201,2219,e
1788787462.885609,2143,2111,e
1788787462.895308,2056,2115,e
1788787462.9021518,2161,2434,e
1788787462.902619,2074,2079,e
1788787462.90299,1974,1807,e
1788787462.90657,1841,1773,e
1788787462.906677,2048,2265,e
1788787462.906865,2102,2364,e
1788787462.906977,2106,2175,e
1788787462.907064,1996,1899,e
1788787462.907212,2109,2218,e
1788787462.9086301,2183,2080,e
1788787462.910199,2120,1931,e
1788787462.9162738,1977,1644,e
1788787462.9201002,1992,2320,e
1788787462.920522,2051,2164,e
1788787462.923393,2165,2236,e
1788787462.925189,2138,1988,e
1788787462.9277608,2072,2177,e
1788787462.9282439,2145,2304,e
1788787462.92866,2116,1990,e
1788787462.9288902,1987,1803,e
1788787462.9319701,1936,2177,e
1788787462.932044,2033,2144,e
1788787462.934431,2189,2303,e
1788787462.935791,2137,2065,e
1788787462.938238,2032,1964,e
1788787462.944064,2185,2348,e
1788787462.945193,2080,1922,e
1788787462.945984,1976,1799,e
1788787462.9487529,1861,1942,e
1788787462.951103,2057,2384,e
1788787462.9518971,2156,2285,e
1788787462.95387,2158,2159,e
1788787462.956586,2080,1890,e
1788787462.9575522,2119,2352,e
1788787462.95821,2121,2123,e
1788787462.9611268,2051,1916,e
1788787462.962487,1958,1640,e
1788787462.96415,1994,2267,e
1788787462.97019,2059,2194,e
1788787462.970967,2124,2166,e
1788787462.9718149,2059,1963,e
1788787462.9758809,2125,2125,e
1788787462.976833,2166,2296,e
1788787462.9811609,2098,1989,e
1788787462.981441,1909,1950,e
1788787462.9818099,1916,2115,e
1788787462.982219,2104,2109,e
1788787462.985315,2206,2384,e
1788787462.98667,2129,1892,e
1788787462.988081,2024,1969,e
1788787462.989496,2069,2434,e
1788787462.992168,2137,1984,e
1788787462.9990232,2035,1909,e
1788787463.000889,1873,1890,e
1788787463.001099,2046,2213,e
1788787463.00387,2159,2360,e
1788787463.0041559,2140,2242,e
1788787463.004435,2038,2018,e
1788787463.007385,2146,2314,e
1788787463.009089,2211,2121,e
1788787463.012012,2121,1902,e
1788787463.0123289,1930,1676,e
1788787463.01583,2048,2260,e
1788787463.015908,2119,2263,e
1788787463.018543,2180,2164,e
1788787463.025054,2111,2010,e
1788787463.02638,2050,2269,e
1788787463.027073,2158,2295,e
1788787463.029254,2112,1798,e
1788787463.029661,1970,1817,e
1788787463.030019,1971,2290,e
1788787463.033911,2042,2239,e
1788787463.0342138,2147,2233,e
1788787463.0376902,2164,1969,e
1788787463.037979,1994,2279,e
1788787463.0413818,2187,2666,e
1788787463.041462,2100,2048,e
1788787463.044092,1988,1972,e
1788787463.04549,1896,1435,e
1788787463.0484831,2077,1943,e
1788787463.053947,2104,2472,e
1788787463.056473,2147,2242,e
1788787463.0586061,2082,1928,e
1788787463.059165,2110,2153,e
1788787463.0616078,2154,2052,e
1788787463.064151,2073,1912,e
1788787463.064354,1963,1775,e
1788787463.067498,2007,2469,e
1788787463.06781,2106,2310,e
1788787463.068192,2145,2259,e
1788787463.07185,2129,1924,e
1788787463.071937,2088,2070,e
1788787463.073434,2183,2266,e
1788787463.081169,2126,1820,e
1788787463.084419,1950,1927,e
1788787463.085056,1937,2226,e
1788787463.085224,2056,2075,e
1788787463.0854242,2107,2940,e
1788787463.0877912,2100,2187,e
1788787463.09332,2101,1158,e
1788787463.096896,2136,2220,e
1788787463.096999,2084,2010,e
1788787463.097056,2065,2113,e
1788787463.097111,1975,1856,e
1788787463.098516,2105,2117,e
1788787463.099905,2117,2213,e
1788787463.1025238,2148,2206,e
1788787463.103913,2094,2048,e
1788787463.111307,2132,2415,e
1788787463.113906,2154,2174,e
1788787463.114671,2074,1915,e
1788787463.117467,1996,1773,e
1788787463.1196642,2076,2397,e
1788787463.125964,2066,2202,e
1788787463.127052,2046,1946,e
1788787463.127318,2038,1888,e
1788787463.127455,2026,2194,e
1788787463.127611,2109,2557,e
1788787463.127934,2057,1831,e
1788787463.128056,1940,1464,e
1788787463.1298418,1945,2138,e
1788787463.136723,2177,2252,e
1788787463.137651,2348,2329,e
1788787463.1398752,2212,2339,e
1788787463.1431239,2086,1928,e
1788787463.144928,2121,2358,e
1788787463.148291,2109,2139,e
1788787463.1485271,1961,1989,e
1788787463.148729,1780,1660,e
1788787463.149227,1942,2401,e
1788787463.1521,2082,2313,e
1788787463.1524532,2048,2103,e
1788787463.153891,2071,1862,e
1788787463.156585,2138,2271,e
1788787463.157807,2219,2138,e
1788787463.1641889,2124,2011,e
1788787463.16835,1949,1636,e
1788787463.171135,1978,2325,e
1788787463.172568,2188,2105,e
1788787463.172807,2223,2496,e
1788787463.175432,1972,2008,e
1788787463.175738,1984,1998,e
1788787463.17619,2289,2186,e
1788787463.1764019,2209,1906,e
1788787463.179025,1991,1896,e
1788787463.180347,1981,2143,e
1788787463.182084,2071,2012,e
1788787463.1864572,2061,2143,e
1788787463.1879659,2125,2193,e
1788787463.188121,2094,2150,e
1788787463.191995,2073,2532,e
1788787463.1935518,2112,1954,e
1788787463.193883,2124,1790,e
1788787463.196552,1718,1862,e
1788787463.199414,1855,2386,e
1788787463.199467,2057,2971,e
1788787463.202035,2183,1892,e
1788787463.2033541,2088,1362,e
1788787463.210725,2104,2349,e
1788787463.2117739,2141,2327,e
1788787463.2133849,2055,1982,e
1788787463.2135522,2010,1764,e
1788787463.2153118,2198,2326,e
1788787463.2159739,2076,2045,e
1788787463.22003,2155,2239,e
1788787463.220296,2107,2013,e
1788787463.2231061,2019,2236,e
1788787463.224558,2127,2553,e
1788787463.225705,2076,2063,e
1788787463.228292,1876,1859,e
1788787463.233064,1910,1734,e
1788787463.2341728,2107,2213,e
1788787463.234773,2267,2354,e
1788787463.23681,2065,1919,e
1788787463.2387,2008,2279,e
1788787463.2431738,2157,2479,e
1788787463.24337,2071,2006,e
1788787463.243747,2062,1648,e
1788787463.246295,1850,1741,e
1788787463.2476149,2018,2510,e
1788787463.254726,2114,2300,e
1788787463.254943,2165,2166,e
1788787463.255477,2214,2029,e
1788787463.255619,2197,2211,e
1788787463.259072,2149,2004,e
1788787463.2608829,2055,1963,e
1788787463.263909,1822,1970,e
1788787463.264221,1965,2410,e
1788787463.266759,2084,2156,e
1788787463.268084,2122,1911,e
1788787463.269394,2101,2275,e
1788787463.2720032,2007,2200,e
1788787463.278035,2173,2322,e
1788787463.2793531,2177,1797,e
1788787463.281003,2017,1736,e
1788787463.281298,1981,2166,e
1788787463.2834308,1987,2282,e
1788787463.2847471,2081,2309,e
1788787463.2876391,2070,2143,e
1788787463.288088,2022,2130,e
1788787463.2908401,2193,2663,e
1788787463.292182,2153,1944,e
1788787463.293504,1914,1759,e
1788787463.295944,1850,1838,e
1788787463.3008058,2133,2462,e
1788787463.3018181,2208,2469,e
1788787463.302379,2145,2164,e
1788787463.304128,2037,1608,e
1788787463.307641,2019,2191,e
1788787463.311048,2122,2195,e
1788787463.311348,2080,1989,e
1788787463.311888,2003,1689,e
1788787463.314493,2041,2361,e
1788787463.315991,2096,2181,e
1788787463.3175948,2115,2436,e
1788787463.32367,2141,1874,e
1788787463.325509,2116,2015,e
1788787463.3277938,2109,2435,e
1788787463.332302,2108,1955,e
1788787463.332733,2059,1842,e
1788787463.333314,1906,2321,e
1788787463.333504,1966,2083,e
1788787463.3365178,2116,2187,e
1788787463.3366022,2107,1825,e
1788787463.337952,2042,2104,e
1788787463.339293,2159,2543,e
1788787463.3419242,2145,2070,e
1788787463.343429,2064,1808,e
1788787463.348788,1833,1711,e
1788787463.349504,2092,2342,e
1788787463.349834,2223,2476,e
1788787463.356079,2177,2092,e
1788787463.3593569,2004,1837,e
1788787463.3595252,2055,2379,e
1788787463.3599842,2123,2197,e
1788787463.360445,2076,1899,e
1788787463.363156,1935,1616,e
1788787463.363274,2037,2321,e
1788787463.370708,2150,2412,e
1788787463.3723361,2133,2158,e
1788787463.372583,2085,1941,e
1788787463.3743129,2085,2219,e
1788787463.3763268,2208,2413,e
1788787463.377069,2071,1999,e
1788787463.382244,1952,1631,e
1788787463.3826282,1945,2394,e
1788787463.3848472,2000,2195,e
1788787463.385708,2065,1958,e
1788787463.385778,2067,2018,e
1788787463.388434,2076,2102,e
1788787463.389805,2175,2548,e
1788787463.392468,2151,1966,e
1788787463.401837,2031,1823,e
1788787463.4022698,1941,1830,e
1788787463.402661,2100,2329,e
1788787463.404911,2116,2186,e
1788787463.410053,2141,2172,e
1788787463.410683,2076,2070,e
1788787463.41089,2098,2395,e
1788787463.411123,2193,2182,e
1788787463.414017,2044,1742,e
1788787463.414102,1870,1665,e
1788787463.414173,1914,2333,e
1788787463.415532,2047,2146,e
1788787463.421723,2185,2213,e
1788787463.4229288,2059,1964,e
1788787463.425337,2077,2474,e
1788787463.425602,2170,2081,e
1788787463.427735,2139,1656,e
1788787463.433334,2031,1998,e
1788787463.436627,1934,2102,e
1788787463.4369438,1983,2005,e
1788787463.437016,2181,2291,e
1788787463.437079,2224,2154,e
1788787463.4384599,2060,2153,e
1788787463.43981,2066,2422,e
1788787463.441345,2053,2099,e
1788787463.448013,1986,1673,e
1788787463.450752,1814,1810,e
1788787463.4524531,2108,2381,e
1788787463.455848,2124,2222,e
1788787463.459706,2081,2347,e
1788787463.460802,2053,2332,e
1788787463.463295,2066,1570,e
1788787463.463634,2183,1916,e
1788787463.463706,2069,2050,e
1788787463.463773,1973,1695,e
1788787463.4638348,2091,2296,e
1788787463.465238,2135,2189,e
1788787463.472773,2243,2246,e
1788787463.473894,2113,2019,e
1788787463.476353,2013,2160,e
1788787463.476712,2244,2446,e
1788787463.476963,2124,2082,e
1788787463.480913,1844,1827,e
1788787463.484767,1872,2093,e
1788787463.485271,2004,2153,e
1788787463.485645,2050,2223,e
1788787463.488412,2088,2168,e
1788787463.488749,2408,2085,e
1788787463.49005,2250,2255,e
1788787463.491454,1867,2031,e
1788787463.4940631,1860,1903,e
1788787463.498873,1857,1854,e
1788787463.502544,2112,2313,e
1788787463.505284,2182,2181,e
1788787463.510407,2184,2434,e
1788787463.5107672,1983,1801,e
1788787463.511307,2016,1875,e
1788787463.5138712,2203,2273,e
1788787463.514709,2257,2054,e
1788787463.5148082,2041,1606,e
1788787463.5148768,1994,2265,e
1788787463.516236,2018,2194,e
1788787463.5228102,1993,2279,e
1788787463.524672,2185,2081,e
1788787463.526738,2050,1743,e
1788787463.527137,2048,2362,e
1788787463.5274339,2035,2076,e
1788787463.529567,1981,1811,e
1788787463.5303612,1968,2062,e
1788787463.5328069,2033,2211,e
1788787463.5398889,2223,2223,e
1788787463.539974,2155,2122,e
1788787463.5400472,2016,2242,e
1788787463.5401092,2107,2332,e
1788787463.5414689,2174,2162,e
1788787463.54471,2131,1981,e
1788787463.54606,1969,1475,e
1788787463.5478458,2101,2258,e
1788787463.554049,2129,2395,e
1788787463.554793,1973,2143,e
1788787463.555551,1985,2148,e
1788787463.557804,2322,2043,e
1788787463.558126,2163,2054,e
1788787463.560879,1878,1967,e
1788787463.5625868,1721,1674,e
1788787463.56704,1932,2285,e
1788787463.567567,2135,2128,e
1788787463.5680299,2158,2194,e
1788787463.570432,2055,2009,e
1788787463.57179,1992,2196,e
1788787463.573141,2125,2364,e
1788787463.580584,2225,1953,e
1788787463.5810938,2050,1862,e
1788787463.584434,1966,2132,e
1788787463.588898,2105,2334,e
1788787463.5934222,2092,2058,e
1788787463.593894,2115,1993,e
1788787463.594253,2054,2090,e
1788787463.594956,2131,2434,e
1788787463.5982468,2134,2066,e
1788787463.5984561,1994,1900,e
1788787463.598635,1872,1851,e
1788787463.598698,2040,2297,e
1788787463.600426,2102,2177,e
1788787463.60178,2163,2079,e
1788787463.6032572,2227,2049,e
1788787463.611667,2127,2277,e
1788787463.614986,2056,2117,e
1788787463.61548,2021,2052,e
1788787463.618454,1968,1921,e
1788787463.6250088,2015,2106,e
1788787463.625175,2061,1695,e
1788787463.625557,2160,2296,e
1788787463.6262069,2126,2186,e
1788787463.629693,2133,2117,e
1788787463.62977,2116,2243,e
1788787463.6298308,2073,1892,e
1788787463.629893,2110,1708,e
1788787463.629954,2020,2288,e
1788787463.631285,1982,2377,e
1788787463.6379688,2129,2321,e
1788787463.638211,2155,2046,e
1788787463.638963,2008,1999,e
1788787463.639704,2036,2467,e
1788787463.644444,1993,1904,e
1788787463.650956,2065,1839,e
1788787463.651551,1900,1697,e
1788787463.651973,2034,2214,e
1788787463.652164,2136,2393,e
1788787463.652444,2144,2408,e
1788787463.65517,1988,2218,e
1788787463.656111,2088,2015,e
1788787463.65747,2159,1826,e
1788787463.660039,2072,1908,e
1788787463.661385,1931,1685,e
1788787463.668851,2006,2323,e
1788787463.670161,2099,2328,e
1788787463.67027,2172,2283,e
1788787463.672226,2096,1957,e
1788787463.672641,2063,2211,e
1788787463.677131,2193,2491,e
1788787463.67754,2129,2056,e
1788787463.681396,1971,1458,e
1788787463.6818051,1916,2029,e
1788787463.682078,2017,2272,e
1788787463.685308,2191,2324,e
1788787463.685378,2217,2012,e
1788787463.6880698,2010,2085,e
1788787463.6946921,2168,2468,e
1788787463.696529,2112,1992,e
1788787463.698803,1984,1873,e
1788787463.699141,1887,1829,e
1788787463.7018611,2040,2399,e
1788787463.7040782,2134,2266,e
1788787463.704494,2124,2172,e
1788787463.708899,2092,1908,e
1788787463.709292,2113,2146,e
1788787463.709842,2071,2024,e
1788787463.710248,2045,1921,e
1788787463.713661,1904,1758,e
1788787463.713744,1987,2265,e
1788787463.715116,2073,2258,e
1788787463.717791,2115,2192,e
1788787463.7191591,2067,1798,e
1788787463.722075,2166,2236,e
1788787463.727472,2154,2401,e
1788787463.729376,2150,2014,e
1788787463.7319071,1994,1627,e
1788787463.733865,1917,1968,e
1788787463.735357,2030,2237,e
1788787463.737186,2171,2318,e
1788787463.73756,2212,2132,e
1788787463.742014,2072,2048,e
1788787463.742346,2073,2406,e
1788787463.742785,2047,1938,e
1788787463.745698,2038,1862,e
1788787463.746083,1882,1843,e
1788787463.747447,2096,2412,e
1788787463.7555358,2063,2276,e
1788787463.759678,2086,2185,e
1788787463.761889,2109,1944,e
1788787463.762186,2123,2418,e
1788787463.766111,2165,2069,e
1788787463.7668731,2057,1680,e
1788787463.769869,2004,1724,e
1788787463.770282,2084,2400,e
1788787463.770399,2104,2213,e
1788787463.77047,2121,2109,e
1788787463.770535,2064,2005,e
1788787463.772074,2088,2167,e
1788787463.773494,2218,2367,e
1788787463.77613,2073,1910,e
1788787463.7822878,1935,1784,e
1788787463.7830908,1933,2068,e
1788787463.784199,2089,2211,e
1788787463.788759,2157,2303,e
1788787463.7951949,2174,2098,e
1788787463.7954218,2016,2029,e
1788787463.795555,2100,2446,e
1788787463.795876,2122,1983,e
1788787463.7960901,2048,1908,e
1788787463.796265,1883,1763,e
1788787463.798677,2039,2417,e
1788787463.8000891,2090,2366,e
1788787463.8014069,2130,2094,e
1788787463.809602,2035,1796,e
1788787463.809929,2023,2262,e
1788787463.8100889,2146,2176,e
1788787463.810226,2049,1869,e
1788787463.8118432,1957,1675,e
1788787463.8173718,2006,2291,e
1788787463.817673,2058,2207,e
1788787463.817942,2147,2186,e
1788787463.820767,2159,2031,e
1788787463.821976,2081,2189,e
1788787463.823453,2202,2394,e
1788787463.8260102,2136,1934,e
1788787463.82737,1983,1843,e
1788787463.8320708,2014,2108,e
1788787463.833571,2053,2136,e
1788787463.8352509,2052,2219,e
1788787463.835504,2067,2041,e
1788787463.838978,2045,1992,e
1788787463.8425238,2155,2464,e
1788787463.842815,2120,1941,e
1788787463.843223,1974,1807,e
1788787463.846028,1906,1780,e
1788787463.8473458,2038,2351,e
1788787463.853299,2112,2364,e
1788787463.8538141,2154,2177,e
1788787463.856617,2066,1956,e
1788787463.858316,2047,2199,e
1788787463.858453,2173,2093,e
1788787463.860225,2072,1871,e
1788787463.863939,1958,1631,e
1788787463.864311,2003,2295,e
1788787463.866799,2093,2262,e
1788787463.8681118,2196,2220,e
1788787463.869448,2146,1992,e
1788787463.871961,2105,2120,e
1788787463.877326,2180,2316,e
1788787463.877887,2132,1952,e
1788787463.880429,2005,1752,e
1788787463.880569,1913,2164,e
1788787463.8839328,2021,2229,e
1788787463.884182,2102,2270,e
1788787463.887891,2092,2094,e
1788787463.888222,2056,2011,e
1788787463.8909812,2215,2437,e
1788787463.891168,2121,2007,e
1788787463.897968,2005,1813,e
1788787463.8989298,1911,1719,e
1788787463.900519,2108,2308,e
1788787463.9019022,2179,2240,e
1788787463.902465,2144,2267,e
1788787463.904562,1999,1981,e
1788787463.908182,2050,2199,e
1788787463.908499,2100,2082,e
1788787463.9110668,2046,1897,e
1788787463.9113579,1937,1617,e
1788787463.913933,1999,2387,e
1788787463.915261,2045,2209,e
1788787463.921858,2139,2152,e
1788787463.922461,2165,1970,e
1788787463.925437,2151,2162,e
1788787463.9255848,2189,2381,e
1788787463.927029,2090,1915,e
1788787463.927532,1952,1742,e
1788787463.929208,1886,2110,e
1788787463.9327822,2015,2308,e
1788787463.935575,2135,2220,e
1788787463.9357162,2095,2070,e
1788787463.937048,2021,2005,e
1788787463.9427571,2144,2378,e
1788787463.9437928,2121,1926,e
1788787463.9446762,2035,1741,e
1788787463.946023,1916,1751,e
1788787463.9490502,2050,2353,e
1788787463.952618,2093,2291,e
1788787463.953032,2160,2096,e
1788787463.953324,2066,1920,e
1788787463.9615,2084,2198,e
1788787463.9621708,2093,1999,e
1788787463.962241,1996,1833,e
1788787463.962302,1915,1656,e
1788787463.963941,2005,2292,e
1788787463.986733,2071,2155,e
1788787463.9867961,2128,2190,e
1788787463.986887,2072,1969,e
1788787463.987016,2109,2126,e
1788787463.987096,2197,2301,e
1788787463.987167,2101,1959,e
1788787463.987235,1959,1789,e
1788787463.987296,1908,2113,e
1788787463.987356,2037,2225,e
1788787463.987415,2117,2257,e
1788787463.987473,2119,2049,e
1788787463.987533,2060,2016,e
1788787463.989026,2175,2486,e
1788787463.991789,2079,1968,e
1788787463.99329,1916,1848,e
1788787463.995945,1817,1842,e
1788787463.9978518,2060,2362,e
1788787463.999498,2235,2313,e
1788787464.002104,2184,2180,e
1788787464.003426,2065,1881,e
1788787464.006009,2099,2194,e
1788787464.012199,2213,2137,e
1788787464.0123992,2094,1898,e
1788787464.012928,1916,1611,e
1788787464.013579,2006,2300,e
1788787464.0157719,2046,2197,e
1788787464.018193,2161,2246,e
1788787464.023127,2056,2019,e
1788787464.023393,2010,2086,e
1788787464.023568,2160,2320,e
1788787464.026486,2105,1971,e
1788787464.0278091,1987,1707,e
1788787464.029122,2006,2081,e
1788787464.033771,2117,2144,e
1788787464.034701,2137,2255,e
1788787464.037579,2114,2020,e
1788787464.037685,2037,2102,e
1788787464.0400808,2130,2437,e
1788787464.041565,2072,1989,e
1788787464.045917,2027,1759,e
1788787464.046249,1872,1811,e
1788787464.049022,1956,2512,e
1788787464.049149,2080,2334,e
1788787464.052001,2128,2152,e
1788787464.053449,2110,1857,e
1788787464.064446,2124,2165,e
1788787464.065161,2197,2117,e
1788787464.067339,2082,1894,e
1788787464.0675719,1949,1669,e
1788787464.071456,1986,2310,e
1788787464.0719512,2100,2194,e
1788787464.072217,2191,2242,e
1788787464.0724978,2073,1964,e
1788787464.075546,2032,2145,e
1788787464.076173,2161,2291,e
1788787464.0762491,2138,1912,e
1788787464.077638,1981,1768,e
1788787464.08318,1948,2155,e
1788787464.083332,2072,2173,e
1788787464.084361,2138,2268,e
1788787464.088955,2093,2041,e
1788787464.090755,2031,2028,e
1788787464.0911,2153,2411,e
1788787464.094816,2123,1976,e
1788787464.0952058,2007,1825,e
1788787464.095458,1895,1835,e
1788787464.098575,2065,2351,e
1788787464.099921,2173,2260,e
1788787464.10112,2160,2134,e
1788787464.10378,2026,1907,e
1788787464.109937,2084,2227,e
1788787464.111661,2172,2110,e
1788787464.113463,2034,1880,e
1788787464.113921,1893,1668,e
1788787464.1154099,2003,2316,e
1788787464.116609,2082,2203,e
1788787464.121797,2153,2195,e
1788787464.122539,2097,2036,e
1788787464.122873,2073,2148,e
1788787464.123211,2178,2369,e
1788787464.126548,2052,1939,e
1788787464.1278982,1948,1752,e
1788787464.1293702,1945,2178,e
1788787464.133782,2058,2190,e
1788787464.136082,2124,2312,e
1788787464.137919,2133,2062,e
1788787464.138293,2039,2039,e
1788787464.142486,2152,2459,e
1788787464.1462688,2112,1981,e
1788787464.146576,2000,1823,e
1788787464.146881,1892,1849,e
1788787464.147365,2055,2351,e
1788787464.150086,2119,2313,e
1788787464.151476,2145,2150,e
1788787464.152859,2055,1938,e
1788787464.1553621,2071,2205,e
1788787464.157152,2166,2094,e
1788787464.162111,2061,1881,e
1788787464.162336,1925,1693,e
1788787464.1655538,1992,2337,e
1788787464.1657522,2063,2210,e
1788787464.167485,2145,2193,e
1788787464.1734378,2096,2017,e
1788787464.173693,2083,2163,e
1788787464.17415,2171,2308,e
1788787464.176787,2087,1952,e
1788787464.177141,1976,1776,e
1788787464.179732,1929,2166,e
1788787464.186025,2058,2196,e
1788787464.1885178,2152,2258,e
1788787464.1907651,2097,2082,e
1788787464.191584,2067,2053,e
1788787464.193202,2150,2423,e
1788787464.193511,2130,1972,e
1788787464.1937861,2035,1841,e
1788787464.19751,1901,1810,e
1788787464.1977851,2059,2387,e
1788787464.200629,2132,2295,e
1788787464.202,2141,2150,e
1788787464.203449,2063,1936,e
1788787464.2048562,2101,2229,e
1788787464.213365,2144,2089,e
1788787464.2158668,2047,1888,e
1788787464.218668,1908,1701,e
1788787464.220617,1994,2339,e
1788787464.225025,2076,2191,e
1788787464.225496,2147,2192,e
1788787464.2258072,2111,1998,e
1788787464.226393,2073,2173,e
1788787464.226727,2160,2318,e
1788787464.229805,2092,1981,e
1788787464.2299478,1970,1792,e
1788787464.2300181,1919,2173,e
1788787464.231361,2055,2179,e
1788787464.2417269,2128,2262,e
1788787464.243839,2114,2069,e
1788787464.244215,2052,2065,e
1788787464.2444868,2152,2477,e
1788787464.244951,2116,1960,e
1788787464.2471108,2020,1914,e
1788787464.249414,1874,1814,e
1788787464.253661,2058,2367,e
1788787464.254037,2129,2313,e
1788787464.2543428,2145,2204,e
1788787464.25473,2060,1969,e
1788787464.2550201,2085,2207,e
1788787464.258492,2140,2099,e
1788787464.2598479,2050,1895,e
1788787464.2611892,1914,1613,e
1788787464.263813,2002,2351,e
1788787464.265412,2100,2205,e
1788787464.272117,2149,2202,e
1788787464.273453,2079,1983,e
1788787464.275585,2079,2160,e
1788787464.276049,2162,2297,e
1788787464.278152,2095,1947,e
1788787464.279098,1968,1801,e
1788787464.280742,1934,2221,e
1788787464.28111,2068,2158,e
1788787464.2852879,2146,2273,e
1788787464.285782,2117,2090,e
1788787464.2893991,2055,2067,e
1788787464.289461,2159,2456,e
1788787464.290878,2126,1982,e
1788787464.297952,2019,1858,e
1788787464.301625,1892,1854,e
1788787464.303596,2057,2393,e
1788787464.304439,2115,2292,e
1788787464.30528,2137,2143,e
1788787464.307148,2060,1935,e
1788787464.311239,2101,2244,e
1788787464.31162,2147,2112,e
1788787464.312007,2056,1891,e
1788787464.3123982,1898,1688,e
1788787464.315032,1989,2319,e
1788787464.3159559,2085,2208,e
1788787464.317323,2140,2197,e
1788787464.3199801,2087,1995,e
1788787464.321425,2066,2170,e
1788787464.322817,2169,2300,e
1788787464.328741,2089,1969,e
1788787464.32907,1974,1797,e
1788787464.329889,1933,2157,e
1788787464.3336651,2057,2186,e
1788787464.3383129,2138,2256,e
1788787464.3431501,2116,2079,e
1788787464.343616,2055,2054,e
1788787464.343997,2138,2448,e
1788787464.344486,2120,1976,e
1788787464.344814,2027,1843,e
1788787464.3453639,1900,1845,e
1788787464.3481789,2059,2362,e
1788787464.349752,2125,2309,e
1788787464.351177,2135,2157,e
1788787464.357635,2051,1934,e
1788787464.358488,2096,2233,e
1788787464.359147,2137,2088,e
1788787464.359939,2049,1897,e
1788787464.362601,1902,1689,e
1788787464.364888,1993,2329,e
1788787464.367167,2080,2201,e
1788787464.36741,2136,2192,e
1788787464.3719711,2088,1991,e
1788787464.3725288,2067,2187,e
1788787464.375838,2172,2318,e
1788787464.376194,2097,1964,e
1788787464.377538,1981,1776,e
1788787464.3789299,1934,2177,e
1788787464.381516,2064,2181,e
1788787464.383268,2149,2244,e
1788787464.389757,2127,2076,e
1788787464.3932512,2061,2072,e
1788787464.3957171,2169,2434,e
1788787464.398099,2120,1963,e
1788787464.402446,2017,1846,e
1788787464.403009,1888,1854,e
1788787464.403347,2061,2365,e
1788787464.403628,2121,2298,e
1788787464.404144,2147,2156,e
1788787464.406775,2064,1944,e
1788787464.4076202,2113,2229,e
1788787464.408011,2155,2094,e
1788787464.4092422,2067,1928,e
1788787464.41588,1916,1658,e
1788787464.416624,2002,2342,e
1788787464.4182951,2092,2159,e
1788787464.4204118,2153,2193,e
1788787464.420987,2100,2008,e
1788787464.4232268,2071,2166,e
1788787464.425615,2176,2307,e
1788787464.429513,2088,1953,e
1788787464.4298298,1989,1798,e
1788787464.430012,1933,2152,e
1788787464.433194,2064,2193,e
1788787464.433463,2135,2282,e
1788787464.4349,2129,2054,e
1788787464.437561,2062,2039,e
1788787464.439075,2141,2432,e
1788787464.44651,2116,1969,e
1788787464.44981,2020,1840,e
1788787464.4501262,1881,1822,e
1788787464.459253,2048,2356,e
1788787464.462097,2130,2301,e
1788787464.462188,2157,2166,e
1788787464.46227,2059,1937,e
1788787464.462338,2085,2226,e
1788787464.4624472,2148,2078,e
1788787464.462581,2061,1875,e
1788787464.462649,1913,1695,e
1788787464.462718,1997,2311,e
1788787464.4656022,2101,2222,e
1788787464.470068,2154,2223,e
1788787464.475101,2105,1961,e
1788787464.475442,2081,2150,e
1788787464.477676,2185,2334,e
1788787464.4801888,2098,1947,e
1788787464.486743,1998,1784,e
1788787464.4876502,1938,2171,e
1788787464.4877381,2071,2185,e
1788787464.487803,2138,2250,e
1788787464.4878662,2101,2059,e
1788787464.48793,2052,2043,e
1788787464.489275,2127,2455,e
1788787464.4910011,2111,1973,e
1788787464.4936361,2012,1866,e
1788787464.4991739,1895,1830,e
1788787464.500194,2051,2360,e
1788787464.502391,2105,2312,e
1788787464.5025349,2130,2142,e
1788787464.505069,2058,1921,e
1788787464.510101,2096,2260,e
1788787464.510519,2148,2082,e
1788787464.5107698,2055,1865,e
1788787464.51096,1894,1685,e
1788787464.513011,1992,2323,e
1788787464.51562,2066,2226,e
1788787464.519438,2157,2203,e
1788787464.520459,2089,2001,e
1788787464.525185,2092,2171,e
1788787464.527135,2170,2304,e
1788787464.5273018,2093,1969,e
1788787464.5275571,1978,1772,e
1788787464.530817,1937,2177,e
1788787464.533188,2071,2179,e
1788787464.533943,2135,2266,e
1788787464.5353222,2130,2077,e
1788787464.5366971,2051,2061,e
1788787464.5394602,2139,2449,e
1788787464.5408561,2104,1989,e
1788787464.5485902,2022,1846,e
1788787464.548738,1904,1846,e
1788787464.548915,2061,2351,e
1788787464.5492291,2127,2306,e
1788787464.550792,2134,2146,e
1788787464.555834,2047,1958,e
1788787464.555997,2092,2269,e
1788787464.558806,2141,2035,e
1788787464.558862,2048,1875,e
1788787464.561666,1881,1666,e
1788787464.565815,1993,2308,e
1788787464.566444,2074,2230,e
1788787464.5690398,2148,2191,e
1788787464.5707772,2098,1992,e
1788787464.5714052,2072,2149,e
1788787464.576038,2170,2289,e
1788787464.576204,2069,1979,e
1788787464.578885,1958,1795,e
1788787464.579087,1939,2188,e
1788787464.581704,2048,2173,e
1788787464.5830169,2119,2261,e
1788787464.5893419,2076,2054,e
1788787464.5923562,2042,2076,e
1788787464.59256,2160,2452,e
1788787464.592741,2102,1983,e
1788787464.592927,2001,1850,e
1788787464.5962958,1889,1860,e
1788787464.5995882,2064,2370,e
1788787464.599808,2112,2301,e
1788787464.6024,2146,2140,e
1788787464.603735,2061,1925,e
1788787464.609376,2081,2246,e
1788787464.609886,2146,2073,e
1788787464.6104362,2059,1867,e
1788787464.6125052,1926,1719,e
1788787464.6155891,2000,2349,e
1788787464.618849,2077,2200,e
1788787464.619021,2131,2180,e
1788787464.619241,2094,2019,e
1788787464.622048,2066,2167,e
1788787464.623379,2180,2309,e
1788787464.624676,2096,1956,e
1788787464.627271,1976,1766,e
1788787464.632618,1928,2155,e
1788787464.633271,2072,2176,e
1788787464.63417,2152,2262,e
1788787464.636349,2131,2086,e
1788787464.645143,2064,2059,e
1788787464.645236,2156,2442,e
1788787464.645303,2130,1982,e
1788787464.6453671,2013,1830,e
1788787464.645427,1902,1859,e
1788787464.6467998,2060,2373,e
1788787464.6494489,2116,2311,e
1788787464.650798,2131,2155,e
1788787464.660011,2083,1942,e
1788787464.660367,2093,2241,e
1788787464.660806,2151,2087,e
1788787464.6645498,2072,1888,e
1788787464.668171,1925,1687,e
1788787464.6686468,2000,2341,e
1788787464.668843,2091,2203,e
1788787464.668988,2146,2179,e
1788787464.669307,2100,1989,e
1788787464.672278,2080,2161,e
1788787464.673646,2176,2300,e
1788787464.679531,2087,1958,e
1788787464.68261,1968,1780,e
1788787464.683233,1943,2174,e
1788787464.6850529,2068,2184,e
1788787464.6863942,2139,2253,e
1788787464.688016,2127,2075,e
1788787464.688301,2050,2060,e
1788787464.692035,2153,2445,e
1788787464.692406,2126,1962,e
1788787464.695304,2013,1826,e
1788787464.695383,1895,1860,e
1788787464.6967292,2046,2372,e
1788787464.6992419,2110,2296,e
1788787464.700703,2160,2141,e
1788787464.7092211,2062,1930,e
1788787464.7116082,2102,2249,e
1788787464.711829,2111,2090,e
1788787464.715829,2067,1907,e
1788787464.7192461,1933,1676,e
1788787464.720151,2016,2312,e
1788787464.720605,2102,2265,e
1788787464.7246861,2156,2195,e
1788787464.724781,2090,1983,e
1788787464.724847,2088,2155,e
1788787464.724909,2126,2328,e
1788787464.72497,2071,1973,e
1788787464.727498,2000,1699,e
1788787464.732556,1934,2147,e
1788787464.7342231,2064,2181,e
1788787464.736702,2177,2294,e
1788787464.739309,2172,2064,e
1788787464.74108,2021,2037,e
1788787464.7448251,2116,2436,e
1788787464.745087,2123,1977,e
1788787464.745225,2048,1855,e
1788787464.745375,1918,1868,e
1788787464.7474182,2067,2379,e
1788787464.7487822,2071,2286,e
1788787464.751416,2115,2130,e
1788787464.752768,2089,1958,e
1788787464.759354,2101,2286,e
1788787464.762923,2132,2217,e
1788787464.764931,2100,1928,e
1788787464.767067,1827,1694,e
1788787464.767387,2032,2297,e
1788787464.771116,2145,2120,e
1788787464.771703,2158,2228,e
1788787464.774494,2104,2037,e
1788787464.775557,2054,2104,e
1788787464.775687,2212,2116,e
1788787464.775767,2125,2060,e
1788787464.777249,1971,1952,e
1788787464.781375,2002,2004,e
1788787464.7851148,2028,2214,e
1788787464.78563,2121,2323,e
1788787464.7872,2069,2118,e
1788787464.789829,1967,2279,e
1788787464.793244,2197,2477,e
1788787464.793466,2133,1791,e
1788787464.7936451,1975,1643,e
1788787464.796505,1804,2051,e
1788787464.7968798,2025,2286,e
1788787464.799575,2046,2184,e
1788787464.800952,2282,2258,e
1788787464.803882,2047,1826,e
1788787464.8099232,2182,2183,e
1788787464.8121111,2087,2081,e
1788787464.812345,2034,1951,e
1788787464.816277,1890,1670,e
1788787464.819835,2005,2324,e
1788787464.820221,2095,2259,e
1788787464.820522,2141,2270,e
1788787464.820723,2110,2018,e
1788787464.8212638,2033,2112,e
1788787464.8241339,2185,2293,e
1788787464.825535,2130,2002,e
1788787464.831507,1927,1906,e
1788787464.837955,1931,2314,e
1788787464.841537,2124,2055,e
1788787464.842328,2201,2233,e
1788787464.842756,2091,2050,e
1788787464.843078,1961,2006,e
1788787464.843297,2147,2486,e
1788787464.8456042,2119,1924,e
1788787464.846451,2057,1914,e
1788787464.846745,1967,1900,e
1788787464.847105,2060,2360,e
1788787464.848615,2082,2256,e
1788787464.851277,2107,2104,e
1788787464.8526468,2060,1829,e
1788787464.860476,2108,2080,e
1788787464.861268,2229,2064,e
1788787464.8620281,2112,1899,e
1788787464.864618,1917,1656,e
1788787464.866669,1990,2495,e
1788787464.867973,2131,2204,e
1788787464.869639,2174,1982,e
1788787464.8741891,2034,1955,e
1788787464.87493,2048,2309,e
1788787464.87536,2182,2474,e
1788787464.875499,2003,1809,e
1788787464.87838,1963,1728,e
1788787464.87872,1962,2013,e
1788787464.881366,2117,2044,e
1788787464.8883278,2188,2364,e
1788787464.889136,2262,2238,e
1788787464.889855,2240,2309,e
1788787464.8926961,2109,2635,e
1788787464.892971,2061,1703,e
1788787464.8945339,1971,1606,e
1788787464.895929,1809,1957,e
1788787464.901509,1962,2592,e
1788787464.9020002,2026,2212,e
1788787464.902433,2065,2094,e
1788787464.902699,2082,2071,e
1788787464.9060018,2107,2092,e
1788787464.907449,2192,2093,e
1788787464.908826,2047,2133,e
1788787464.911507,1978,1780,e
1788787464.912868,2058,2326,e
1788787464.921456,2155,2252,e
1788787464.9235961,2176,2120,e
1788787464.928069,2099,1816,e
1788787464.9322162,2026,2147,e
1788787464.932595,2056,2714,e
1788787464.933104,2177,2042,e
1788787464.933583,2103,1301,e
1788787464.93393,1992,2272,e
1788787464.9367769,1986,2214,e
1788787464.9373848,2056,2330,e
1788787464.937448,2104,2115,e
1788787464.937522,2145,1984,e
1788787464.9389079,2073,2523,e
1788787464.945973,2104,2014,e
1788787464.947254,2080,2116,e
1788787464.949148,2021,1840,e
1788787464.949514,2190,1993,e
1788787464.951911,2192,2357,e
1788787464.952808,2096,2163,e
1788787464.954612,2052,2068,e
1788787464.955034,2020,2035,e
1788787464.959187,2133,1865,e
1788787464.959679,2142,1770,e
1788787464.962789,1957,1819,e
1788787464.963179,1924,2401,e
1788787464.964544,2138,2132,e
1788787464.967171,2054,2286,e
1788787464.968532,1983,1947,e
1788787464.975785,2102,2224,e
1788787464.977161,2258,2332,e
1788787464.97849,2099,2149,e
1788787464.981038,2040,1712,e
1788787464.981323,1965,1526,e
1788787464.9817789,2018,2274,e
1788787464.983854,2240,2580,e
1788787464.9862552,2270,2164,e
1788787464.990547,2143,1963,e
1788787464.990884,2155,2206,e
1788787464.991292,2013,1876,e
1788787464.9945889,1880,2118,e
1788787464.994661,1845,1925,e
1788787464.9974852,2269,2258,e
1788787465.004158,2460,2292,e
1788787465.005564,1944,2332,e
1788787465.007675,1774,2001,e
1788787465.00792,2077,2140,e
1788787465.008229,2145,2281,e
1788787465.009877,2087,1979,e
1788787465.0165162,1877,1436,e
1788787465.017149,1999,2520,e
1788787465.0174909,2051,2280,e
1788787465.0177028,2077,2095,e
1788787465.0212312,2201,1981,e
1788787465.0213199,2267,2198,e
1788787465.022722,2319,2698,e
1788787465.025415,2132,2102,e
1788787465.026819,1955,1663,e
1788787465.033988,1919,2025,e
1788787465.0356,2038,1882,e
1788787465.038292,2043,2428,e
1788787465.038621,2063,2075,e
1788787465.03905,2108,1947,e
1788787465.0435898,2190,2265,e
1788787465.044093,2281,2190,e
1788787465.04434,2218,2040,e
1788787465.048477,1859,1495,e
1788787465.048962,1842,2651,e
1788787465.0515242,2118,2339,e
1788787465.052553,2201,2073,e
1788787465.052626,2073,1985,e
1788787465.055319,2151,2326,e
1788787465.0607831,2116,2082,e
1788787465.0626152,2051,2039,e
1788787465.065005,1930,1935,e
1788787465.065349,1927,2256,e
1788787465.066879,2175,2211,e
1788787465.069898,2389,2297,e
1788787465.0703201,2354,1686,e
1788787465.074712,2248,2247,e
1788787465.075136,2016,2201,e
1788787465.0755131,1830,1685,e
1788787465.078641,1850,1847,e
1788787465.0787132,1758,2260,e
1788787465.081339,2051,2242,e
1788787465.0826821,2019,2488,e
1788787465.092494,2026,2102,e
1788787465.0945458,2046,2045,e
1788787465.0948632,2159,2847,e
1788787465.096852,2192,1400,e
1788787465.098978,2182,1756,e
1788787465.1029708,2298,2153,e
1788787465.1039512,2251,2691,e
1788787465.1043048,2153,1795,e
1788787465.104695,2107,1584,e
1788787465.107956,1857,2091,e
1788787465.108018,1780,2394,e
1788787465.108068,1978,2139,e
1788787465.1094,2069,1811,e
1788787465.115547,1882,1553,e
1788787465.116139,1922,2359,e
1788787465.1181052,2094,2573,e
1788787465.118321,2278,2167,e
1788787465.1186318,2031,1977,e
1788787465.125637,2058,2371,e
1788787465.125799,2380,2641,e
1788787465.126049,2204,1444,e
1788787465.128889,2004,1709,e
1788787465.1289442,1913,2362,e
1788787465.131386,1825,2113,e
1788787465.132705,2082,2221,e
1788787465.135301,2109,1882,e
1788787465.141975,2005,2167,e
1788787465.144091,2125,2624,e
1788787465.1443021,2211,1906,e
1788787465.1465678,2051,2085,e
1788787465.1481721,1859,1629,e
1788787465.1514812,2076,2128,e
1788787465.152336,2153,2554,e
1788787465.154436,2142,2291,e
1788787465.155265,2058,1989,e
1788787465.155522,2155,2297,e
1788787465.156969,2207,2112,e
1788787465.161691,2051,2053,e
1788787465.162299,1885,1841,e
1788787465.163265,1975,2019,e
1788787465.165471,2108,2209,e
1788787465.168841,2251,2181,e
1788787465.172341,2093,2220,e
1788787465.1725729,2019,2213,e
1788787465.175169,2207,2231,e
1788787465.1758468,2104,1960,e
1788787465.1771882,1924,1835,e
1788787465.178504,1857,2522,e
1788787465.181078,2056,2118,e
1788787465.186118,2150,2581,e
1788787465.186687,2082,1877,e
1788787465.187296,2112,1456,e
1788787465.1902888,2103,2978,e
1788787465.192211,2148,2226,e
1788787465.197354,2101,1142,e
1788787465.1979089,1887,1942,e
1788787465.1982841,1975,2382,e
1788787465.1984708,2129,3180,e
1788787465.201555,2174,1757,e
1788787465.203399,2207,1188,e
1788787465.209187,1991,2694,e
1788787465.210903,1893,2275,e
1788787465.211199,1972,1825,e
1788787465.2113721,1953,1592,e
1788787465.2134988,2081,2364,e
1788787465.2180638,2182,2128,e
1788787465.2183611,2211,2280,e
1788787465.218699,2122,2104,e
1788787465.2212899,2172,2439,e
1788787465.222852,2269,2497,e
1788787465.224874,2067,1929,e
1788787465.22766,2011,1606,e
1788787465.231787,1950,2083,e
1788787465.2322402,2087,1930,e
1788787465.234926,2095,2233,e
1788787465.23516,2079,2382,e
1788787465.237601,1949,2158,e
1788787465.239084,2080,2309,e
1788787465.247964,2153,1994,e
1788787465.276803,2139,1802,e
1788787465.27697,1935,1595,e
1788787465.277039,2026,2488,e
1788787465.277168,2098,2403,e
1788787465.277247,2125,2380,e
1788787465.277388,2214,1912,e
1788787465.277445,2134,2163,e
1788787465.277539,2186,2220,e
1788787465.27761,2015,1881,e
1788787465.2776792,1875,1603,e
1788787465.277744,2026,2442,e
1788787465.277806,2198,2378,e
1788787465.2778702,2243,2161,e
1788787465.2779331,2103,2040,e
1788787465.277994,1937,2107,e
1788787465.278123,2047,2292,e
1788787465.278173,2219,2149,e
1788787465.2782211,2006,1733,e
1788787465.279567,2115,2746,e
1788787465.28127,2177,1658,e
1788787465.282851,2116,1631,e
1788787465.2854211,1976,2224,e
1788787465.2869198,2024,2197,e
1788787465.2884538,2169,2470,e
1788787465.291101,2091,1923,e
1788787465.292371,1952,1901,e
1788787465.295019,1706,1875,e
1788787465.304492,2009,2685,e
1788787465.3068779,2140,2021,e
1788787465.3072362,2083,2252,e
1788787465.309406,2043,2025,e
1788787465.31895,2196,2275,e
1788787465.325703,2291,2203,e
1788787465.32862,2130,1733,e
1788787465.329033,1814,1585,e
1788787465.329322,1975,2495,e
1788787465.3319092,2042,1939,e
1788787465.3376708,2138,2442,e
1788787465.33819,2115,2433,e
1788787465.338804,2025,2107,e
1788787465.34187,2178,2234,e
1788787465.341969,2220,1919,e
1788787465.342036,2030,1678,e
1788787465.342108,1970,2100,e
1788787465.3422,2100,2230,e
1788787465.3423018,2098,2429,e
1788787465.3424158,2043,2021,e
1788787465.342514,2000,2168,e
1788787465.342589,2195,2393,e
1788787465.342656,2163,2030,e
1788787465.34272,2068,1920,e
1788787465.3453372,1870,1687,e
1788787465.346671,2025,2358,e
1788787465.353724,2141,2348,e
1788787465.3576698,2210,2377,e
1788787465.35815,1860,2165,e
1788787465.3585339,2064,2072,e
1788787465.3606908,2177,2065,e
1788787465.362663,2064,2238,e
1788787465.362884,1913,1563,e
1788787465.3694909,2020,2028,e
1788787465.369615,2155,2158,e
1788787465.369715,2297,2569,e
1788787465.369789,2170,2196,e
1788787465.3711438,1999,1928,e
1788787465.3764448,2045,1776,e
1788787465.37669,1990,2195,e
1788787465.3784661,1912,1749,e
1788787465.3807669,1906,2240,e
1788787465.3832378,1969,2178,e
1788787465.3854709,2052,2087,e
1788787465.389418,2123,2139,e
1788787465.3897998,2061,2193,e
1788787465.390379,2233,2596,e
1788787465.390765,2350,2270,e
1788787465.3929338,1960,1645,e
1788787465.394924,1929,1834,e
1788787465.396342,2026,2231,e
1788787465.398914,2144,2210,e
1788787465.4049761,2153,2445,e
1788787465.405856,2119,1899,e
1788787465.406542,2074,2558,e
1788787465.4086988,2147,1953,e
1788787465.408946,2126,1444,e
1788787465.412798,1806,1646,e
1788787465.41314,1885,2452,e
1788787465.417088,2068,2346,e
1788787465.4174058,2105,2291,e
1788787465.420189,2091,2055,e
1788787465.4205408,2067,2020,e
1788787465.423181,2170,2359,e
1788787465.427449,2095,1917,e
1788787465.429148,2017,1839,e
1788787465.431917,1900,2254,e
1788787465.432265,2054,2185,e
1788787465.43387,2167,2197,e
1788787465.4368918,2106,1959,e
1788787465.4407449,2048,2336,e
1788787465.4412549,2178,2222,e
1788787465.441707,2115,2126,e
1788787465.444536,2137,2247,e
1788787465.444818,1919,1210,e
1788787465.4475,2027,2304,e
1788787465.448884,2156,2503,e
1788787465.450379,2170,2162,e
1788787465.457317,2039,1792,e
1788787465.46065,2025,2303,e
1788787465.463134,2166,2362,e
1788787465.468595,2084,1877,e
1788787465.469114,1895,1468,e
1788787465.469433,2040,2493,e
1788787465.4696262,2002,2264,e
1788787465.469861,2097,2143,e
1788787465.473496,2057,1944,e
1788787465.473856,1984,2112,e
1788787465.4739258,2166,2432,e
1788787465.475286,2039,2169,e
1788787465.476651,2034,1566,e
1788787465.4821389,2025,1996,e
1788787465.487189,2177,2313,e
1788787465.48783,2418,2379,e
1788787465.492913,2087,2272,e
1788787465.4933078,1949,2074,e
1788787465.493686,2204,2367,e
1788787465.4940429,2128,1783,e
1788787465.4944792,1934,1467,e
1788787465.494891,1814,2038,e
1788787465.497888,2049,2591,e
1788787465.4990752,2121,2733,e
1788787465.500422,2054,1916,e
1788787465.5030642,1992,1600,e
1788787465.508855,2174,2100,e
1788787465.5094678,2220,2454,e
1788787465.510735,2057,1920,e
1788787465.512746,1915,1528,e
1788787465.512906,1922,2396,e
1788787465.515887,2193,2402,e
1788787465.517537,2183,2248,e
1788787465.522275,2051,2148,e
1788787465.522812,1982,2005,e
1788787465.523263,2146,2328,e
1788787465.525857,2096,1914,e
1788787465.5272079,1955,1596,e
1788787465.528543,1967,2037,e
1788787465.5350962,2060,2259,e
1788787465.53584,2078,2270,e
1788787465.5383701,2103,2250,e
1788787465.53874,2112,1842,e
1788787465.538995,2238,2366,e
1788787465.541315,2156,2131,e
1788787465.547987,2040,1945,e
1788787465.548366,1922,1899,e
1788787465.548938,2099,2277,e
1788787465.549336,2234,2320,e
1788787465.552215,2169,2268,e
1788787465.552715,2003,1746,e
1788787465.555407,2141,2198,e
1788787465.5569532,2246,2231,e
1788787465.558364,2029,1972,e
1788787465.566516,1791,1664,e
1788787465.568626,1843,2265,e
1788787465.568935,1984,2237,e
1788787465.569453,2148,2224,e
1788787465.569819,2083,1910,e
1788787465.571627,2078,2195,e
1788787465.573746,2228,2534,e
1788787465.578144,2021,2130,e
1788787465.578721,1960,1301,e
1788787465.578937,2031,2005,e
1788787465.581407,2140,2648,e
1788787465.582762,2184,2058,e
1788787465.584198,2050,1835,e
1788787465.591331,2034,2159,e
1788787465.592028,2181,2542,e
1788787465.5921438,2055,2044,e
1788787465.593427,2045,1878,e
1788787465.59569,1936,1713,e
1788787465.5979772,1940,2278,e
1788787465.6003609,2042,2443,e
1788787465.604987,2084,2138,e
1788787465.60541,2065,1862,e
1788787465.6058218,2098,2315,e
1788787465.609289,2139,2150,e
1788787465.60941,2049,1890,e
1788787465.610752,1904,1651,e
1788787465.6121778,2140,2352,e
1788787465.615047,2263,2154,e
1788787465.616416,2099,2273,e
1788787465.623184,2031,2050,e
1788787465.624439,2066,2088,e
1788787465.624745,2155,2403,e
1788787465.626969,2023,1857,e
1788787465.628911,1900,1587,e
1788787465.630253,1796,2060,e
1788787465.6319208,2030,2248,e
1788787465.636641,2161,2377,e
1788787465.637038,2128,2115,e
1788787465.6376588,2084,2009,e
1788787465.640974,2260,2502,e
1788787465.64106,2232,1982,e
1788787465.64242,1969,1763,e
1788787465.649267,1849,1759,e
1788787465.650911,2102,2462,e
1788787465.651742,2160,2344,e
1788787465.653971,2154,2125,e
1788787465.6542861,2065,1882,e
1788787465.654499,2076,2278,e
1788787465.656514,2144,2080,e
1788787465.663098,2002,1838,e
1788787465.663336,1842,1604,e
1788787465.6638389,2001,2409,e
1788787465.66734,2103,2238,e
1788787465.667487,2144,2125,e
1788787465.668833,2141,1912,e
1788787465.670183,2071,2151,e
1788787465.672839,2164,2515,e
1788787465.674192,2130,1925,e
1788787465.680321,2030,1744,e
1788787465.6841788,1930,2095,e
1788787465.684525,2035,2070,e
1788787465.687339,2110,2323,e
1788787465.690071,2083,2143,e
1788787465.694923,2016,2052,e
1788787465.695165,2150,2414,e
1788787465.695648,2123,1883,e
1788787465.695966,2037,1735,e
1788787465.6965299,1917,1766,e
1788787465.696804,2072,2366,e
1788787465.700041,2138,2336,e
1788787465.7001522,2122,2164,e
1788787465.703029,2041,1865,e
1788787465.708937,2108,2226,e
1788787465.7107751,2185,2034,e
1788787465.7129211,2061,1829,e
1788787465.71329,1902,1602,e
1788787465.713701,2017,2309,e
1788787465.716491,2063,2253,e
1788787465.718137,2133,2215,e
1788787465.7228649,2085,1959,e
1788787465.724064,2105,2132,e
1788787465.7244182,2198,2313,e
1788787465.727403,2088,1910,e
1788787465.727787,1936,1662,e
1788787465.729137,1931,2138,e
1788787465.730468,2066,2231,e
1788787465.7330801,2145,2364,e
1788787465.7344499,2106,1987,e
1788787465.7438788,2009,1934,e
1788787465.744179,2114,2378,e
1788787465.7463171,2118,1924,e
1788787465.748611,2034,1731,e
1788787465.7488582,1924,1750,e
1788787465.754019,2088,2439,e
1788787465.75711,2099,2404,e
1788787465.7574852,2135,2158,e
1788787465.757694,2069,1929,e
1788787465.7579021,2096,2252,e
1788787465.7580612,2140,2107,e
1788787465.758347,2036,1871,e
1788787465.7695181,1906,1623,e
1788787465.769977,1990,2334,e
1788787465.770126,2088,2196,e
1788787465.774671,2164,2214,e
1788787465.778898,2068,1995,e
1788787465.779356,2086,2145,e
1788787465.7798028,2175,2331,e
1788787465.7802749,2071,1882,e
1788787465.782579,1977,1701,e
1788787465.783344,1949,2167,e
1788787465.783625,2069,2194,e
1788787465.783684,2154,2274,e
1788787465.785093,2136,2050,e
1788787465.786481,2058,1997,e
1788787465.789259,2141,2481,e
1788787465.794743,2088,1939,e
1788787465.795937,2000,1772,e
1788787465.7967181,1869,1744,e
1788787465.799646,1999,2421,e
1788787465.800112,2094,2298,e
1788787465.800313,2095,2143,e
1788787465.8028271,2036,1872,e
1788787465.804785,2118,2200,e
1788787465.80921,2173,2021,e
1788787465.8094342,2054,1812,e
1788787465.812597,1844,1618,e
1788787465.812939,1991,2287,e
1788787465.8142579,2104,2208,e
1788787465.820999,2137,2134,e
1788787465.821582,2051,1967,e
1788787465.823842,2018,2143,e
1788787465.8262131,2114,2289,e
1788787465.82783,2041,1855,e
1788787465.831399,1935,1643,e
1788787465.831739,1927,2108,e
1788787465.8319721,2038,2263,e
1788787465.832205,2110,2273,e
1788787465.834702,2093,1961,e
1788787465.836015,2064,2048,e
1788787465.8385868,2180,2488,e
1788787465.8454552,2115,1879,e
1788787465.846555,2000,1772,e
1788787465.8486762,1922,1776,e
1788787465.848808,2049,2476,e
1788787465.8491032,2103,2334,e
1788787465.852271,2161,2135,e
1788787465.852476,2058,1909,e
1788787465.856149,2083,2324,e
1788787465.8569129,2161,2177,e
1788787465.859584,2064,1771,e
1788787465.8609128,1934,1497,e
1788787465.8625522,2042,2336,e
1788787465.8675132,2078,2303,e
1788787465.8680692,2151,2159,e
1788787465.8700259,2131,1812,e
1788787465.871794,2088,2177,e
1788787465.877512,2159,2374,e
1788787465.87779,2026,2035,e
1788787465.8783832,1919,1722,e
1788787465.8785422,1940,2174,e
1788787465.880928,2048,2277,e
1788787465.882276,2129,2329,e
1788787465.884865,2117,2073,e
1788787465.8862221,2045,1978,e
1788787465.8921611,2119,2425,e
1788787465.8927412,2127,1961,e
1788787465.893697,2058,1745,e
1788787465.8953311,1955,1822,e
1788787465.8975308,2051,2398,e
1788787465.902525,2154,2329,e
1788787465.902855,2145,2108,e
1788787465.9030988,2050,1910,e
1788787465.905667,2114,2156,e
1788787465.9070468,2173,2085,e
1788787465.911948,2077,1905,e
1788787465.912148,1887,1619,e
1788787465.913595,2002,2360,e
1788787465.9157388,2070,2218,e
1788787465.917831,2122,2148,e
1788787465.923637,2044,1915,e
1788787465.923927,2050,2143,e
1788787465.924136,2192,2427,e
1788787465.9243531,2126,1957,e
1788787465.92709,1892,1666,e
1788787465.928412,1937,2111,e
1788787465.930997,2120,2208,e
1788787465.9323058,2170,2300,e
1788787465.937675,2127,2045,e
1788787465.938337,2058,2112,e
1788787465.939268,2159,2346,e
1788787465.940983,2121,1775,e
1788787465.94283,2049,1869,e
1788787465.944606,1883,1879,e
1788787465.9482298,2059,2370,e
1788787465.948488,2116,2309,e
1788787465.9508522,2159,2086,e
1788787465.952323,2077,1897,e
1788787465.9549189,2107,2235,e
1788787465.956629,2148,2098,e
1788787465.970111,2071,1811,e
1788787465.9733582,1932,1598,e
1788787465.973577,2043,2411,e
1788787465.973737,2076,2253,e
1788787465.9738219,2033,2164,e
1788787465.9738932,2079,1944,e
1788787465.973957,2152,2139,e
1788787465.9740212,2211,2286,e
1788787465.97411,2074,1927,e
1788787465.976715,1969,1721,e
1788787465.9780328,1971,2142,e
1788787465.987241,2101,2170,e
1788787465.991161,2154,2248,e
1788787465.995167,2131,2011,e
1788787465.995413,2069,2026,e
1788787465.995841,2167,2448,e
1788787465.996605,2113,2007,e
1788787465.999205,1993,1807,e
1788787465.999413,1894,1837,e
1788787465.999639,2091,2337,e
1788787465.999703,2165,2333,e
1788787466.001085,2152,2115,e
1788787466.002928,2072,1919,e
1788787466.010751,2095,2290,e
1788787466.011169,2116,2063,e
1788787466.013738,2033,1852,e
1788787466.0189052,1889,1649,e
1788787466.019298,1993,2352,e
1788787466.0194528,2114,2192,e
1788787466.019692,2156,2180,e
1788787466.020108,2069,1998,e
1788787466.020597,2047,2156,e
1788787466.023339,2143,2325,e
1788787466.024719,2090,1929,e
1788787466.026067,1983,1738,e
1788787466.028703,1917,2168,e
1788787466.0300002,2050,2246,e
1788787466.035907,2132,2279,e
1788787466.0374882,2110,2033,e
1788787466.0392818,2047,2056,e
1788787466.039606,2162,2431,e
1788787466.042083,2129,1928,e
1788787466.043678,2008,1796,e
1788787466.048257,1886,1860,e
1788787466.050425,2046,2379,e
1788787466.051179,2115,2305,e
1788787466.0512562,2124,2139,e
1788787466.052659,2058,1921,e
1788787466.061124,2104,2260,e
1788787466.063306,2158,2072,e
1788787466.063645,2056,1900,e
1788787466.066134,1915,1675,e
1788787466.0678651,1996,2328,e
1788787466.071811,2098,2206,e
1788787466.0722508,2157,2195,e
1788787466.072709,2093,2014,e
1788787466.073007,2079,2138,e
1788787466.0733461,2188,2293,e
1788787466.076069,2103,1944,e
1788787466.076378,1984,1762,e
1788787466.079011,1945,2174,e
1788787466.080374,2065,2188,e
1788787466.0875032,2141,2258,e
1788787466.090291,2116,2058,e
1788787466.0906198,2067,2071,e
1788787466.090851,2168,2446,e
1788787466.092893,2104,1967,e
1788787466.0931158,2004,1829,e
1788787466.0988858,1892,1864,e
1788787466.0996501,2055,2374,e
1788787466.100014,2132,2320,e
1788787466.102894,2145,2130,e
1788787466.102977,2074,1941,e
1788787466.104352,2102,2323,e
1788787466.1116679,2160,2063,e
1788787466.114174,2057,1869,e
1788787466.11455,1916,1708,e
1788787466.116357,2009,2348,e
1788787466.117137,2088,2248,e
1788787466.118678,2138,2210,e
1788787466.118885,2094,1985,e
1788787466.123486,2073,2172,e
1788787466.1255438,2173,2309,e
1788787466.126265,2095,1963,e
1788787466.126517,1972,1783,e
1788787466.129249,1943,2194,e
1788787466.130603,2069,2201,e
1788787466.131989,2144,2264,e
1788787466.143012,2125,2079,e
1788787466.146875,2068,2084,e
1788787466.153445,2170,2441,e
1788787466.153728,2120,1993,e
1788787466.1538,2023,1850,e
1788787466.1538649,1908,1884,e
1788787466.153926,2059,2389,e
1788787466.1539872,2127,2323,e
1788787466.154048,2150,2162,e
1788787466.154109,2050,1932,e
1788787466.154169,2099,2281,e
1788787466.160446,2133,2090,e
1788787466.1626601,2043,1896,e
1788787466.169426,1904,1683,e
1788787466.169933,2001,2351,e
1788787466.174527,2090,2210,e
1788787466.174911,2144,2161,e
1788787466.175683,2091,1945,e
1788787466.1788092,2076,2198,e
1788787466.1792169,2175,2319,e
1788787466.179316,2089,1947,e
1788787466.179378,1967,1781,e
1788787466.179444,1950,2178,e
1788787466.1808069,2063,2187,e
1788787466.182173,2127,2303,e
1788787466.184799,2103,2073,e
1788787466.186411,2047,2073,e
1788787466.193701,2164,2412,e
1788787466.19457,2115,1985,e
1788787466.1947331,2008,1832,e
1788787466.197226,1890,1878,e
1788787466.197661,2060,2352,e
1788787466.202156,2130,2287,e
1788787466.206592,2144,2136,e
1788787466.2073479,2046,1933,e
1788787466.207656,2099,2258,e
1788787466.2079968,2146,2039,e
1788787466.20843,2048,1894,e
1788787466.2114801,1885,1683,e
1788787466.212875,2002,2309,e
1788787466.214218,2085,2155,e
1788787466.222591,2147,2251,e
1788787466.226028,2084,2027,e
1788787466.2280672,2052,2186,e
1788787466.229055,2159,2249,e
1788787466.234777,2086,1952,e
1788787466.235522,1961,1769,e
1788787466.238508,1938,2176,e
1788787466.239624,2053,2188,e
1788787466.240011,2144,2255,e
1788787466.240793,2118,2042,e
1788787466.2411919,2059,2080,e
1788787466.2414799,2166,2435,e
1788787466.2415628,2127,1971,e
1788787466.243124,2009,1811,e
1788787466.244554,1897,1884,e
1788787466.245908,2070,2379,e
1788787466.252177,2133,2313,e
1788787466.252992,2138,2128,e
1788787466.256345,2061,1916,e
1788787466.256657,2115,2270,e
1788787466.2569249,2152,2068,e
1788787466.25981,2058,1884,e
1788787466.26001,1899,1687,e
1788787466.265602,2004,2356,e
1788787466.265974,2079,2211,e
1788787466.266196,2139,2181,e
1788787466.269578,2092,1998,e
1788787466.270988,2080,2148,e
1788787466.272356,2172,2300,e
1788787466.279331,2083,1948,e
1788787466.280229,1946,1763,e
1788787466.280865,1952,2182,e
1788787466.2830021,2086,2183,e
1788787466.284859,2158,2237,e
1788787466.285534,2128,2059,e
1788787466.287966,2044,2117,e
1788787466.292253,2154,2435,e
1788787466.292604,2115,1959,e
1788787466.292795,2017,1786,e
1788787466.2965682,1887,1903,e
1788787466.2966452,2064,2361,e
1788787466.297997,2119,2296,e
1788787466.300645,2137,2131,e
1788787466.302015,2051,1941,e
1788787466.309271,2102,2288,e
1788787466.3099608,2156,2044,e
1788787466.311292,2060,1861,e
1788787466.313376,1911,1708,e
1788787466.31377,1994,2352,e
1788787466.316502,2083,2237,e
1788787466.3167932,2141,2176,e
1788787466.318489,2077,1997,e
1788787466.322635,2069,2158,e
1788787466.323037,2162,2289,e
1788787466.326441,2070,1963,e
1788787466.326608,1961,1780,e
1788787466.328008,1952,2181,e
1788787466.336847,2079,2202,e
1788787466.3391922,2158,2251,e
1788787466.3395042,2133,2057,e
1788787466.3397188,2066,2081,e
1788787466.340071,2178,2446,e
1788787466.342342,2139,1961,e
1788787466.342679,2031,1794,e
1788787466.3491468,1902,1910,e
1788787466.3496351,2060,2356,e
1788787466.350077,2125,2292,e
1788787466.350432,2144,2129,e
1788787466.3543491,2061,1901,e
1788787466.354466,2102,2269,e
1788787466.3559942,2144,2127,e
1788787466.358737,2036,1826,e
1788787466.3601742,1897,1679,e
1788787466.369289,1992,2361,e
1788787466.369995,2068,2235,e
1788787466.37198,2142,2173,e
1788787466.3722181,2076,1984,e
1788787466.3727648,2077,2192,e
1788787466.375057,2180,2276,e
1788787466.377221,2097,1963,e
1788787466.37758,1962,1757,e
1788787466.3821938,1945,2212,e
1788787466.3856928,2065,2172,e
1788787466.3861928,2153,2248,e
1788787466.386283,2117,2050,e
1788787466.386383,2061,2089,e
1788787466.389083,2138,2429,e
1788787466.395433,2081,1961,e
1788787466.396213,1981,1825,e
1788787466.3987358,1875,1905,e
1788787466.398952,2034,2357,e
1788787466.401768,2123,2290,e
1788787466.4035819,2123,2135,e
1788787466.407875,2031,1942,e
1788787466.408583,2084,2277,e
1788787466.408982,2121,2031,e
1788787466.4120672,2054,1867,e
1788787466.412132,1922,1664,e
1788787466.412183,1995,2366,e
1788787466.4147651,2069,2217,e
1788787466.4160872,2117,2179,e
1788787466.418794,2071,1978,e
1788787466.425226,2069,2148,e
1788787466.4265769,2166,2309,e
1788787466.42901,2079,1968,e
1788787466.431605,1945,1760,e
1788787466.433921,1945,2199,e
1788787466.437414,2060,2182,e
1788787466.437558,2135,2257,e
1788787466.437749,2102,2058,e
1788787466.4379609,2041,2097,e
1788787466.4382179,2142,2446,e
1788787466.441022,2090,1977,e
1788787466.442353,2013,1827,e
1788787466.448046,1886,1876,e
1788787466.448631,2051,2350,e
1788787466.449537,2116,2289,e
1788787466.453415,2129,2121,e
1788787466.454342,2056,1907,e
1788787466.459827,2095,2284,e
1788787466.460074,2142,2077,e
1788787466.460325,2034,1839,e
1788787466.4604669,1906,1671,e
1788787466.46289,2016,2358,e
1788787466.464204,2078,2209,e
1788787466.466796,2130,2201,e
1788787466.46811,2094,1973,e
1788787466.4747689,2073,2194,e
1788787466.477101,2186,2273,e
1788787466.4772549,2083,1948,e
1788787466.477566,1953,1791,e
1788787466.4808772,1941,2208,e
1788787466.481133,2063,2163,e
1788787466.484472,2140,2219,e
1788787466.4847329,2126,2081,e
1788787466.48793,2078,2089,e
1788787466.48802,2179,2460,e
1788787466.4948668,2120,1956,e
1788787466.495504,2018,1807,e
1788787466.496026,1891,1870,e
1788787466.496665,2081,2349,e
1788787466.4986959,2124,2326,e
1788787466.50089,2141,2127,e
1788787466.502354,2053,1933,e
1788787466.506459,2095,2270,e
1788787466.508597,2141,2011,e
1788787466.5093162,2049,1866,e
1788787466.510646,1897,1699,e
1788787466.5119622,2000,2348,e
1788787466.514529,2092,2224,e
1788787466.516053,2150,2195,e
1788787466.521909,2099,1971,e
1788787466.535408,2082,2161,e
1788787466.5354722,2166,2253,e
1788787466.537448,2089,1959,e
1788787466.537503,1958,1767,e
1788787466.53756,1950,2206,e
1788787466.537605,2082,2190,e
1788787466.537647,2158,2250,e
1788787466.537688,2111,2066,e
1788787466.5380712,2064,2083,e
1788787466.538183,2168,2438,e
1788787466.54009,2125,1969,e
1788787466.574666,2013,1830,e
1788787466.578172,1906,1896,e
1788787466.578439,2069,2359,e
1788787466.578639,2135,2308,e
1788787466.578799,2134,2110,e
1788787466.579005,2049,1928,e
1788787466.5794492,2083,2297,e
1788787466.581418,2134,2054,e
1788787466.582047,2057,1866,e
1788787466.582311,1891,1668,e
1788787466.5823622,1975,2339,e
1788787466.58241,2124,2245,e
1788787466.582454,2137,2187,e
1788787466.582498,2079,1996,e
1788787466.5825431,2070,2120,e
1788787466.582588,2180,2316,e
1788787466.582633,2092,1945,e
1788787466.582677,1982,1763,e
1788787466.58272,1962,2184,e
1788787466.582765,2075,2144,e
1788787466.582808,2157,2258,e
1788787466.584141,2119,2081,e
1788787466.593225,2062,2163,e
1788787466.593698,2147,2417,e
1788787466.5960598,2107,1888,e
1788787466.601183,1997,1736,e
1788787466.602006,1894,1979,e
1788787466.602348,2037,2412,e
1788787466.604717,2107,2288,e
1788787466.604942,2138,2103,e
1788787466.605846,2060,1925,e
1788787466.605932,2112,2285,e
1788787466.6060412,2145,2024,e
1788787466.608736,2037,1860,e
1788787466.6100821,1882,1704,e
1788787466.619456,2005,2373,e
1788787466.622423,2085,2261,e
1788787466.6273558,2140,2335,e
1788787466.6278179,2057,2091,e
1788787466.6285079,2132,1929,e
1788787466.628961,2184,2086,e
1788787466.631385,2085,2038,e
1788787466.63147,1963,1841,e
1788787466.631534,1951,2240,e
1788787466.6316302,2041,2142,e
1788787466.631735,2123,2236,e
1788787466.6346931,2124,1930,e
1788787466.640424,2032,2039,e
1788787466.643349,2147,2590,e
1788787466.643919,2105,2019,e
1788787466.6509418,2005,1792,e
1788787466.651618,1904,1843,e
1788787466.651985,2073,2389,e
1788787466.652283,2094,2331,e
1788787466.654463,2089,2133,e
1788787466.6552489,2076,1846,e
1788787466.6553411,2144,2271,e
1788787466.6566908,2122,2103,e
1788787466.658093,2069,1858,e
1788787466.6608682,1945,1714,e
1788787466.6678889,2013,2357,e
1788787466.672004,2107,2186,e
1788787466.6724029,2170,2079,e
1788787466.673096,2046,1982,e
1788787466.677977,2035,2302,e
1788787466.6785438,2190,2337,e
1788787466.6787899,2097,1943,e
1788787466.67916,1944,1700,e
1788787466.6793659,1922,2282,e
1788787466.682204,2030,2266,e
1788787466.6822872,2229,2346,e
1788787466.683737,2202,1817,e
1788787466.693423,2053,2088,e
1788787466.700624,2053,2574,e
1788787466.701354,2031,1751,e
1788787466.701935,2088,2090,e
1788787466.704758,1945,1854,e
1788787466.705608,2019,2102,e
1788787466.705958,2087,2344,e
1788787466.706032,2086,2245,e
1788787466.7060962,2150,1915,e
1788787466.7061892,2230,2318,e
1788787466.706252,2102,2001,e
1788787466.708918,2105,1940,e
1788787466.7102652,1924,1825,e
1788787466.719996,2010,2308,e
1788787466.720421,2009,2468,e
1788787466.722212,2153,2063,e
1788787466.725059,2148,1558,e
1788787466.725373,2003,2213,e
1788787466.7289119,2086,2529,e
1788787466.7316532,2094,2091,e
1788787466.7325718,1989,1593,e
1788787466.732647,2017,1973,e
1788787466.7327108,2117,2021,e
1788787466.732773,2151,2353,e
1788787466.734112,2054,2155,e
1788787466.740742,2043,2039,e
1788787466.742924,2158,2604,e
1788787466.7456782,2088,2035,e
1788787466.7505689,2013,1582,e
1788787466.7511969,1885,1867,e
1788787466.751564,1996,2354,e
1788787466.751942,2033,2404,e
1788787466.7525,2213,2140,e
1788787466.755376,2109,2073,e
1788787466.755463,2168,2309,e
1788787466.7568262,2275,2159,e
1788787466.758187,2060,1964,e
1788787466.760819,1963,1166,e
1788787466.76543,2024,2498,e
1788787466.76657,2140,2354,e
1788787466.767654,2083,2791,e
1788787466.769713,2034,2137,e
1788787466.770278,1983,1351,e
1788787466.772154,2151,1827,e
1788787466.777941,2071,2253,e
1788787466.7783449,1910,2037,e
1788787466.778684,1968,2311,e
1788787466.781908,2134,2145,e
1788787466.782187,2223,2197,e
1788787466.785099,2219,2062,e
1788787466.790711,2057,2206,e
1788787466.792181,2265,2533,e
1788787466.794726,2197,2215,e
1788787466.795012,1951,2004,e
1788787466.795347,1878,1923,e
1788787466.799318,2060,1937,e
1788787466.799482,2320,2078,e
1788787466.803691,2149,2210,e
1788787466.804082,1970,2010,e
1788787466.804396,2083,2307,e
1788787466.807863,2081,2102,e
1788787466.807959,1951,1986,e
1788787466.810434,1827,1766,e
1788787466.811774,1948,2646,e
1788787466.814334,2125,2062,e
1788787466.821085,2172,1388,e
1788787466.821281,1976,1989,e
1788787466.822077,2097,2233,e
1788787466.825186,2330,2414,e
1788787466.825727,2141,1930,e
1788787466.827446,1919,1707,e
1788787466.82817,2342,2083,e
1788787466.834317,2190,2435,e
1788787466.835003,1802,2454,e
1788787466.835279,1867,1866,e
1788787466.838997,2070,2161,e
1788787466.839361,2272,2493,e
1788787466.8407319,2121,1978,e
1788787466.842114,1902,1842,e
1788787466.84882,1793,1637,e
1788787466.8495061,2010,2436,e
1788787466.852225,2151,2527,e
1788787466.8525782,2208,2427,e
1788787466.853013,2180,1742,e
1788787466.855339,2237,2019,e
1788787466.857823,2112,2093,e
1788787466.862207,2041,1789,e
1788787466.8624718,2248,1821,e
1788787466.86296,2263,2400,e
1788787466.86603,1954,2166,e
1788787466.866127,2137,2606,e
1788787466.868791,2239,1948,e
1788787466.870154,2163,1953,e
1788787466.8716018,2144,1946,e
1788787466.878734,2148,2162,e
1788787466.8807821,2086,1951,e
1788787466.883882,1697,2363,e
1788787466.884346,1634,1880,e
1788787466.8888571,1830,1908,e
1788787466.889292,2250,2032,e
1788787466.8934348,1919,2372,e
1788787466.8936682,1974,2664,e
1788787466.8969128,1988,2020,e
1788787466.897119,2423,1813,e
1788787466.897254,2375,1713,e
1788787466.897377,2007,2222,e
1788787466.898771,1818,2708,e
1788787466.908747,2119,1967,e
1788787466.909154,2114,1915,e
1788787466.911509,2111,2885,e
1788787466.9117372,2006,2000,e
1788787466.914072,1973,1669,e
1788787466.914552,1867,1262,e
1788787466.9191082,2223,2324,e
1788787466.919592,2292,2273,e
1788787466.922936,2285,2264,e
1788787466.923002,2257,2099,e
1788787466.923075,2229,2283,e
1788787466.9231281,2277,2248,e
1788787466.924927,1726,1923,e
1788787466.926285,1515,1750,e
1788787466.927692,1782,2215,e
1788787466.937741,2232,2317,e
1788787466.942971,2434,2778,e
1788787466.944711,2193,1507,e
1788787466.949044,1891,1936,e
1788787466.949575,2156,2752,e
1788787466.9501162,2399,2299,e
1788787466.950453,2147,2078,e
1788787466.9528131,1956,1725,e
1788787466.953822,2041,1754,e
1788787466.954417,1992,2348,e
1788787466.954489,2050,2248,e
1788787466.9545522,1996,1732,e
1788787466.954613,2296,2506,e
1788787466.955963,2154,2111,e
1788787466.962954,1937,1731,e
1788787466.963739,1787,2025,e
1788787466.968519,1898,2431,e
1788787466.9692538,2233,2150,e
1788787466.9725409,2282,2421,e
1788787466.972801,2111,1616,e
1788787466.977,2379,2146,e
1788787466.978,2470,2701,e
1788787466.978118,1961,1788,e
1788787466.9806578,1835,1398,e
1788787466.9815838,1878,2270,e
1788787466.98166,2309,2691,e
1788787466.9817522,2334,2469,e
1788787466.9844391,1901,1972,e
1788787466.9858618,1660,1978,e
1788787466.988381,2133,2528,e
1788787466.9950001,2217,1899,e
1788787466.995851,2088,1544,e
1788787466.9991071,1832,1539,e
1788787466.999451,2052,2468,e
1788787466.999688,2121,2370,e
1788787467.001934,2129,2151,e
1788787467.002819,2098,1951,e
1788787467.005054,2384,2535,e
1788787467.009608,2615,2290,e
1788787467.010098,2032,1866,e
1788787467.010539,1561,1629,e
1788787467.0137348,1791,2435,e
1788787467.013835,2042,2805,e
1788787467.0165062,2135,2387,e
1788787467.0232892,1936,1126,e
1788787467.0272279,1919,1868,e
1788787467.0311308,2049,2688,e
1788787467.0313349,2164,2135,e
1788787467.035897,2013,1827,e
1788787467.0361621,2097,2322,e
1788787467.036574,2327,2089,e
1788787467.0371552,2257,2009,e
1788787467.037524,1935,2302,e
1788787467.037744,1955,2176,e
1788787467.0409448,2158,2570,e
1788787467.041089,2211,1915,e
1788787467.0423481,2012,1723,e
1788787467.0437171,1898,1572,e
1788787467.046391,1991,2514,e
1788787467.047767,2089,2328,e
1788787467.054122,2175,2205,e
1788787467.056077,2081,2042,e
1788787467.059808,2045,2339,e
1788787467.062468,2059,2210,e
1788787467.0648,1989,2408,e
1788787467.069469,1981,935,e
1788787467.069729,2093,2062,e
1788787467.070281,2134,2469,e
1788787467.07072,2240,2368,e
1788787467.0709429,2165,1715,e
1788787467.0713441,2183,2105,e
1788787467.074902,2055,2357,e
1788787467.0760372,1892,1688,e
1788787467.0761201,1954,1825,e
1788787467.07894,1944,2298,e
1788787467.0856278,1999,2251,e
1788787467.0865002,2201,2327,e
1788787467.0893812,2107,2140,e
1788787467.092012,2084,2201,e
1788787467.094506,2268,2459,e
1788787467.0947042,2508,2002,e
1788787467.0992398,1964,1957,e
1788787467.1002371,1549,1666,e
1788787467.1030002,1897,2354,e
1788787467.104031,2032,2389,e
1788787467.10416,2287,1999,e
1788787467.10427,2500,1786,e
1788787467.1043499,2070,2746,e
1788787467.105531,1852,2404,e
1788787467.108184,1874,1065,e
1788787467.109568,1576,1667,e
1788787467.118506,1852,2514,e
1788787467.121208,2038,2316,e
1788787467.1258209,2095,2140,e
1788787467.126165,1965,1909,e
1788787467.126387,2075,2169,e
1788787467.130666,2157,2322,e
1788787467.131145,2000,2253,e
1788787467.1319702,2072,2115,e
1788787467.132428,2158,1587,e
1788787467.1356192,2091,2020,e
1788787467.136091,2239,2650,e
1788787467.136225,2147,2215,e
1788787467.136365,1789,1457,e
1788787467.137721,1917,2142,e
1788787467.1467671,2110,2211,e
1788787467.149472,2146,1810,e
1788787467.151329,2067,1988,e
1788787467.15464,2163,2486,e
1788787467.154917,2222,2559,e
1788787467.1552372,2221,2701,e
1788787467.160029,1871,1252,e
1788787467.163479,1964,2012,e
1788787467.163876,2065,2268,e
1788787467.163968,2044,1924,e
1788787467.164022,1912,1523,e
1788787467.164072,1942,2314,e
1788787467.1641228,2035,2115,e
1788787467.16548,2088,2285,e
1788787467.168132,2056,1940,e
1788787467.169504,2084,2307,e
1788787467.177304,2166,2464,e
1788787467.17813,2131,1886,e
1788787467.1792798,2004,1703,e
1788787467.181112,2024,2285,e
1788787467.1812239,2071,2136,e
1788787467.183254,2195,2235,e
1788787467.189431,2176,2158,e
1788787467.189902,1976,2128,e
1788787467.19028,2114,2363,e
1788787467.193133,2107,2125,e
1788787467.193803,1948,1946,e
1788787467.193991,1871,1678,e
1788787467.196597,2007,2713,e
1788787467.2026,2060,2383,e
1788787467.203255,2122,1528,e
1788787467.204551,2075,1963,e
1788787467.20656,2144,2054,e
1788787467.208578,2202,2132,e
1788787467.2093592,2087,2060,e
1788787467.2111669,2048,1503,e
1788787467.215155,2119,2295,e
1788787467.215322,2117,2219,e
1788787467.2156281,2057,2347,e
1788787467.2182531,1920,2025,e
1788787467.219593,1938,2186,e
1788787467.222193,2134,2468,e
1788787467.223594,2039,2058,e
1788787467.228768,1875,1697,e
1788787467.229464,1878,1893,e
1788787467.230549,2060,2338,e
1788787467.232668,2107,2643,e
1788787467.236098,2146,2187,e
1788787467.236354,2056,1437,e
1788787467.240694,2372,2664,e
1788787467.2430542,2315,2105,e
1788787467.243725,1961,1492,e
1788787467.243953,1673,1728,e
1788787467.246637,1976,2318,e
1788787467.2511091,2096,2376,e
1788787467.252566,2161,2210,e
1788787467.25425,2093,2027,e
1788787467.2544022,2121,2483,e
1788787467.258068,2140,2116,e
1788787467.258237,2079,1719,e
1788787467.261894,1909,1661,e
1788787467.262225,2047,2322,e
1788787467.2649758,2172,2154,e
1788787467.266305,2173,2668,e
1788787467.267641,1968,1793,e
1788787467.2704608,1936,1641,e
1788787467.276031,2138,2591,e
1788787467.277577,2097,2227,e
1788787467.2796109,1981,1604,e
1788787467.2799401,2017,2065,e
1788787467.2801821,2196,2202,e
1788787467.283875,2154,2283,e
1788787467.28773,2136,2071,e
1788787467.28796,2052,2028,e
1788787467.288182,2133,2753,e
1788787467.29113,2105,1913,e
1788787467.2924569,1934,1753,e
1788787467.293856,1934,1987,e
1788787467.299714,2176,2380,e
1788787467.301872,2225,1990,e
1788787467.3022962,2163,2268,e
1788787467.3044832,2132,2223,e
1788787467.305933,2126,2258,e
1788787467.3095958,1953,1641,e
1788787467.310762,2155,1860,e
1788787467.3111491,2036,1745,e
1788787467.313729,1863,2394,e
1788787467.313785,1939,2265,e
1788787467.3164318,2100,2070,e
1788787467.3178,2081,1980,e
1788787467.3256269,2068,2279,e
1788787467.33704,2158,2488,e
1788787467.337816,2008,2055,e
1788787467.338377,2023,1786,e
1788787467.341096,2058,2332,e
1788787467.3413918,2026,1926,e
1788787467.341463,2028,1983,e
1788787467.341525,2079,2210,e
1788787467.34159,2145,1973,e
1788787467.341651,2272,2676,e
1788787467.3417118,2127,1884,e
1788787467.341772,1923,1510,e
1788787467.351562,1812,2003,e
1788787467.352042,2039,2422,e
1788787467.3524811,2216,2332,e
1788787467.354551,2311,2288,e
1788787467.356812,2108,1973,e
1788787467.360954,2009,2205,e
1788787467.361461,2098,2002,e
1788787467.361876,2131,1880,e
1788787467.3648279,2059,1408,e
1788787467.364921,2018,2380,e
1788787467.3649862,1978,2355,e
1788787467.366355,2041,2323,e
1788787467.367742,1940,1902,e
1788787467.3704362,2016,2226,e
1788787467.371976,2166,2455,e
1788787467.377457,2063,1814,e
1788787467.380179,1960,1679,e
1788787467.38067,1904,2034,e
1788787467.3809059,2042,2336,e
1788787467.383287,2212,2274,e
1788787467.385073,2185,2122,e
1788787467.389157,2174,1949,e
1788787467.389452,2259,2483,e
1788787467.390059,2092,1984,e
1788787467.392909,1989,1782,e
1788787467.394539,1881,1843,e
1788787467.405377,2087,2447,e
1788787467.411009,2129,2707,e
1788787467.41183,2030,1932,e
1788787467.4121778,1893,1809,e
1788787467.412467,2126,2212,e
1788787467.4154081,2182,2087,e
1788787467.415487,2063,1916,e
1788787467.41555,1848,1667,e
1788787467.415616,2021,2305,e
1788787467.4156768,2152,2152,e
1788787467.415738,2194,2115,e
1788787467.418488,2088,2059,e
1788787467.41984,2021,2167,e
1788787467.427447,2135,2384,e
1788787467.427615,2080,1994,e
1788787467.428871,1899,1818,e
1788787467.431479,1893,2474,e
1788787467.4355772,2105,2148,e
1788787467.439758,2218,2324,e
1788787467.440468,2298,1895,e
1788787467.442792,2100,1920,e
1788787467.4435909,2030,2724,e
1788787467.443661,1969,1884,e
1788787467.443723,2002,1659,e
1788787467.443784,1859,1921,e
1788787467.4466612,2001,2303,e
1788787467.454601,2039,2232,e
1788787467.4549,2061,2223,e
1788787467.456956,2102,2002,e
1788787467.462833,2158,2333,e
1788787467.463167,2193,2063,e
1788787467.463433,2137,1848,e
1788787467.46386,1987,1644,e
1788787467.464115,2143,2357,e
1788787467.46449,2209,2263,e
1788787467.4673338,2098,2248,e
1788787467.467413,1931,2205,e
1788787467.47008,1964,1937,e
1788787467.471467,2205,2104,e
1788787467.478962,2088,1963,e
1788787467.4797828,1949,1785,e
1788787467.4811468,1985,2223,e
1788787467.483356,2028,2122,e
1788787467.486141,2094,2240,e
1788787467.492691,2161,2128,e
1788787467.49321,2092,2225,e
1788787467.4937751,2131,2236,e
1788787467.497111,2063,1995,e
1788787467.49731,1987,1802,e
1788787467.497386,1876,1819,e
1788787467.4974542,2033,2363,e
1788787467.497519,2088,2241,e
1788787467.505485,2131,2142,e
1788787467.506749,2087,1757,e
1788787467.509249,2117,2394,e
1788787467.509542,2201,2117,e
1788787467.5119941,2106,1713,e
1788787467.512773,1930,1602,e
1788787467.518729,2000,2371,e
1788787467.519388,2056,2167,e
1788787467.519604,2148,2110,e
1788787467.5198998,2085,2201,e
1788787467.520192,2121,1890,e
1788787467.523603,2177,2326,e
1788787467.52368,2100,2030,e
1788787467.526326,1965,1546,e
1788787467.527673,1970,2212,e
1788787467.53029,2107,2207,e
1788787467.538325,2122,2198,e
1788787467.5410151,2047,2025,e
1788787467.543587,2059,2148,e
1788787467.5459268,2206,2518,e
1788787467.546396,2107,1991,e
1788787467.550956,2000,1833,e
1788787467.5517702,1883,1845,e
1788787467.554555,2060,2257,e
1788787467.554838,2115,2243,e
1788787467.555893,2133,2148,e
1788787467.556035,2048,1943,e
1788787467.556109,2126,2322,e
1788787467.5561721,2168,2034,e
1788787467.557529,2053,1863,e
1788787467.564547,1898,1744,e
1788787467.565227,2037,2234,e
1788787467.566043,2106,2141,e
1788787467.5686378,2162,2161,e
1788787467.568932,2079,1968,e
1788787467.571672,2050,2159,e
1788787467.5736792,2166,2305,e
1788787467.573969,2078,2003,e
1788787467.5788171,1961,1726,e
1788787467.5793762,1952,2327,e
1788787467.5799081,2064,2074,e
1788787467.582923,2127,2424,e
1788787467.584096,2110,1943,e
1788787467.5854762,2080,1804,e
1788787467.588109,2187,2858,e
1788787467.5894852,2120,1893,e
1788787467.594932,2029,1610,e
1788787467.595606,1922,1891,e
1788787467.596458,2063,2375,e
1788787467.6037261,2127,2286,e
1788787467.6039848,2143,2138,e
1788787467.604178,2052,1976,e
1788787467.608852,2102,2332,e
1788787467.609726,2137,1973,e
1788787467.609911,2057,1753,e
1788787467.6100428,1912,1591,e
1788787467.613017,2009,2429,e
1788787467.6144042,2085,2337,e
1788787467.6157792,2160,2102,e
1788787467.6234229,2098,1912,e
1788787467.6281788,2064,2197,e
1788787467.6297019,2166,2315,e
1788787467.636074,2085,1903,e
1788787467.6365461,1954,1613,e
1788787467.637056,1929,2110,e
1788787467.637262,2067,2277,e
1788787467.640071,2154,2284,e
1788787467.64122,2091,2047,e
1788787467.6412978,2066,2080,e
1788787467.641366,2171,2398,e
1788787467.641428,2116,1914,e
1788787467.6414888,1988,1793,e
1788787467.644118,1873,1846,e
1788787467.6454558,2054,2364,e
1788787467.6479812,2135,2348,e
1788787467.654763,2134,2131,e
1788787467.657983,2057,1846,e
1788787467.6609821,2110,2301,e
1788787467.662872,2159,2028,e
1788787467.663105,2052,1797,e
1788787467.6678421,1920,1676,e
1788787467.6680791,2008,2394,e
1788787467.668431,2081,2252,e
1788787467.668767,2145,2162,e
1788787467.669261,2071,1946,e
1788787467.673571,2040,2131,e
1788787467.673664,2190,2294,e
1788787467.6739829,2120,1911,e
1788787467.675353,1952,1729,e
1788787467.681647,1917,2250,e
1788787467.683025,2027,2216,e
1788787467.683649,2185,2096,e
1788787467.685784,2142,2087,e
1788787467.686083,2094,2142,e
1788787467.68826,2161,2362,e
1788787467.6951292,2088,1909,e
1788787467.695552,1996,1886,e
1788787467.696295,1878,1844,e
1788787467.696466,2052,2237,e
1788787467.699662,2139,2326,e
1788787467.699739,2123,2180,e
1788787467.702157,2031,1915,e
1788787467.703527,2071,2313,e
1788787467.706202,2132,1938,e
1788787467.712724,2032,1804,e
1788787467.717719,1926,1610,e
1788787467.7203,2066,2349,e
1788787467.723042,2147,2230,e
1788787467.728277,2146,2201,e
1788787467.731841,2012,1910,e
1788787467.732648,2019,2085,e
1788787467.732745,2169,2282,e
1788787467.7329001,2104,1992,e
1788787467.733026,2019,1670,e
1788787467.733079,1996,2124,e
1788787467.733227,2085,2272,e
1788787467.733349,2196,2247,e
1788787467.733548,2123,2036,e
1788787467.746294,2042,2085,e
1788787467.747638,2195,2421,e
1788787467.7494678,2146,1919,e
1788787467.749818,1991,1750,e
1788787467.754441,1864,1754,e
1788787467.754696,2081,2305,e
1788787467.754999,2131,2382,e
1788787467.755359,2145,2154,e
1788787467.756143,2115,1913,e
1788787467.7591171,2181,2252,e
1788787467.759586,2190,2059,e
1788787467.75965,2047,1869,e
1788787467.759703,1891,1722,e
1788787467.762314,2039,2280,e
1788787467.76368,2076,2251,e
1788787467.7662451,2148,2174,e
1788787467.774257,2098,2006,e
1788787467.7762718,2055,2104,e
1788787467.7767649,2217,2281,e
1788787467.7793999,2078,1962,e
1788787467.78607,1961,1666,e
1788787467.786653,1936,2214,e
1788787467.78978,2086,2163,e
1788787467.78986,2223,2312,e
1788787467.789951,2140,2033,e
1788787467.790164,2078,2027,e
1788787467.790265,2164,2432,e
1788787467.790397,2164,2027,e
1788787467.7917938,2053,1776,e
1788787467.7974038,1878,1899,e
1788787467.7976162,2033,2253,e
1788787467.799297,2153,2389,e
1788787467.799446,2148,2050,e
1788787467.803989,2042,1890,e
1788787467.804725,2119,2276,e
1788787467.820122,2153,1986,e
1788787467.820218,2079,1826,e
1788787467.82046,1888,1713,e
1788787467.820574,1957,2321,e
1788787467.820629,2118,2214,e
1788787467.821111,2158,2136,e
1788787467.821187,2133,1997,e
1788787467.8215349,2083,2112,e
1788787467.821911,2171,2206,e
1788787467.866388,2101,1921,e
1788787467.8666801,1983,1673,e
1788787467.866872,1946,2192,e
1788787467.866959,2072,2174,e
1788787467.867058,2155,2278,e
1788787467.867148,2101,2025,e
1788787467.867248,2083,2125,e
1788787467.8673122,2164,2378,e
1788787467.8673742,2102,1952,e
1788787467.867452,1967,1794,e
1788787467.867525,1915,1848,e
1788787467.8676538,2070,2422,e
1788787467.8677142,2146,2306,e
1788787467.8677812,2127,2077,e
1788787467.867875,2063,1912,e
1788787467.867946,2100,2339,e
1788787467.868033,2134,2025,e
1788787467.868175,2013,1815,e
1788787467.868237,1941,1624,e
1788787467.86829,2063,2366,e
1788787467.868341,2134,2281,e
1788787467.868451,2114,2129,e
1788787467.868555,2073,1981,e
1788787467.869899,2065,2137,e
1788787467.8712451,2176,2224,e
1788787467.878859,2064,1963,e
1788787467.880197,1987,1732,e
1788787467.880873,2020,2226,e
1788787467.8827038,2065,2237,e
1788787467.88297,2112,2224,e
1788787467.884968,2075,2061,e
1788787467.8913128,2017,2069,e
1788787467.891841,2181,2386,e
1788787467.8921402,2109,2016,e
1788787467.8924952,1978,1763,e
1788787467.8948438,1902,1841,e
1788787467.896756,2079,2375,e
1788787467.898386,2132,2297,e
1788787467.903392,2146,2040,e
1788787467.904522,2046,1961,e
1788787467.906778,2137,2337,e
1788787467.9103801,2158,2000,e
1788787467.910537,2031,1894,e
1788787467.914318,1874,1688,e
1788787467.9148748,1989,2366,e
1788787467.915081,2068,2227,e
1788787467.915334,2166,2195,e
1788787467.917653,2080,2004,e
1788787467.9192479,2075,2138,e
1788787467.921921,2175,2268,e
1788787467.923282,2073,1917,e
1788787467.9292061,1938,1720,e
1788787467.9322681,1933,2226,e
1788787467.9347908,2046,2214,e
1788787467.934977,2119,2267,e
1788787467.9364538,2092,2021,e
1788787467.936645,2047,2116,e
1788787467.9424598,2153,2419,e
1788787467.94264,2095,1980,e
1788787467.943197,1991,1823,e
1788787467.943491,1888,1901,e
1788787467.94606,2054,2286,e
1788787467.950497,2126,2307,e
1788787467.950678,2135,2074,e
1788787467.953869,2039,1986,e
1788787467.954039,2118,2323,e
1788787467.956322,2125,2000,e
1788787467.961626,2032,1833,e
1788787467.961869,1892,1734,e
1788787467.962056,2028,2385,e
1788787467.964521,2100,2207,e
1788787467.965844,2146,2180,e
1788787467.967158,2091,1951,e
1788787467.969727,2080,2186,e
1788787467.975565,2170,2231,e
1788787467.9761531,2070,1933,e
1788787467.976659,1946,1764,e
1788787467.978391,1964,2253,e
1788787467.9800692,2064,2098,e
1788787467.985539,2133,2247,e
1788787467.986277,2120,2023,e
1788787467.9896379,2056,2083,e
1788787467.989929,2178,2403,e
1788787467.99012,2120,1989,e
1788787467.9915771,2022,1737,e
1788787467.997752,1889,1883,e
1788787467.998433,2061,2292,e
1788787468.001046,2126,2350,e
1788787468.0013618,2130,2088,e
1788787468.001706,2049,1986,e
1788787468.0093539,2118,2333,e
1788787468.0097,2128,2005,e
1788787468.0099149,2042,1817,e
1788787468.010268,1900,1711,e
1788787468.01353,2021,2378,e
1788787468.0137,2106,2269,e
1788787468.016412,2151,2150,e
1788787468.017781,2089,1985,e
1788787468.01923,2077,2139,e
1788787468.026442,2178,2231,e
1788787468.031743,2079,1946,e
1788787468.033961,1964,1771,e
1788787468.034312,1965,2251,e
1788787468.038238,2071,2175,e
1788787468.038916,2154,2266,e
1788787468.0393221,2111,2045,e
1788787468.042987,2067,2097,e
1788787468.0430799,2178,2393,e
1788787468.043145,2106,1978,e
1788787468.043208,1990,1794,e
1788787468.0432699,1888,1890,e
1788787468.051239,2070,2284,e
1788787468.053612,2133,2333,e
1788787468.0563562,2136,2051,e
1788787468.0616262,2061,1949,e
1788787468.0623538,2127,2396,e
1788787468.0647922,2139,1997,e
1788787468.065706,2032,1818,e
1788787468.065778,1886,1699,e
1788787468.0658402,2021,2381,e
1788787468.065901,2088,2266,e
1788787468.065961,2130,2143,e
1788787468.0675719,2065,1978,e
1788787468.070849,2068,2160,e
1788787468.072333,2159,2217,e
1788787468.077968,2082,1958,e
1788787468.0793018,1950,1700,e
1788787468.083233,1974,2258,e
1788787468.085352,2073,2237,e
1788787468.0900989,2150,2279,e
1788787468.0929751,2118,2027,e
1788787468.094021,2070,2103,e
1788787468.094105,2162,2406,e
1788787468.094176,2092,1974,e
1788787468.0942469,2003,1795,e
1788787468.0943081,1906,1910,e
1788787468.095737,2066,2282,e
1788787468.1030002,2131,2289,e
1788787468.1052248,2119,2070,e
1788787468.1077492,2054,1954,e
1788787468.109497,2126,2345,e
1788787468.1135008,2143,1996,e
1788787468.113861,2036,1826,e
1788787468.116666,1900,1720,e
1788787468.116755,2024,2357,e
1788787468.116821,2100,2251,e
1788787468.1169631,2148,2155,e
1788787468.1170628,2065,2002,e
1788787468.119802,2081,2138,e
1788787468.121419,2166,2212,e
1788787468.127402,2082,1928,e
1788787468.131055,1940,1806,e
1788787468.1313732,1960,2267,e
1788787468.131737,2072,2184,e
1788787468.1332622,2143,2215,e
1788787468.139355,2119,2036,e
1788787468.1398962,2064,2094,e
1788787468.142263,2172,2385,e
1788787468.142897,2109,1973,e
1788787468.143201,1993,1819,e
1788787468.143268,1902,1914,e
1788787468.150326,2055,2252,e
1788787468.1545951,2132,2287,e
1788787468.159372,2124,2074,e
1788787468.159675,2054,1985,e
1788787468.159945,2116,2360,e
1788787468.164243,2130,2023,e
1788787468.1647391,2040,1850,e
1788787468.165369,1895,1728,e
1788787468.168751,2025,2348,e
1788787468.1691551,2095,2241,e
1788787468.16923,2130,2201,e
1788787468.169464,2081,1948,e
1788787468.169547,2080,2185,e
1788787468.171179,2171,2200,e
1788787468.173909,2090,1926,e
1788787468.1753159,1949,1730,e
1788787468.183155,1969,2315,e
1788787468.183805,2093,2181,e
1788787468.184521,2159,2238,e
1788787468.1876118,2127,2023,e
1788787468.1879098,2066,2098,e
1788787468.1882792,2164,2367,e
1788787468.192739,2099,2012,e
1788787468.196932,2003,1790,e
1788787468.1972249,1899,1932,e
1788787468.197391,2057,2261,e
1788787468.1979258,2127,2275,e
1788787468.201014,2123,2089,e
1788787468.201427,2048,1969,e
1788787468.2040908,2111,2355,e
1788787468.210165,2124,1990,e
1788787468.210433,2035,1827,e
1788787468.211798,1887,1710,e
1788787468.212464,2000,2438,e
1788787468.216467,2108,2274,e
1788787468.217762,2148,2120,e
1788787468.219859,2084,1974,e
1788787468.224226,2076,2206,e
1788787468.227186,2169,2212,e
1788787468.228232,2091,1938,e
1788787468.228322,1971,1731,e
1788787468.228388,1975,2239,e
1788787468.229729,2066,2203,e
1788787468.2310789,2136,2240,e
1788787468.233736,2105,2024,e
1788787468.2350981,2060,2130,e
1788787468.2431931,2141,2385,e
1788787468.2434042,2103,1965,e
1788787468.245526,1990,1757,e
1788787468.2471511,1883,1942,e
1788787468.24792,2053,2261,e
1788787468.250288,2127,2264,e
1788787468.2547991,2122,2096,e
1788787468.255446,2033,1965,e
1788787468.2557251,2119,2367,e
1788787468.2586749,2132,2015,e
1788787468.259789,2025,1821,e
1788787468.259864,1890,1720,e
1788787468.261205,2020,2379,e
1788787468.269012,2085,2271,e
1788787468.269863,2138,2161,e
1788787468.2706728,2071,1971,e
1788787468.272886,2092,2175,e
1788787468.2732291,2173,2204,e
1788787468.276117,2065,1956,e
1788787468.2779021,1936,1744,e
1788787468.2820659,1952,2273,e
1788787468.282391,2064,2199,e
1788787468.282957,2157,2231,e
1788787468.283373,2094,2039,e
1788787468.2867992,2068,2103,e
1788787468.288199,2166,2376,e
1788787468.28956,2105,1971,e
1788787468.2922041,2008,1799,e
1788787468.2978392,1903,1906,e
1788787468.300551,2065,2260,e
1788787468.300786,2134,2305,e
1788787468.303283,2144,2057,e
1788787468.305581,2034,1991,e
1788787468.305899,2117,2366,e
1788787468.308277,2128,1997,e
1788787468.312583,2028,1839,e
1788787468.313025,1886,1713,e
1788787468.313668,2017,2376,e
1788787468.3139,2097,2283,e
1788787468.3172312,2139,2136,e
1788787468.317298,2081,1964,e
1788787468.320182,2075,2137,e
1788787468.327595,2165,2205,e
1788787468.331347,2077,1941,e
1788787468.334,1939,1758,e
1788787468.334399,1971,2264,e
1788787468.3385851,2069,2190,e
1788787468.3389509,2134,2234,e
1788787468.339448,2117,2030,e
1788787468.340034,2062,2142,e
1788787468.3433049,2155,2371,e
1788787468.343709,2096,1973,e
1788787468.3437812,1999,1807,e
1788787468.343883,1890,1951,e
1788787468.345234,2048,2267,e
1788787468.3483992,2128,2288,e
1788787468.349622,2126,2105,e
1788787468.351383,2050,1980,e
1788787468.3570402,2132,2390,e
1788787468.357923,2133,1985,e
1788787468.361353,2017,1799,e
1788787468.361631,1908,1732,e
1788787468.364144,2043,2386,e
1788787468.3665652,2115,2281,e
1788787468.3669949,2229,2149,e
1788787468.3709598,2125,1933,e
1788787468.371525,2049,2184,e
1788787468.3719978,2125,2230,e
1788787468.3751838,2061,1888,e
1788787468.375586,1954,1743,e
1788787468.378229,1971,2265,e
1788787468.385453,2068,2205,e
1788787468.3862112,2126,2247,e
1788787468.3882828,2126,2066,e
1788787468.388614,2062,2104,e
1788787468.390814,2179,2536,e
1788787468.391108,2114,1949,e
1788787468.393444,2011,1679,e
1788787468.393625,1834,1885,e
1788787468.4005601,2022,2216,e
1788787468.401637,2144,2336,e
1788787468.40179,2125,2105,e
1788787468.401856,2033,1925,e
1788787468.403253,2131,2327,e
1788787468.406059,2146,2023,e
1788787468.4075809,2043,2109,e
1788787468.4136279,1913,1716,e
1788787468.416003,2049,2094,e
1788787468.417941,2105,2350,e
1788787468.418646,2147,2312,e
1788787468.423528,2077,2162,e
1788787468.428299,2019,2084,e
1788787468.429016,2158,1969,e
1788787468.429405,2087,1784,e
1788787468.429614,1967,1923,e
1788787468.4331992,1938,2360,e
1788787468.433384,2037,2117,e
1788787468.433457,2150,2155,e
1788787468.433613,2118,2072,e
1788787468.43502,2100,2092,e
1788787468.442809,2227,2252,e
1788787468.444566,2140,2089,e
1788787468.449333,2021,1989,e
1788787468.451526,1883,1890,e
1788787468.455811,2062,2227,e
1788787468.456536,2097,2164,e
1788787468.46,2110,1922,e
1788787468.460501,1978,2081,e
1788787468.460632,2125,2365,e
1788787468.46076,2156,1903,e
1788787468.4608378,2091,2151,e
1788787468.460902,1924,1810,e
1788787468.4609642,2050,2249,e
1788787468.463758,2131,2083,e
1788787468.465125,2164,2083,e
1788787468.467805,2116,2158,e
1788787468.4758651,2073,1996,e
1788787468.478018,2074,2151,e
1788787468.480674,2054,1941,e
1788787468.4825852,1921,1731,e
1788787468.4870012,1951,2255,e
1788787468.4874082,2056,2231,e
1788787468.49087,2111,2358,e
1788787468.4911518,2158,2100,e
1788787468.4912431,2129,2135,e
1788787468.491432,2206,2396,e
1788787468.49153,2209,1928,e
1788787468.4915998,1957,1802,e
1788787468.492949,1889,2044,e
1788787468.510978,2001,2335,e
1788787468.5114582,2040,2154,e
1788787468.514742,2100,1898,e
1788787468.515169,2101,1947,e
1788787468.515319,2197,2402,e
1788787468.515438,2123,1938,e
1788787468.515531,2075,1720,e
1788787468.51559,1898,1623,e
1788787468.51564,2048,2479,e
1788787468.515688,2046,2378,e
1788787468.515736,2186,2310,e
1788787468.51714,2155,1961,e
1788787468.519867,2109,2076,e
1788787468.5212212,2090,2194,e
1788787468.5275068,1953,1901,e
1788787468.528172,1950,1616,e
1788787468.5288582,1999,2175,e
1788787468.5300841,2051,2162,e
1788787468.534542,2123,2350,e
1788787468.5370271,2198,2087,e
1788787468.537305,2107,2153,e
1788787468.541376,2009,2377,e
1788787468.541779,2038,1917,e
1788787468.542031,2045,1991,e
1788787468.544993,1899,2156,e
1788787468.545056,2111,2078,e
1788787468.5478132,2187,2540,e
1788787468.552703,2086,2378,e
1788787468.5538108,2110,1181,e
1788787468.554389,2217,1934,e
1788787468.558045,2318,2223,e
1788787468.5586061,1929,2004,e
1788787468.560763,1909,1767,e
1788787468.564804,1999,2263,e
1788787468.565078,2033,2233,e
1788787468.565519,2185,2180,e
1788787468.568403,1922,2177,e
1788787468.569729,1881,2459,e
1788787468.571232,2134,2311,e
1788787468.573901,1976,1903,e
1788787468.57878,1925,1742,e
1788787468.5793478,2031,2191,e
1788787468.580897,1962,2170,e
1788787468.582656,2199,2378,e
1788787468.585112,2229,1912,e
1788787468.586711,2142,2146,e
1788787468.591095,2401,2322,e
1788787468.593663,2289,2551,e
1788787468.593904,2163,1903,e
1788787468.593955,1919,1283,e
1788787468.595263,1925,2285,e
1788787468.6010969,1900,2487,e
1788787468.601992,2115,2028,e
1788787468.6043751,1983,2185,e
1788787468.60785,2002,2605,e
1788787468.611129,1973,1879,e
1788787468.611518,1829,1387,e
1788787468.611765,1822,2021,e
1788787468.611978,2307,2671,e
1788787468.614669,2466,2097,e
1788787468.615982,2252,2022,e
1788787468.617291,2040,1999,e
1788787468.6198819,2135,2280,e
1788787468.621227,1991,2573,e
1788787468.625782,1798,1688,e
1788787468.62688,2004,2305,e
1788787468.629023,1987,2459,e
1788787468.629198,2063,1150,e
1788787468.63147,2243,1840,e
1788787468.635888,2084,2324,e
1788787468.636069,2149,2328,e
1788787468.638861,2505,2253,e
1788787468.6389241,2114,1967,e
1788787468.64186,1875,1820,e
1788787468.6432362,1940,1962,e
1788787468.648809,2150,2523,e
1788787468.650213,2036,2479,e
1788787468.6517591,1920,2208,e
1788787468.651933,1977,1642,e
1788787468.655631,2276,2516,e
1788787468.655956,2442,2001,e
1788787468.659405,2007,2065,e
1788787468.659664,1685,1886,e
1788787468.6623092,2159,1894,e
1788787468.663685,2397,2123,e
1788787468.6684,2144,2337,e
1788787468.669599,1988,2106,e
1788787468.6705458,1953,2197,e
1788787468.67248,1988,2467,e
1788787468.676097,2048,1195,e
1788787468.679533,2018,1539,e
1788787468.679852,2110,2402,e
1788787468.6800299,2283,2190,e
1788787468.682872,2171,2399,e
1788787468.6830468,1958,2494,e
1788787468.685668,2073,1875,e
1788787468.687007,2299,2368,e
1788787468.68973,2189,2218,e
1788787468.695829,2004,1352,e
1788787468.6983628,1834,2786,e
1788787468.7056482,2183,1906,e
1788787468.706072,2086,1590,e
1788787468.706304,2089,2289,e
1788787468.7069619,2008,2065,e
1788787468.7092018,2216,2521,e
1788787468.709864,2195,2051,e
1788787468.7101572,2081,2061,e
1788787468.7102232,2016,1696,e
1788787468.711474,2191,2034,e
1788787468.7129102,2336,2580,e
1788787468.718432,2304,2892,e
1788787468.719587,2143,1573,e
1788787468.721478,2188,2349,e
1788787468.723548,2074,2408,e
1788787468.7256892,1827,1382,e
1788787468.729601,1844,1306,e
1788787468.729907,1826,2644,e
1788787468.7303438,2093,2730,e
1788787468.733195,2325,2172,e
1788787468.733278,2153,2076,e
1788787468.7359302,2078,1964,e
1788787468.737401,2142,2289,e
1788787468.744638,2321,2177,e
1788787468.7517068,2309,1598,e
1788787468.755914,2096,2055,e
1788787468.756789,1776,2498,e
1788787468.759284,1770,2121,e
1788787468.759677,2050,1928,e
1788787468.759747,2088,1972,e
1788787468.759809,2461,2703,e
1788787468.75987,2304,2245,e
1788787468.7599301,1672,1521,e
1788787468.759991,1638,1821,e
1788787468.7613282,2103,1964,e
1788787468.766407,2168,2484,e
1788787468.768097,2077,2129,e
1788787468.7690518,2086,2105,e
1788787468.7693582,1910,2905,e
1788787468.771286,2123,1738,e
1788787468.773154,2160,1636,e
1788787468.7752278,2047,2303,e
1788787468.778743,2442,1736,e
1788787468.779107,2292,2111,e
1788787468.782033,1830,2392,e
1788787468.783396,1807,2204,e
1788787468.786056,1983,2281,e
1788787468.7874181,2302,2073,e
1788787468.795101,2070,2068,e
1788787468.797627,1724,2040,e
1788787468.8015418,1701,2116,e
1788787468.801724,2070,3052,e
1788787468.805773,2204,1514,e
1788787468.806397,2141,1701,e
1788787468.806983,2106,2199,e
1788787468.807431,2330,2568,e
1788787468.807795,2239,1955,e
1788787468.810354,1853,1905,e
1788787468.810636,1808,2034,e
1788787468.812,2417,2575,e
1788787468.8185909,2124,2319,e
1788787468.819407,1854,2522,e
1788787468.8212109,1939,2123,e
1788787468.821331,2014,2225,e
1788787468.821812,2168,1376,e
1788787468.826485,2003,1792,e
1788787468.830221,1898,2058,e
1788787468.8305511,1989,2259,e
1788787468.830861,1977,1947,e
1788787468.831258,2138,2320,e
1788787468.834054,2307,2224,e
1788787468.8354728,2298,2265,e
1788787468.837,2225,2609,e
1788787468.839635,2002,2211,e
1788787468.841276,1771,1826,e
1788787468.8461802,1929,2718,e
1788787468.846806,1850,1709,e
1788787468.8476539,2102,1675,e
1788787468.8496199,2406,2245,e
1788787468.852315,2448,2136,e
1788787468.8540852,1899,2505,e
1788787468.8579998,1497,1953,e
1788787468.858845,1871,1915,e
1788787468.859143,1789,1766,e
1788787468.861579,1988,2182,e
1788787468.862947,2152,2544,e
1788787468.870284,2068,2596,e
1788787468.8801548,1868,1227,e
1788787468.884545,2072,2239,e
1788787468.884675,2453,2558,e
1788787468.884824,2200,2266,e
1788787468.884898,2061,1809,e
1788787468.884963,2108,1494,e
1788787468.885024,2092,2228,e
1788787468.8850849,2095,2557,e
1788787468.8851461,1847,2388,e
1788787468.88521,2168,2178,e
1788787468.8878772,2249,2181,e
1788787468.889292,2170,2211,e
1788787468.897705,1975,1515,e
1788787468.898547,1779,1259,e
1788787468.900992,1857,2251,e
1788787468.901448,2287,2727,e
1788787468.9017332,2316,2352,e
1788787468.903664,1914,1841,e
1788787468.904744,1910,2673,e
1788787468.910752,2044,2274,e
1788787468.9110332,2127,1482,e
1788787468.9116778,1968,1346,e
1788787468.912139,2084,2552,e
1788787468.915444,2195,2586,e
1788787468.915523,2051,3379,e
1788787468.9168918,1935,1685,e
1788787468.9258811,2026,1012,e
1788787468.926767,2171,2548,e
1788787468.928683,2127,2193,e
1788787468.9292102,1953,1404,e
1788787468.9318311,2072,2295,e
1788787468.93823,2097,2178,e
1788787468.938776,2255,2390,e
1788787468.939457,1891,2235,e
1788787468.942313,2023,2217,e
1788787468.943434,2307,2166,e
1788787468.943536,2177,2311,e
1788787468.943703,2115,2195,e
1788787468.943774,1807,1958,e
1788787468.9451468,1824,1622,e
1788787468.947794,2189,2107,e
1788787468.9491541,2283,2308,e
1788787468.958316,1856,2239,e
1788787468.959088,2065,2557,e
1788787468.961287,2268,2196,e
1788787468.9617732,2224,1908,e
1788787468.96492,1856,1739,e
1788787468.970947,1980,2133,e
1788787468.971273,2094,2261,e
1788787468.971593,2107,2363,e
1788787468.9719522,2049,1931,e
1788787468.972445,2216,2186,e
1788787468.975754,2233,2484,e
1788787468.976096,1831,1938,e
1788787468.9761941,1777,1833,e
1788787468.977568,2008,2449,e
1788787468.9837089,2114,2009,e
1788787468.984648,2206,2128,e
1788787468.985947,2137,2422,e
1788787468.986683,2082,2136,e
1788787468.988951,2230,1543,e
1788787468.991261,2099,1820,e
1788787468.992123,1985,1953,e
1788787468.99807,2017,2059,e
1788787468.998254,2069,2383,e
1788787468.998591,2137,2787,e
1788787469.0019488,2161,2462,e
1788787469.0020201,2255,1574,e
1788787469.003478,2204,2525,e
1788787469.004822,2092,1916,e
1788787469.007421,1897,2290,e
1788787469.010358,1873,1597,e
1788787469.016106,2042,2075,e
1788787469.017507,1945,2248,e
1788787469.018347,2109,2262,e
1788787469.021426,2073,2318,e
1788787469.02334,2040,1662,e
1788787469.0247629,2077,2095,e
1788787469.0265448,2195,2071,e
1788787469.026881,2027,1852,e
1788787469.031352,2073,2103,e
1788787469.031651,2081,2075,e
1788787469.031947,2228,2651,e
1788787469.035278,2037,2182,e
1788787469.0358222,2054,2265,e
1788787469.037195,2103,2246,e
1788787469.045304,2143,1922,e
1788787469.0468018,1965,2229,e
1788787469.049077,2057,1748,e
1788787469.051299,2094,1573,e
1788787469.0540879,2126,2163,e
1788787469.054531,2169,2313,e
1788787469.058846,2220,2232,e
1788787469.059372,2180,2612,e
1788787469.059562,2088,2606,e
1788787469.059892,1919,967,e
1788787469.060391,1826,1058,e
1788787469.063731,2171,2833,e
1788787469.063849,2232,2635,e
1788787469.065194,2016,2216,e
1788787469.0679018,1936,2035,e
1788787469.069265,2107,2156,e
1788787469.0765288,2174,2181,e
1788787469.076948,2119,1951,e
1788787469.0788,1973,1517,e
1788787469.0816278,1946,2588,e
1788787469.083987,2164,2604,e
1788787469.084934,2232,1995,e
1788787469.086733,1936,1819,e
1788787469.091507,2073,2058,e
1788787469.092077,2286,2643,e
1788787469.092489,2272,1481,e
1788787469.092886,1951,1593,e
1788787469.095532,1781,2620,e
1788787469.096467,1953,2475,e
1788787469.097864,2265,1801,e
1788787469.099529,2204,1886,e
1788787469.122059,1961,2177,e
1788787469.1222458,2092,2490,e
1788787469.122326,2177,2382,e
1788787469.122391,2023,1612,e
1788787469.122453,1757,1903,e
1788787469.1225128,2075,2434,e
1788787469.122634,2339,2129,e
1788787469.123163,2146,2282,e
1788787469.124743,1980,2124,e
1788787469.1248682,2276,2554,e
1788787469.12494,2076,1806,e
1788787469.125068,1793,1895,e
1788787469.125196,1835,2158,e
1788787469.1494248,1963,1928,e
1788787469.149581,2143,1759,e
1788787469.1496902,2236,2320,e
1788787469.1497548,2259,2615,e
1788787469.149823,2088,1960,e
1788787469.1498828,2046,1986,e
1788787469.149981,2019,1838,e
1788787469.1501062,1985,1985,e
1788787469.150262,2006,2048,e
1788787469.150369,1903,1931,e
1788787469.1504378,2039,2588,e
1788787469.150501,2106,2454,e
1788787469.152359,2012,2049,e
1788787469.164001,2150,2519,e
1788787469.166246,2218,2068,e
1788787469.1708539,2221,1866,e
1788787469.170958,2006,1053,e
1788787469.171232,1904,2454,e
1788787469.1715798,2064,2538,e
1788787469.1718569,2215,2360,e
1788787469.172283,2237,1967,e
1788787469.172586,2117,2319,e
1788787469.175694,1960,2585,e
1788787469.1760378,1892,1090,e
1788787469.176092,1885,986,e
1788787469.1774201,2008,2681,e
1788787469.178829,2192,2477,e
1788787469.181427,2123,2355,e
1788787469.1827562,1930,1874,e
1788787469.1921432,1991,1879,e
1788787469.192665,2165,2486,e
1788787469.194731,2151,2103,e
1788787469.201469,2058,1787,e
1788787469.20182,2058,2085,e
1788787469.202234,2053,2704,e
1788787469.2054038,2115,2817,e
1788787469.205817,2139,1734,e
1788787469.205997,2087,1495,e
1788787469.2062662,2181,2269,e
1788787469.206408,2273,2098,e
1788787469.2078369,2091,2001,e
1788787469.2130508,1837,1868,e
1788787469.2142239,2038,2330,e
1788787469.2149298,2157,2133,e
1788787469.217668,2107,2275,e
1788787469.226463,2063,2057,e
1788787469.2268212,2002,2360,e
1788787469.2269802,2088,2195,e
1788787469.227317,2118,2043,e
1788787469.227637,2024,1837,e
1788787469.228122,2114,1848,e
1788787469.230311,2051,2006,e
1788787469.2316952,2077,2433,e
1788787469.233053,2260,1945,e
1788787469.235643,2264,2044,e
1788787469.237136,2168,2560,e
1788787469.242579,1921,1916,e
1788787469.2433338,1816,1745,e
1788787469.244589,1858,1878,e
1788787469.2473679,2047,2291,e
1788787469.2475488,2134,2379,e
1788787469.249426,2061,2224,e
1788787469.251353,1924,1861,e
1788787469.255645,2184,2389,e
1788787469.258333,2200,1957,e
1788787469.258858,2034,1756,e
1788787469.258938,1948,1615,e
1788787469.261527,2121,2550,e
1788787469.265405,2159,2422,e
1788787469.266397,2162,2263,e
1788787469.269192,2090,2142,e
1788787469.271778,2084,2075,e
1788787469.27693,2154,2116,e
1788787469.2771451,2066,1928,e
1788787469.2774441,1954,1461,e
1788787469.2776508,1952,2425,e
1788787469.281635,2053,2422,e
1788787469.281717,2081,2035,e
1788787469.283046,2112,1924,e
1788787469.285707,2047,2435,e
1788787469.2919302,2181,2282,e
1788787469.293945,2134,1873,e
1788787469.295518,1999,1613,e
1788787469.295802,1978,2052,e
1788787469.295964,2081,2409,e
1788787469.298218,2122,2383,e
1788787469.303285,2134,1880,e
1788787469.3036559,2035,2030,e
1788787469.303892,2131,2572,e
1788787469.3059971,2080,2057,e
1788787469.307395,1999,1777,e
1788787469.313591,1911,1593,e
1788787469.316427,2132,2434,e
1788787469.316546,2187,2342,e
1788787469.316854,2159,2186,e
1788787469.317006,1993,2002,e
1788787469.3205419,2071,2416,e
1788787469.324784,2168,2081,e
1788787469.325088,2041,1753,e
1788787469.325335,1882,1583,e
1788787469.32813,1978,2195,e
1788787469.329493,2073,2186,e
1788787469.330942,2139,2296,e
1788787469.333604,2123,1964,e
1788787469.34056,2072,2201,e
1788787469.341203,2140,2529,e
1788787469.3442318,2086,1718,e
1788787469.345432,1970,1538,e
1788787469.354093,1941,2136,e
1788787469.3544,2069,2214,e
1788787469.3545291,2127,2174,e
1788787469.354651,2122,2008,e
1788787469.354775,2045,1958,e
1788787469.35487,2167,2618,e
1788787469.3550699,2127,2277,e
1788787469.362601,2032,1603,e
1788787469.364972,1903,1371,e
1788787469.3652952,2088,2414,e
1788787469.372576,2134,2434,e
1788787469.373261,2142,2283,e
1788787469.3757749,2062,1869,e
1788787469.376079,2110,2208,e
1788787469.3762019,2136,2121,e
1788787469.3763149,2057,1721,e
1788787469.376423,1907,1494,e
1788787469.377747,1990,2321,e
1788787469.379159,2057,2198,e
1788787469.3880699,2130,2093,e
1788787469.3977652,2101,1815,e
1788787469.401186,2093,1923,e
1788787469.401247,2168,2166,e
1788787469.401293,2086,1684,e
1788787469.401345,1986,1482,e
1788787469.401388,1963,1939,e
1788787469.401429,2010,2222,e
1788787469.401471,2123,2302,e
1788787469.401512,2106,1908,e
1788787469.4015849,1976,1856,e
1788787469.402972,2088,2364,e
1788787469.409548,2097,1835,e
1788787469.414751,1952,1607,e
1788787469.421359,1846,1546,e
1788787469.421767,2035,2418,e
1788787469.4245918,2083,2424,e
1788787469.424723,2131,2107,e
1788787469.4248488,2047,1767,e
1788787469.424926,2074,2096,e
1788787469.424992,2087,2013,e
1788787469.425057,2026,1796,e
1788787469.425121,1892,1549,e
1788787469.427713,1955,2353,e
1788787469.4290292,2030,2219,e
1788787469.4380622,2156,2245,e
1788787469.438384,2127,1973,e
1788787469.4458618,2074,2036,e
1788787469.4465349,2189,2204,e
1788787469.450763,2115,1769,e
1788787469.450882,1948,1608,e
1788787469.451006,1907,2161,e
1788787469.4510798,2058,2269,e
1788787469.4511812,2160,2294,e
1788787469.451253,2166,1921,e
1788787469.451315,2063,1943,e
1788787469.452777,2161,2400,e
1788787469.460969,2145,1849,e
1788787469.463,2037,1670,e
1788787469.467118,1892,1722,e
1788787469.471939,2040,2351,e
1788787469.472341,2135,2319,e
1788787469.475282,2156,2164,e
1788787469.475557,2036,1848,e
1788787469.4756322,2072,2193,e
1788787469.475703,2143,1992,e
1788787469.475764,2099,1727,e
1788787469.47583,1931,1493,e
1788787469.477176,2010,2353,e
1788787469.47979,2041,2279,e
1788787469.481144,2037,2191,e
1788787469.4869561,1949,1964,e
1788787469.487094,2069,2027,e
1788787469.489889,2252,2220,e
1788787469.4939342,2106,1778,e
1788787469.498383,1960,1690,e
1788787469.49924,1921,2122,e
1788787469.502146,2040,2123,e
1788787469.5022411,2158,2321,e
1788787469.502306,2110,1997,e
1788787469.502368,2066,1907,e
1788787469.503711,2159,2385,e
1788787469.510688,2055,1907,e
1788787469.511261,1889,1824,e
1788787469.513314,1864,1745,e
1788787469.5136378,2082,2345,e
1788787469.521504,2176,2266,e
1788787469.521874,2188,2099,e
1788787469.522306,2085,1934,e
1788787469.522644,2070,2267,e
1788787469.5228832,2072,2033,e
1788787469.5231638,2022,1789,e
1788787469.52598,1911,1593,e
1788787469.527353,1983,2380,e
1788787469.528723,2054,2249,e
1788787469.531262,2149,2184,e
1788787469.537405,2061,1972,e
1788787469.538629,2070,2136,e
1788787469.539148,2140,2297,e
1788787469.541014,2138,1898,e
1788787469.5412428,2004,1708,e
1788787469.545839,1977,2165,e
1788787469.550606,2056,2190,e
1788787469.551031,2034,2306,e
1788787469.5538728,2046,2050,e
1788787469.554891,2126,2046,e
1788787469.555468,2161,2470,e
1788787469.555578,2150,1884,e
1788787469.556992,2039,1767,e
1788787469.568322,1865,1778,e
1788787469.568655,2053,2402,e
1788787469.577528,2152,2385,e
1788787469.577735,2115,2131,e
1788787469.577974,2063,1877,e
1788787469.578229,2117,2149,e
1788787469.5785458,2136,2012,e
1788787469.5789871,2037,1878,e
1788787469.579184,1850,1680,e
1788787469.579385,2016,2310,e
1788787469.582387,2053,2151,e
1788787469.5827641,2156,2197,e
1788787469.582844,2102,1999,e
1788787469.5854762,2100,2147,e
1788787469.586854,2185,2318,e
1788787469.589814,2078,1938,e
1788787469.5958889,1930,1722,e
1788787469.597271,1932,2113,e
1788787469.599591,2090,2197,e
1788787469.599926,2150,2311,e
1788787469.6014621,2149,2053,e
1788787469.604643,2052,2007,e
1788787469.604924,2164,2420,e
1788787469.605272,2105,1956,e
1788787469.610244,1965,1753,e
1788787469.610376,1811,1851,e
1788787469.6135979,2084,2398,e
1788787469.614043,2128,2308,e
1788787469.615393,2155,2086,e
1788787469.616745,1973,1972,e
1788787469.624738,2105,2189,e
1788787469.6267672,2187,1991,e
1788787469.629923,2041,1791,e
1788787469.631747,1928,1653,e
1788787469.632104,2045,2323,e
1788787469.632415,2078,2219,e
1788787469.6379929,2198,2209,e
1788787469.6383412,2076,1986,e
1788787469.6410189,2066,2144,e
1788787469.642057,2171,2255,e
1788787469.642133,2080,1921,e
1788787469.642197,1938,1683,e
1788787469.643997,1936,2196,e
1788787469.64544,1975,2163,e
1788787469.646848,2170,2239,e
1788787469.6551309,2139,2048,e
1788787469.656594,2092,2047,e
1788787469.6573818,2181,2430,e
1788787469.6593359,2114,1935,e
1788787469.65985,2017,1817,e
1788787469.660181,1911,1924,e
1788787469.662064,2097,2333,e
1788787469.6644192,2141,2280,e
1788787469.669141,2133,2153,e
1788787469.6695108,2050,1931,e
1788787469.669987,2094,2319,e
1788787469.6734872,2130,2045,e
1788787469.673737,2050,1781,e
1788787469.6751528,1896,1652,e
1788787469.681964,2013,2351,e
1788787469.682225,2092,2277,e
1788787469.6828642,2145,2164,e
1788787469.6857119,2058,1976,e
1788787469.686226,2040,2179,e
1788787469.688562,2153,2246,e
1788787469.6911201,2062,1948,e
1788787469.6914382,1959,1747,e
1788787469.696108,1941,2261,e
1788787469.6964538,2071,2212,e
1788787469.6998222,2145,2243,e
1788787469.7001998,2117,2058,e
1788787469.701587,2071,2099,e
1788787469.702966,2168,2451,e
1788787469.70562,2103,1963,e
1788787469.707092,2010,1813,e
1788787469.71316,1920,1894,e
1788787469.715195,2081,2349,e
1788787469.716011,2144,2328,e
1788787469.7188869,2153,2137,e
1788787469.721795,2068,1943,e
1788787469.723511,2110,2311,e
1788787469.728301,2141,2041,e
1788787469.728705,2041,1835,e
1788787469.729155,1905,1675,e
1788787469.729634,2006,2353,e
1788787469.732138,2096,2245,e
1788787469.733161,2127,2163,e
1788787469.733282,2077,1977,e
1788787469.734721,2075,2115,e
1788787469.74179,2155,2309,e
1788787469.743704,2060,1954,e
1788787469.7461429,1937,1724,e
1788787469.746484,1934,2274,e
1788787469.748759,2055,2231,e
1788787469.7495549,2119,2191,e
1788787469.751511,2083,2049,e
1788787469.756116,2043,2082,e
1788787469.756431,2154,2409,e
1788787469.756822,2095,1919,e
1788787469.757278,1991,1819,e
1788787469.7598689,1866,1878,e
1788787469.761245,2042,2340,e
1788787469.763865,2117,2306,e
1788787469.765208,2120,2066,e
1788787469.773088,2040,1924,e
1788787469.774475,2106,2349,e
1788787469.7771242,2121,2029,e
1788787469.777652,2022,1811,e
1788787469.779854,1890,1670,e
1788787469.7801569,1992,2409,e
1788787469.7810502,2072,2249,e
1788787469.782912,2126,2122,e
1788787469.783096,2073,1991,e
1788787469.788446,2084,2179,e
1788787469.788952,2178,2288,e
1788787469.789408,2075,1955,e
1788787469.7927418,1957,1766,e
1788787469.793161,1934,2223,e
1788787469.796088,2084,2205,e
1788787469.801722,2163,2244,e
1788787469.8037891,2103,2021,e
1788787469.808379,2052,2111,e
1788787469.808477,2163,2418,e
1788787469.808735,2094,1952,e
1788787469.8110871,2005,1788,e
1788787469.8114612,1896,1890,e
1788787469.811618,2073,2333,e
1788787469.816011,2149,2315,e
1788787469.8163478,2149,2095,e
1788787469.819965,2055,1958,e
1788787469.820081,2125,2340,e
1788787469.821434,2144,2001,e
1788787469.822769,2033,1825,e
1788787469.825439,1898,1680,e
1788787469.826825,2018,2365,e
1788787469.834631,2096,2243,e
1788787469.836931,2143,2175,e
1788787469.8390179,2094,1995,e
1788787469.8456671,2082,2158,e
1788787469.8459818,2176,2261,e
1788787469.8465002,2091,1955,e
1788787469.849577,1965,1696,e
1788787469.849679,1963,2233,e
1788787469.849739,2068,2175,e
1788787469.8498318,2143,2277,e
1788787469.849948,2107,2078,e
1788787469.851288,2060,2085,e
1788787469.853027,2163,2367,e
1788787469.8585489,2114,1978,e
1788787469.861902,2010,1797,e
1788787469.862171,1914,1915,e
1788787469.864525,2066,2296,e
1788787469.8652601,2123,2320,e
1788787469.867133,2137,2107,e
1788787469.871335,2070,1901,e
1788787469.871695,2118,2365,e
1788787469.8719559,2138,2022,e
1788787469.8751612,2041,1819,e
1788787469.8752692,1892,1708,e
1788787469.876734,2011,2386,e
1788787469.879335,2093,2257,e
1788787469.8806531,2146,2160,e
1788787469.88857,2084,1956,e
1788787469.8932962,2083,2177,e
1788787469.895339,2169,2249,e
1788787469.899646,2089,1904,e
1788787469.900023,1988,1740,e
1788787469.900564,2004,2214,e
1788787469.90096,2080,2220,e
1788787469.9032478,2126,2281,e
1788787469.90418,2095,2019,e
1788787469.9043698,2038,2105,e
1788787469.904551,2150,2440,e
1788787469.904712,2105,1937,e
1788787469.907868,2010,1792,e
1788787469.913773,1881,1910,e
1788787469.9144819,2053,2328,e
1788787469.916395,2121,2284,e
1788787469.918221,2142,2087,e
1788787469.921162,2074,1911,e
1788787469.921375,2123,2370,e
1788787469.92165,2129,2002,e
1788787469.926288,2046,1827,e
1788787469.9267478,1906,1709,e
1788787469.9269829,2020,2385,e
1788787469.929918,2134,2290,e
1788787469.9312708,2201,2142,e
1788787469.9327118,2115,1962,e
1788787469.935373,2050,2143,e
1788787469.9367108,2127,2236,e
1788787469.942415,2060,1990,e
1788787469.943157,1941,1741,e
1788787469.9443269,1943,2216,e
1788787469.946647,2053,2184,e
1788787469.948477,2150,2264,e
1788787469.950426,2111,2031,e
1788787469.954211,2083,2107,e
1788787469.9545841,2169,2397,e
1788787469.954747,2114,1976,e
1788787469.957621,2007,1793,e
1788787469.958952,1910,1933,e
1788787469.9641879,2073,2288,e
1788787469.964829,2096,2278,e
1788787469.965782,2119,2082,e
1788787469.967419,2062,1974,e
1788787469.9698539,2155,2351,e
1788787469.9747279,2176,1967,e
1788787469.9752781,2052,1827,e
1788787469.97546,1868,1701,e
1788787469.977921,1976,2350,e
1788787469.979245,2050,2284,e
1788787469.980766,2116,2174,e
1788787469.9833422,2068,1940,e
1788787469.9886148,2053,2140,e
1788787469.99005,2135,2217,e
1788787469.992666,2064,1956,e
1788787469.994352,1952,1752,e
1788787469.9949179,1963,2233,e
1788787469.9964511,2077,2168,e
1788787470.000174,2160,2248,e
1788787470.0003939,2129,2031,e
1788787470.00277,2065,2113,e
1788787470.002901,2183,2374,e
1788787470.005753,2104,1978,e
1788787470.0115662,1932,1828,e
1788787470.013571,1853,1890,e
1788787470.013846,2041,2254,e
1788787470.0140889,2116,2334,e
1788787470.017546,2107,2047,e
1788787470.021251,2012,1929,e
1788787470.021573,2094,2390,e
1788787470.021833,2131,1967,e
1788787470.0247018,2046,1824,e
1788787470.024776,1891,1722,e
1788787470.027349,2021,2360,e
1788787470.028657,2118,2280,e
1788787470.035717,2139,2170,e
1788787470.03689,2048,1967,e
1788787470.037452,2021,2173,e
1788787470.039328,2139,2192,e
1788787470.039551,2051,1906,e
1788787470.041823,1941,1763,e
1788787470.04333,1952,2291,e
1788787470.049819,2070,2174,e
1788787470.049919,2136,2200,e
1788787470.049988,2114,2024,e
1788787470.051351,2049,2132,e
1788787470.0529761,2167,2384,e
1788787470.0593212,2107,1971,e
1788787470.059992,1995,1777,e
1788787470.060729,1897,1951,e
1788787470.062423,2061,2257,e
1788787470.0626502,2116,2276,e
1788787470.070362,2122,2099,e
1788787470.071163,2036,1972,e
1788787470.074461,2122,2379,e
1788787470.074583,2123,1968,e
1788787470.0747101,2032,1839,e
1788787470.074775,1914,1744,e
1788787470.077462,2031,2385,e
1788787470.078807,2091,2263,e
1788787470.0859241,2138,2130,e
1788787470.0890088,2084,1976,e
1788787470.089445,2086,2168,e
1788787470.091948,2158,2197,e
1788787470.094114,2093,1917,e
1788787470.098191,1943,1725,e
1788787470.101075,1985,2267,e
1788787470.101232,2072,2201,e
1788787470.101307,2134,2242,e
1788787470.10147,2116,2043,e
1788787470.10159,2074,2125,e
1788787470.10301,2172,2384,e
1788787470.109422,2123,1977,e
1788787470.1119099,2000,1839,e
1788787470.112179,1894,1995,e
1788787470.115755,2047,2265,e
1788787470.120064,2116,2180,e
1788787470.1230772,2136,2026,e
1788787470.123447,2066,1990,e
1788787470.123519,2114,2498,e
1788787470.123585,2118,1953,e
1788787470.123651,2041,1692,e
1788787470.125016,1907,1669,e
1788787470.1275048,2032,2457,e
1788787470.128684,2076,2415,e
1788787470.135777,2141,2229,e
1788787470.1382122,2082,1936,e
1788787470.138817,2079,1985,e
1788787470.141193,2163,2133,e
1788787470.142734,2065,2013,e
1788787470.143021,1928,1800,e
1788787470.146697,1959,2187,e
1788787470.1469371,2064,2087,e
1788787470.147281,2146,2262,e
1788787470.150281,2111,2071,e
1788787470.151656,2080,2200,e
1788787470.1584158,2185,2427,e
1788787470.160795,2125,2031,e
1788787470.161118,2008,2283,e
1788787470.161341,1890,2037,e
1788787470.1637278,2063,1473,e
