timestamp,ch1,ch2,label
1788787477.759307,2099,2281,e_S
1788787477.764519,2147,2156,e_S
1788787477.771007,2078,1973,e_S
1788787477.771435,2074,2143,e_S
1788787477.777119,2168,2193,e_S
1788787477.779087,2072,1953,e_S
1788787477.7795782,1949,1740,e_S
1788787477.780003,1965,2250,e_S
1788787477.780446,2063,2186,e_S
1788787477.783398,2148,2238,e_S
1788787477.7842119,2124,2042,e_S
1788787477.7847219,2066,2099,e_S
1788787477.78482,2173,2376,e_S
1788787477.784887,2114,1972,e_S
1788787477.78624,2005,1811,e_S
1788787477.787602,1898,1938,e_S
1788787477.790271,2065,2269,e_S
1788787477.791626,2122,2275,e_S
1788787477.7997499,2133,2059,e_S
1788787477.800823,2052,1973,e_S
1788787477.80152,2145,2354,e_S
1788787477.804565,2146,2013,e_S
1788787477.804939,2048,1832,e_S
1788787477.8056571,1905,1747,e_S
1788787477.808165,2036,2369,e_S
1788787477.8092558,2106,2264,e_S
1788787477.812873,2146,2169,e_S
1788787477.813148,2085,1990,e_S
1788787477.8181381,2071,2152,e_S
1788787477.8182132,2137,2182,e_S
1788787477.818274,2054,1925,e_S
1788787477.819676,1943,1746,e_S
1788787477.8223271,1958,2271,e_S
1788787477.8239942,2059,2187,e_S
1788787477.83196,2151,2226,e_S
1788787477.833136,2122,2050,e_S
1788787477.834718,2083,2099,e_S
1788787477.837814,2180,2354,e_S
1788787477.838119,2115,1979,e_S
1788787477.838486,1995,1820,e_S
1788787477.840598,1913,1946,e_S
1788787477.8423412,2062,2242,e_S
1788787477.8441548,2141,2298,e_S
1788787477.844498,2118,2072,e_S
1788787477.8463948,2041,1990,e_S
1788787477.850183,2134,2382,e_S
1788787477.850324,2119,1975,e_S
1788787477.851709,2032,1842,e_S
1788787477.8545249,1873,1737,e_S
1788787477.861669,2034,2374,e_S
1788787477.86582,2107,2276,e_S
1788787477.868727,2145,2128,e_S
1788787477.869591,2073,1980,e_S
1788787477.871519,2085,2147,e_S
1788787477.871975,2161,2195,e_S
1788787477.8740249,2074,1940,e_S
1788787477.874308,1938,1730,e_S
1788787477.874818,1987,2276,e_S
1788787477.8751519,2091,2199,e_S
1788787477.878877,2148,2237,e_S
1788787477.8793,2108,2015,e_S
1788787477.880654,2076,2121,e_S
1788787477.882001,2178,2350,e_S
1788787477.884481,2119,1974,e_S
1788787477.8858712,1996,1800,e_S
1788787477.894353,1905,1947,e_S
1788787477.895165,2063,2236,e_S
1788787477.895954,2135,2277,e_S
1788787477.896807,2117,2085,e_S
1788787477.899134,2052,1952,e_S
1788787477.899411,2131,2402,e_S
1788787477.899704,2127,2001,e_S
1788787477.903457,2028,1855,e_S
1788787477.90565,1904,1736,e_S
1788787477.905887,2030,2373,e_S
1788787477.908174,2098,2276,e_S
1788787477.91226,2145,2132,e_S
1788787477.912431,2089,1994,e_S
1788787477.91385,2089,2164,e_S
1788787477.922473,2174,2183,e_S
1788787477.924198,2083,1927,e_S
1788787477.92513,1944,1719,e_S
1788787477.9274518,1967,2296,e_S
1788787477.927634,2077,2182,e_S
1788787477.927917,2142,2224,e_S
1788787477.9284139,2109,2051,e_S
1788787477.93096,2056,2119,e_S
1788787477.933718,2148,2329,e_S
1788787477.933978,2096,1982,e_S
1788787477.936401,1999,1822,e_S
1788787477.9403799,1911,1976,e_S
1788787477.94061,2077,2232,e_S
1788787477.941976,2136,2301,e_S
1788787477.944609,2131,2065,e_S
1788787477.945985,2045,1976,e_S
1788787477.948689,2136,2395,e_S
1788787477.970742,2141,1999,e_S
1788787477.9709692,2022,1827,e_S
1788787477.9710798,1888,1736,e_S
1788787477.9712021,2019,2339,e_S
1788787477.971555,2098,2275,e_S
1788787477.9716249,2143,2138,e_S
1788787477.9717069,2082,1970,e_S
1788787477.9717681,2069,2159,e_S
1788787477.971827,2167,2195,e_S
1788787477.971885,2072,1907,e_S
1788787477.9719439,1924,1735,e_S
1788787477.972002,1947,2295,e_S
1788787478.001345,2063,2180,e_S
1788787478.00173,2143,2224,e_S
1788787478.002007,2104,1998,e_S
1788787478.002152,2055,2127,e_S
1788787478.002215,2168,2345,e_S
1788787478.0027368,2115,1982,e_S
1788787478.0032058,2000,1797,e_S
1788787478.003312,1916,1978,e_S
1788787478.003385,2067,2215,e_S
1788787478.003531,2140,2289,e_S
1788787478.003594,2134,2098,e_S
1788787478.003652,2054,1991,e_S
1788787478.003712,2122,2380,e_S
1788787478.003772,2120,1969,e_S
1788787478.003865,2032,1843,e_S
1788787478.003928,1866,1736,e_S
1788787478.016907,2027,2394,e_S
1788787478.017229,2084,2285,e_S
1788787478.01816,2144,2136,e_S
1788787478.020712,2090,1958,e_S
1788787478.023442,2105,2177,e_S
1788787478.024108,2175,2176,e_S
1788787478.024389,2093,1927,e_S
1788787478.025038,1956,1748,e_S
1788787478.027977,1969,2269,e_S
1788787478.029042,2083,2180,e_S
1788787478.029176,2164,2227,e_S
1788787478.029244,2104,2007,e_S
1788787478.030495,2056,2117,e_S
1788787478.031878,2167,2317,e_S
1788787478.038382,2091,2007,e_S
1788787478.039993,2002,1803,e_S
1788787478.0413618,1901,1999,e_S
1788787478.043979,2041,2202,e_S
1788787478.044235,2125,2310,e_S
1788787478.0478861,2133,2093,e_S
1788787478.049838,2056,1983,e_S
1788787478.051809,2122,2405,e_S
1788787478.0520508,2128,1984,e_S
1788787478.052236,2015,1844,e_S
1788787478.05489,1884,1746,e_S
1788787478.056295,2038,2389,e_S
1788787478.057677,2092,2277,e_S
1788787478.060317,2146,2129,e_S
1788787478.061667,2071,1961,e_S
1788787478.070611,2066,2187,e_S
1788787478.072672,2132,2162,e_S
1788787478.074964,2061,1921,e_S
1788787478.0776808,1933,1719,e_S
1788787478.080111,1975,2295,e_S
1788787478.0838988,2065,2195,e_S
1788787478.084043,2147,2218,e_S
1788787478.084117,2098,2030,e_S
1788787478.084181,2051,2134,e_S
1788787478.084259,2170,2346,e_S
1788787478.084322,2100,1970,e_S
1788787478.085723,1993,1812,e_S
1788787478.0924711,1904,2032,e_S
1788787478.096021,2059,2203,e_S
1788787478.100669,2116,2276,e_S
1788787478.1069922,2122,2077,e_S
1788787478.1072059,2043,1991,e_S
1788787478.1072881,2107,2407,e_S
1788787478.1074262,2117,1990,e_S
1788787478.1076329,2027,1801,e_S
1788787478.1077209,1911,1765,e_S
1788787478.107787,2041,2370,e_S
1788787478.107924,2112,2289,e_S
1788787478.1106172,2157,2151,e_S
1788787478.111935,2088,1977,e_S
1788787478.125738,2084,2169,e_S
1788787478.131006,2174,2148,e_S
1788787478.13153,2073,1913,e_S
1788787478.135067,1943,1729,e_S
1788787478.135265,1968,2279,e_S
1788787478.135495,2079,2189,e_S
1788787478.1356192,2138,2224,e_S
1788787478.1357582,2100,1999,e_S
1788787478.135862,2090,2138,e_S
1788787478.135937,2189,2334,e_S
1788787478.1360068,2111,1963,e_S
1788787478.1360698,1963,1803,e_S
1788787478.137834,1885,2041,e_S
1788787478.151402,2058,2190,e_S
1788787478.154297,2133,2286,e_S
1788787478.155336,2120,2080,e_S
1788787478.1558459,2041,2004,e_S
1788787478.159154,2136,2416,e_S
1788787478.15954,2122,1976,e_S
1788787478.1597068,2031,1842,e_S
1788787478.159785,1898,1741,e_S
1788787478.159842,2033,2384,e_S
1788787478.159894,2107,2293,e_S
1788787478.1600451,2140,2147,e_S
1788787478.161479,2077,1968,e_S
1788787478.164185,2078,2177,e_S
1788787478.165591,2154,2154,e_S
1788787478.175601,2070,1913,e_S
1788787478.176175,1942,1736,e_S
1788787478.1805482,2002,2287,e_S
1788787478.1835,2085,2184,e_S
1788787478.1876018,2164,2223,e_S
1788787478.187695,2112,2009,e_S
1788787478.187814,2091,2139,e_S
1788787478.187883,2194,2333,e_S
1788787478.1879349,2100,1966,e_S
1788787478.187984,1970,1812,e_S
1788787478.1880379,1887,2061,e_S
1788787478.190455,2026,2175,e_S
1788787478.197139,2126,2271,e_S
1788787478.205576,2135,2040,e_S
1788787478.20826,2065,1994,e_S
1788787478.2117171,2144,2400,e_S
1788787478.212119,2121,1971,e_S
1788787478.212214,2028,1844,e_S
1788787478.212283,1903,1800,e_S
1788787478.212348,2117,2383,e_S
1788787478.212411,2136,2364,e_S
1788787478.2124941,2184,2188,e_S
1788787478.212563,2123,1952,e_S
1788787478.213918,2116,2099,e_S
1788787478.216522,2139,2211,e_S
1788787478.21792,2101,1899,e_S
1788787478.229205,1946,1592,e_S
1788787478.236316,1928,2431,e_S
1788787478.239765,2059,2138,e_S
1788787478.239837,2107,2104,e_S
1788787478.239991,2048,1986,e_S
1788787478.240067,2020,2503,e_S
1788787478.240233,2118,2470,e_S
1788787478.240326,2083,1704,e_S
1788787478.240504,1978,1544,e_S
1788787478.2406888,1892,2025,e_S
1788787478.2408051,2057,2324,e_S
1788787478.2421582,2147,2453,e_S
1788787478.249742,2167,2103,e_S
1788787478.2516322,2063,1731,e_S
1788787478.251832,2133,2400,e_S
1788787478.252146,2102,2080,e_S
1788787478.252318,2004,2103,e_S
1788787478.254909,1917,2124,e_S
1788787478.257428,2143,2443,e_S
1788787478.259962,2161,1674,e_S
1788787478.2605262,2150,1772,e_S
1788787478.263754,1956,2050,e_S
1788787478.2642272,2064,2370,e_S
1788787478.26565,2259,2168,e_S
1788787478.268331,2171,1917,e_S
1788787478.269678,1954,2072,e_S
1788787478.2724102,1845,2377,e_S
1788787478.278858,1937,1563,e_S
1788787478.279061,2131,2317,e_S
1788787478.279638,2337,2185,e_S
1788787478.2804961,2225,2041,e_S
1788787478.283316,2094,2378,e_S
1788787478.283804,1997,1862,e_S
1788787478.288108,1942,1529,e_S
1788787478.288359,2075,1744,e_S
1788787478.291019,2101,2452,e_S
1788787478.3063092,2137,2595,e_S
1788787478.3091002,2012,2103,e_S
1788787478.309341,1864,1532,e_S
1788787478.3095522,2067,2308,e_S
1788787478.311709,2046,2001,e_S
1788787478.3118541,1928,1724,e_S
1788787478.312049,1905,1648,e_S
1788787478.3127291,2049,2441,e_S
1788787478.312968,2078,2322,e_S
1788787478.3177888,2174,2181,e_S
1788787478.318172,2105,2111,e_S
1788787478.3184419,2130,2372,e_S
1788787478.3187158,2218,2282,e_S
1788787478.319038,2163,1794,e_S
1788787478.323552,1999,1513,e_S
1788787478.323641,1950,2295,e_S
1788787478.3237062,2048,2228,e_S
1788787478.326328,2097,2246,e_S
1788787478.3276548,2067,2067,e_S
1788787478.330513,2133,2180,e_S
1788787478.3387148,2248,2315,e_S
1788787478.3421729,2132,2045,e_S
1788787478.3424919,1934,1875,e_S
1788787478.342758,1883,2157,e_S
1788787478.344831,2184,2269,e_S
1788787478.3456151,2159,2283,e_S
1788787478.346581,2179,2042,e_S
1788787478.346862,2115,1918,e_S
1788787478.349195,2238,2684,e_S
1788787478.352649,2147,2041,e_S
1788787478.3529642,2121,1615,e_S
1788787478.3566551,1920,1822,e_S
1788787478.357905,2027,2352,e_S
1788787478.358036,2171,2334,e_S
1788787478.359505,2251,2254,e_S
1788787478.3679721,2018,2028,e_S
1788787478.369567,1972,1922,e_S
1788787478.369771,2106,2293,e_S
1788787478.373346,2043,1943,e_S
1788787478.3760371,2049,1651,e_S
1788787478.376836,2125,2235,e_S
1788787478.3868191,2112,2025,e_S
1788787478.386931,2090,2493,e_S
1788787478.387038,1985,1974,e_S
1788787478.3871639,2020,2186,e_S
1788787478.3872352,2208,2329,e_S
1788787478.3873332,2036,1755,e_S
1788787478.3874052,1948,1869,e_S
1788787478.387466,1923,2176,e_S
1788787478.3901482,2191,2203,e_S
1788787478.391553,2383,2338,e_S
1788787478.3940108,2206,2289,e_S
1788787478.4114811,2157,2042,e_S
1788787478.418499,2271,2525,e_S
1788787478.41968,2047,1969,e_S
1788787478.4198022,1950,1610,e_S
1788787478.419871,1876,1974,e_S
1788787478.419936,2051,2588,e_S
1788787478.419997,2076,2248,e_S
1788787478.42006,2034,1999,e_S
1788787478.420125,1998,1847,e_S
1788787478.420188,2139,2205,e_S
1788787478.420253,2202,2241,e_S
1788787478.420311,2117,2102,e_S
1788787478.420372,1946,1654,e_S
1788787478.421582,1958,2248,e_S
1788787478.436835,2035,2234,e_S
1788787478.439465,2196,2254,e_S
1788787478.443688,2291,2054,e_S
1788787478.4439838,2178,2729,e_S
1788787478.4445,2152,2601,e_S
1788787478.444822,2325,1486,e_S
1788787478.445101,2195,1488,e_S
1788787478.4453912,1802,2152,e_S
1788787478.4456918,1862,2261,e_S
1788787478.445968,1961,2301,e_S
1788787478.450206,2074,2104,e_S
1788787478.4503129,2355,2200,e_S
1788787478.450381,2068,2147,e_S
1788787478.450443,1958,1926,e_S
1788787478.451822,2278,2260,e_S
1788787478.45456,1766,2057,e_S
1788787478.455952,1568,2394,e_S
1788787478.4642408,2002,1927,e_S
1788787478.4659321,2312,2012,e_S
1788787478.466774,2178,2223,e_S
1788787478.46974,2375,2111,e_S
1788787478.4702861,2178,1857,e_S
1788787478.472285,1626,1892,e_S
1788787478.475748,2126,2185,e_S
1788787478.4763389,2323,2478,e_S
1788787478.480059,2117,2250,e_S
1788787478.4805272,2014,1997,e_S
1788787478.4808671,1911,1714,e_S
1788787478.4812758,1786,2063,e_S
1788787478.482152,2008,2666,e_S
1788787478.4861388,2129,2023,e_S
1788787478.486572,1970,1737,e_S
1788787478.488149,1954,1991,e_S
1788787478.489851,2188,2169,e_S
1788787478.496005,2416,2509,e_S
1788787478.498441,2332,2253,e_S
1788787478.501353,2068,2416,e_S
1788787478.501787,2249,2614,e_S
1788787478.50415,2115,1713,e_S
1788787478.5049229,1812,1230,e_S
1788787478.50524,1732,1925,e_S
1788787478.512094,2057,2487,e_S
1788787478.512287,2046,1939,e_S
1788787478.512737,2192,2118,e_S
1788787478.51294,2233,1859,e_S
1788787478.5167308,2352,2345,e_S
1788787478.517188,2103,2271,e_S
1788787478.518581,1939,1921,e_S
1788787478.520101,2030,1807,e_S
1788787478.5227919,1961,2459,e_S
1788787478.524354,2100,2094,e_S
1788787478.52609,2080,2437,e_S
1788787478.5324109,2203,1835,e_S
1788787478.537377,1910,2153,e_S
1788787478.537845,1818,2287,e_S
1788787478.538152,2382,1986,e_S
1788787478.541137,2063,2067,e_S
1788787478.54204,1992,2734,e_S
1788787478.5422971,2051,2031,e_S
1788787478.5446131,2056,1694,e_S
1788787478.54894,2178,1647,e_S
1788787478.549207,2196,2132,e_S
1788787478.549713,2238,2649,e_S
1788787478.549987,1999,2207,e_S
1788787478.553162,2166,1792,e_S
1788787478.5545652,2096,1638,e_S
1788787478.555989,1970,2466,e_S
1788787478.5635169,1922,2517,e_S
1788787478.564671,1943,2439,e_S
1788787478.5679271,2029,2152,e_S
1788787478.568327,1992,2273,e_S
1788787478.5705202,2090,2708,e_S
1788787478.571529,2054,1731,e_S
1788787478.572604,1999,1009,e_S
1788787478.5746381,2082,2391,e_S
1788787478.574904,2305,2626,e_S
1788787478.579267,2203,2134,e_S
1788787478.579925,2017,1946,e_S
1788787478.580275,2117,2324,e_S
1788787478.583816,2203,2420,e_S
1788787478.5842628,1953,1899,e_S
1788787478.585619,1959,2052,e_S
1788787478.588063,2007,2073,e_S
1788787478.589474,2174,1945,e_S
1788787478.5921059,2204,2439,e_S
1788787478.593492,2240,2395,e_S
1788787478.6011462,2204,2231,e_S
1788787478.602109,1973,2690,e_S
1788787478.602925,2182,1727,e_S
1788787478.603772,1992,1515,e_S
1788787478.606584,1796,1854,e_S
1788787478.6069992,1940,2595,e_S
1788787478.609558,2072,2328,e_S
1788787478.610513,2124,2351,e_S
1788787478.6126878,2180,1887,e_S
1788787478.617588,2187,2478,e_S
1788787478.620447,2255,2159,e_S
1788787478.621244,2142,1730,e_S
1788787478.621643,1848,2010,e_S
1788787478.621711,2101,2821,e_S
1788787478.624457,2149,2840,e_S
1788787478.631118,2324,933,e_S
1788787478.6320472,2182,1479,e_S
1788787478.6323469,1935,2119,e_S
1788787478.6337202,2016,2607,e_S
1788787478.6368341,1955,2018,e_S
1788787478.6372218,1856,1643,e_S
1788787478.642118,1985,1892,e_S
1788787478.6426141,2187,2391,e_S
1788787478.647089,2227,2503,e_S
1788787478.64742,2099,2094,e_S
1788787478.6478348,2267,2491,e_S
1788787478.648214,2273,2613,e_S
1788787478.651297,2041,1655,e_S
1788787478.652153,1988,1491,e_S
1788787478.6535301,1982,1750,e_S
1788787478.6561978,2459,2673,e_S
1788787478.6576169,2336,2963,e_S
1788787478.660185,1752,1723,e_S
1788787478.668385,1636,1924,e_S
1788787478.668562,1864,2341,e_S
1788787478.670241,2102,2000,e_S
1788787478.6744058,2115,1781,e_S
1788787478.67478,1905,1597,e_S
1788787478.6753001,2013,2289,e_S
1788787478.677821,2216,2770,e_S
1788787478.678756,1996,1785,e_S
1788787478.6788669,1994,1601,e_S
1788787478.685267,2398,2486,e_S
1788787478.6857119,2425,2715,e_S
1788787478.686081,1820,2182,e_S
1788787478.686708,1799,1416,e_S
1788787478.690218,1776,1762,e_S
1788787478.6903949,1902,2257,e_S
1788787478.691801,2134,2304,e_S
1788787478.699695,2130,2242,e_S
1788787478.7005491,2126,2471,e_S
1788787478.703254,2379,2585,e_S
1788787478.703564,2289,1984,e_S
1788787478.703988,2254,1634,e_S
1788787478.706434,1880,1657,e_S
1788787478.708695,1884,2705,e_S
1788787478.7130811,1972,2139,e_S
1788787478.713595,1937,1748,e_S
1788787478.713964,2098,2012,e_S
1788787478.7144,2231,2870,e_S
1788787478.7176929,2068,1976,e_S
1788787478.718071,1938,1479,e_S
1788787478.719457,1871,1410,e_S
1788787478.722093,2075,2571,e_S
1788787478.723469,2078,2630,e_S
1788787478.729131,2084,1919,e_S
1788787478.73004,2004,1443,e_S
1788787478.7309709,1984,2257,e_S
1788787478.7350368,2218,2570,e_S
1788787478.735436,2295,2059,e_S
1788787478.735614,2000,1773,e_S
1788787478.740781,1892,2216,e_S
1788787478.741073,2168,2488,e_S
1788787478.7460349,2169,2237,e_S
1788787478.746413,2178,2026,e_S
1788787478.746731,2161,2287,e_S
1788787478.750932,2207,2740,e_S
1788787478.751025,1933,1670,e_S
1788787478.752575,1835,1231,e_S
1788787478.754452,1960,1876,e_S
1788787478.7616909,2034,2564,e_S
1788787478.762591,2046,2331,e_S
1788787478.762903,2100,2050,e_S
1788787478.76678,2020,1940,e_S
1788787478.767318,2097,2342,e_S
1788787478.767665,2125,2079,e_S
1788787478.76946,2024,1974,e_S
1788787478.7701719,1868,1584,e_S
1788787478.7731972,2101,2294,e_S
1788787478.778538,2276,2356,e_S
1788787478.778891,2186,2202,e_S
1788787478.779253,2159,1864,e_S
1788787478.782793,2070,2276,e_S
1788787478.7836401,2042,2732,e_S
1788787478.783968,2010,1551,e_S
1788787478.786586,1887,1430,e_S
1788787478.787955,1918,2207,e_S
1788787478.790611,2152,2434,e_S
1788787478.79196,2177,2522,e_S
1788787478.800121,2049,1499,e_S
1788787478.8009112,1944,2059,e_S
1788787478.8025951,2135,2568,e_S
1788787478.806601,2433,2179,e_S
1788787478.810113,2334,2072,e_S
1788787478.8121579,1902,1611,e_S
1788787478.817464,1962,2220,e_S
1788787478.817954,1975,2407,e_S
1788787478.818408,1968,2019,e_S
1788787478.8186948,1950,1977,e_S
1788787478.819062,1967,2306,e_S
1788787478.819545,2008,2315,e_S
1788787478.8197389,1981,1915,e_S
1788787478.820064,1945,1707,e_S
1788787478.8228679,2060,1952,e_S
1788787478.824343,1992,2070,e_S
1788787478.825689,2190,2472,e_S
1788787478.83296,2222,2037,e_S
1788787478.8331661,2112,2236,e_S
1788787478.833892,2077,2251,e_S
1788787478.83487,2057,1724,e_S
1788787478.8380601,1939,1759,e_S
1788787478.841435,1854,2232,e_S
1788787478.841698,2090,2375,e_S
1788787478.84187,2290,2305,e_S
1788787478.849035,2129,1993,e_S
1788787478.849262,2043,1964,e_S
1788787478.849771,2108,2610,e_S
1788787478.850286,2071,1919,e_S
1788787478.8545558,2083,1735,e_S
1788787478.85471,1880,1863,e_S
1788787478.856166,2055,2309,e_S
1788787478.857517,2098,2383,e_S
1788787478.860121,2163,1990,e_S
1788787478.8614552,2181,1984,e_S
1788787478.8697522,2105,2367,e_S
1788787478.8721821,2149,2239,e_S
1788787478.8748171,2027,1708,e_S
1788787478.875103,1866,1722,e_S
1788787478.8754292,2023,2423,e_S
1788787478.875703,2135,1944,e_S
1788787478.8790011,2220,2105,e_S
1788787478.881099,2115,2040,e_S
1788787478.88146,1974,2168,e_S
1788787478.886621,2005,2303,e_S
1788787478.887167,2091,1846,e_S
1788787478.887671,1938,1634,e_S
1788787478.8881438,1874,2172,e_S
1788787478.891212,1993,2302,e_S
1788787478.892591,2101,2374,e_S
1788787478.89379,2136,2123,e_S
1788787478.901494,2096,2061,e_S
1788787478.9028459,2228,2505,e_S
1788787478.904055,2192,1907,e_S
1788787478.907017,2096,1734,e_S
1788787478.907375,1932,1752,e_S
1788787478.9077601,2085,2450,e_S
1788787478.908076,2134,2381,e_S
1788787478.911092,2126,2175,e_S
1788787478.913162,2113,1944,e_S
1788787478.921746,2175,2483,e_S
1788787478.922869,2178,2147,e_S
1788787478.9229581,1975,1475,e_S
1788787478.9230459,1885,1464,e_S
1788787478.923111,2051,2434,e_S
1788787478.9244092,2062,2263,e_S
1788787478.925793,2048,2204,e_S
1788787478.928437,2007,1905,e_S
1788787478.929779,2075,2114,e_S
1788787478.937909,2184,2367,e_S
1788787478.938847,2101,1924,e_S
1788787478.93907,1963,1688,e_S
1788787478.9406679,1945,2172,e_S
1788787478.943763,2086,2268,e_S
1788787478.944134,2152,2332,e_S
1788787478.9467,2103,2030,e_S
1788787478.947697,2071,1982,e_S
1788787478.9497101,2164,2419,e_S
1788787478.954871,2135,1900,e_S
1788787478.955733,2010,1702,e_S
1788787478.9560268,1880,1766,e_S
1788787478.956196,2045,2346,e_S
1788787478.959088,2110,2279,e_S
1788787478.9604301,2140,2051,e_S
1788787478.961786,2063,1788,e_S
1788787478.9699771,2111,2202,e_S
1788787478.970855,2156,1971,e_S
1788787478.971792,2051,1758,e_S
1788787478.972576,1912,1556,e_S
1788787478.9756181,2018,2316,e_S
1788787478.976147,2097,2253,e_S
1788787478.9785018,2125,2169,e_S
1788787478.9795141,2028,1939,e_S
1788787478.9814699,2054,2056,e_S
1788787478.986778,2170,2229,e_S
1788787478.987332,2070,1798,e_S
1788787478.987694,1936,1657,e_S
1788787478.9880939,1915,2162,e_S
1788787478.9911208,2052,2174,e_S
1788787478.992506,2152,2246,e_S
1788787478.993849,2152,2063,e_S
1788787478.996393,2056,2104,e_S
1788787478.99774,2183,2426,e_S
1788787479.007427,2113,1868,e_S
1788787479.00892,1990,1746,e_S
1788787479.011583,1858,1853,e_S
1788787479.014421,2013,2352,e_S
1788787479.0151901,2104,2311,e_S
1788787479.017148,2136,2207,e_S
1788787479.0175161,2019,1910,e_S
1788787479.023238,2089,2275,e_S
1788787479.023669,2152,2035,e_S
1788787479.024076,2055,1825,e_S
1788787479.0244532,1908,1598,e_S
1788787479.024808,2058,2365,e_S
1788787479.025084,2127,2284,e_S
1788787479.028775,2138,2191,e_S
1788787479.028861,2053,1925,e_S
1788787479.0302742,2120,2047,e_S
1788787479.0319989,2191,2287,e_S
1788787479.038781,2080,1892,e_S
1788787479.039742,1937,1662,e_S
1788787479.041311,1917,2193,e_S
1788787479.0438101,2045,2183,e_S
1788787479.043915,2107,2256,e_S
1788787479.044279,2113,2045,e_S
1788787479.046926,2053,1973,e_S
1788787479.049525,2155,2361,e_S
1788787479.055386,2099,1882,e_S
1788787479.0557928,2012,1664,e_S
1788787479.056072,1874,1781,e_S
1788787479.0592132,2057,2335,e_S
1788787479.0604649,2153,2299,e_S
1788787479.060543,2150,2067,e_S
1788787479.06191,2051,1871,e_S
1788787479.064669,2122,2274,e_S
1788787479.066048,2131,2006,e_S
1788787479.0674078,2050,1774,e_S
1788787479.076254,1939,1594,e_S
1788787479.077787,2056,2358,e_S
1788787479.078368,2069,2265,e_S
1788787479.0809019,2114,2153,e_S
1788787479.081296,2035,1918,e_S
1788787479.0818381,2064,2128,e_S
1788787479.082676,2175,2266,e_S
1788787479.086299,2049,1901,e_S
1788787479.086459,1929,1642,e_S
1788787479.088835,1968,2206,e_S
1788787479.094398,2109,2212,e_S
1788787479.094707,2136,2281,e_S
1788787479.0951638,2093,2042,e_S
1788787479.098329,2077,2072,e_S
1788787479.099508,2180,2444,e_S
1788787479.099582,2108,1907,e_S
1788787479.10225,1990,1745,e_S
1788787479.1038132,1899,1843,e_S
1788787479.110075,2049,2367,e_S
1788787479.111398,2111,2308,e_S
1788787479.1134982,2151,2104,e_S
1788787479.115894,2070,1883,e_S
1788787479.116307,2125,2296,e_S
1788787479.117354,2145,2009,e_S
1788787479.117569,2031,1767,e_S
1788787479.119723,1888,1604,e_S
1788787479.1253839,1998,2361,e_S
1788787479.125759,2076,2265,e_S
1788787479.125956,2150,2161,e_S
1788787479.129127,2064,1968,e_S
1788787479.130304,2085,2124,e_S
1788787479.131813,2189,2245,e_S
1788787479.1345868,2096,1910,e_S
1788787479.135988,1953,1728,e_S
1788787479.143904,1950,2221,e_S
1788787479.145764,2045,2152,e_S
1788787479.148032,2122,2237,e_S
1788787479.148267,2077,2074,e_S
1788787479.1500869,2051,2058,e_S
1788787479.151587,2187,2450,e_S
1788787479.154166,2098,1939,e_S
1788787479.159435,1960,1736,e_S
1788787479.159785,1903,1832,e_S
1788787479.160218,2068,2375,e_S
1788787479.160554,2137,2259,e_S
1788787479.160937,2157,2056,e_S
1788787479.1647842,2082,1879,e_S
1788787479.1651819,2114,2305,e_S
1788787479.166564,2139,1985,e_S
1788787479.168061,2027,1793,e_S
1788787479.1750069,1896,1630,e_S
1788787479.177279,2023,2383,e_S
1788787479.180362,2105,2262,e_S
1788787479.1835468,2160,2148,e_S
1788787479.189696,2083,1967,e_S
1788787479.1904,2073,2153,e_S
1788787479.190837,2164,2262,e_S
1788787479.191282,2098,1891,e_S
1788787479.1914618,1972,1718,e_S
1788787479.191746,1959,2239,e_S
1788787479.1920571,2065,2203,e_S
1788787479.1922612,2148,2253,e_S
1788787479.195634,2100,2019,e_S
1788787479.196061,2067,2103,e_S
1788787479.197454,2161,2405,e_S
1788787479.200133,2096,1916,e_S
1788787479.2015219,1964,1801,e_S
1788787479.2042649,1880,1893,e_S
1788787479.210351,2071,2355,e_S
1788787479.211822,2114,2295,e_S
1788787479.2160761,2115,2067,e_S
1788787479.2166982,2057,1877,e_S
1788787479.219603,2124,2386,e_S
1788787479.221571,2157,2009,e_S
1788787479.2217221,2034,1791,e_S
1788787479.222181,1882,1692,e_S
1788787479.227082,2025,2386,e_S
1788787479.227796,2119,2229,e_S
1788787479.2314181,2164,2158,e_S
1788787479.231843,2086,1967,e_S
1788787479.2319202,2036,2184,e_S
1788787479.23201,2151,2239,e_S
1788787479.234654,2126,1888,e_S
1788787479.236367,1929,1722,e_S
1788787479.243399,1933,2210,e_S
1788787479.24429,2091,2193,e_S
1788787479.247143,2134,2298,e_S
1788787479.247734,2076,2014,e_S
1788787479.250328,2046,2133,e_S
1788787479.2510002,2180,2381,e_S
1788787479.2536829,2118,1957,e_S
1788787479.254047,2020,1775,e_S
1788787479.259598,1907,1877,e_S
1788787479.260224,2037,2288,e_S
1788787479.260594,2152,2302,e_S
1788787479.260909,2103,2125,e_S
1788787479.265158,2031,1908,e_S
1788787479.2652621,2157,2330,e_S
1788787479.2664268,2165,2004,e_S
1788787479.2677708,2005,1791,e_S
1788787479.270449,1900,1678,e_S
1788787479.271817,2040,2408,e_S
1788787479.280962,2098,2277,e_S
1788787479.2848792,2158,2107,e_S
1788787479.285137,2089,1930,e_S
1788787479.285568,2069,2144,e_S
1788787479.285831,2141,2256,e_S
1788787479.286022,2105,1909,e_S
1788787479.288401,1971,1728,e_S
1788787479.3290691,1963,2245,e_S
1788787479.329317,2070,2187,e_S
1788787479.32944,2141,2237,e_S
1788787479.329522,2125,2038,e_S
1788787479.329592,2027,2093,e_S
1788787479.329809,2138,2400,e_S
1788787479.330256,2126,1952,e_S
1788787479.342052,2032,1798,e_S
1788787479.343966,1882,1908,e_S
1788787479.3485599,2019,2277,e_S
1788787479.3491998,2103,2374,e_S
1788787479.3530319,2151,2081,e_S
1788787479.353239,2109,1927,e_S
1788787479.353366,2133,2345,e_S
1788787479.353476,2110,1966,e_S
1788787479.3535428,2058,1809,e_S
1788787479.353612,1930,1680,e_S
1788787479.3536692,2052,2432,e_S
1788787479.3537438,2048,2263,e_S
1788787479.353861,2132,2130,e_S
1788787479.353962,2098,1972,e_S
1788787479.354079,2065,2137,e_S
1788787479.354133,2197,2173,e_S
1788787479.354199,2043,1933,e_S
1788787479.3543198,1916,1728,e_S
1788787479.354442,1959,2158,e_S
1788787479.354495,2118,2212,e_S
1788787479.3545961,2172,2298,e_S
1788787479.3546891,2084,2043,e_S
1788787479.3548532,2070,2129,e_S
1788787479.3549519,2167,2379,e_S
1788787479.355028,2108,1999,e_S
1788787479.355093,1998,1813,e_S
1788787479.355168,1880,1918,e_S
1788787479.356645,2045,2302,e_S
1788787479.363044,2121,2289,e_S
1788787479.3674319,2140,2122,e_S
1788787479.3698392,2080,2004,e_S
1788787479.370146,2135,2362,e_S
1788787479.37456,2155,2049,e_S
1788787479.374906,2030,1814,e_S
1788787479.375438,1875,1754,e_S
1788787479.375886,1991,2369,e_S
1788787479.3788931,2077,2291,e_S
1788787479.3792782,2136,2176,e_S
1788787479.379394,2090,1935,e_S
1788787479.379516,2057,2128,e_S
1788787479.382285,2169,2229,e_S
1788787479.383636,2061,1950,e_S
1788787479.386365,1942,1722,e_S
1788787479.3940868,1958,2290,e_S
1788787479.398317,2076,2199,e_S
1788787479.405084,2137,2270,e_S
1788787479.405636,2115,2011,e_S
1788787479.406379,2055,2161,e_S
1788787479.409434,2160,2376,e_S
1788787479.409725,2092,1932,e_S
1788787479.409781,1989,1806,e_S
1788787479.4098308,1895,1936,e_S
1788787479.4099572,2050,2277,e_S
1788787479.410028,2116,2300,e_S
1788787479.410122,2121,2068,e_S
1788787479.411466,2058,1969,e_S
1788787479.417855,2122,2365,e_S
1788787479.420172,2126,1992,e_S
1788787479.422653,2017,1847,e_S
1788787479.422876,1896,1724,e_S
1788787479.4248781,2036,2362,e_S
1788787479.425577,2128,2306,e_S
1788787479.4271731,2148,2164,e_S
1788787479.43196,2074,1943,e_S
1788787479.432388,2075,2160,e_S
1788787479.432607,2193,2213,e_S
1788787479.4349709,2105,1936,e_S
1788787479.4363148,1952,1727,e_S
1788787479.437649,1939,2286,e_S
1788787479.440352,2033,2219,e_S
1788787479.441708,2146,2218,e_S
1788787479.449537,2095,2033,e_S
1788787479.4534678,2054,2103,e_S
1788787479.460286,2155,2383,e_S
1788787479.460486,2098,1988,e_S
1788787479.461069,1974,1780,e_S
1788787479.4614599,1878,1937,e_S
1788787479.461613,2070,2239,e_S
1788787479.46178,2127,2304,e_S
1788787479.461987,2114,2081,e_S
1788787479.462126,2046,1970,e_S
1788787479.4649868,2150,2374,e_S
1788787479.466346,2127,2000,e_S
1788787479.467681,2010,1860,e_S
1788787479.476622,1885,1724,e_S
1788787479.4768798,2039,2402,e_S
1788787479.4796429,2121,2257,e_S
1788787479.479828,2151,2158,e_S
1788787479.485721,2075,1972,e_S
1788787479.4861708,2070,2184,e_S
1788787479.486505,2162,2149,e_S
1788787479.4867442,2071,1901,e_S
1788787479.487371,1941,1737,e_S
1788787479.490586,1955,2308,e_S
1788787479.490775,2065,2185,e_S
1788787479.491912,2157,2224,e_S
1788787479.494528,2114,2022,e_S
1788787479.495855,2057,2143,e_S
1788787479.503407,2168,2360,e_S
1788787479.504107,2117,1968,e_S
1788787479.508106,2001,1796,e_S
1788787479.508744,1906,1971,e_S
1788787479.5094988,2061,2246,e_S
1788787479.511112,2127,2293,e_S
1788787479.511376,2143,2094,e_S
1788787479.5115461,2057,1971,e_S
1788787479.515959,2145,2432,e_S
1788787479.516316,2142,1976,e_S
1788787479.518768,2027,1807,e_S
1788787479.5201018,1891,1734,e_S
1788787479.521684,2051,2411,e_S
1788787479.527746,2111,2304,e_S
1788787479.528935,2159,2139,e_S
1788787479.529802,2079,1999,e_S
1788787479.532235,2069,2169,e_S
1788787479.534219,2155,2156,e_S
1788787479.5370398,2071,1927,e_S
1788787479.5374138,1946,1746,e_S
1788787479.541657,1984,2288,e_S
1788787479.542086,2084,2243,e_S
1788787479.542687,2147,2229,e_S
1788787479.545662,2103,2002,e_S
1788787479.5459368,2062,2136,e_S
1788787479.548652,2177,2353,e_S
1788787479.550087,2095,1973,e_S
1788787479.5515351,1991,1785,e_S
1788787479.558798,1908,2009,e_S
1788787479.5594702,2056,2193,e_S
1788787479.559675,2140,2276,e_S
1788787479.5621288,2112,2074,e_S
1788787479.562474,2050,1997,e_S
1788787479.566848,2136,2407,e_S
1788787479.571074,2117,1977,e_S
1788787479.571518,2010,1809,e_S
1788787479.5717819,1886,1785,e_S
1788787479.5720892,2030,2466,e_S
1788787479.575181,2092,2284,e_S
1788787479.57652,2136,2137,e_S
1788787479.57801,2110,1957,e_S
1788787479.5840058,2102,2198,e_S
1788787479.58574,2170,2168,e_S
1788787479.5876648,2086,1878,e_S
1788787479.5880132,1961,1694,e_S
1788787479.590749,1985,2278,e_S
1788787479.592414,2081,2174,e_S
1788787479.592603,2149,2200,e_S
1788787479.596885,2114,2018,e_S
1788787479.597354,2066,2143,e_S
1788787479.5977721,2164,2370,e_S
1788787479.6008909,2107,1958,e_S
1788787479.602231,1986,1794,e_S
1788787479.6035929,1895,2039,e_S
1788787479.606263,2049,2182,e_S
1788787479.607608,2130,2281,e_S
1788787479.614007,2123,2080,e_S
1788787479.6145852,2043,1977,e_S
1788787479.615364,2140,2409,e_S
1788787479.61728,2131,1957,e_S
1788787479.620348,2034,1855,e_S
1788787479.621932,1888,1737,e_S
1788787479.626376,2039,2375,e_S
1788787479.626575,2100,2269,e_S
1788787479.626722,2153,2173,e_S
1788787479.630154,2102,1981,e_S
1788787479.630218,2089,2143,e_S
1788787479.63169,2168,2141,e_S
1788787479.6405041,2063,1914,e_S
1788787479.6413171,1932,1711,e_S
1788787479.643326,1969,2288,e_S
1788787479.643743,2051,2186,e_S
1788787479.643944,2153,2223,e_S
1788787479.6479611,2100,2006,e_S
1788787479.652147,2051,2140,e_S
1788787479.652703,2160,2337,e_S
1788787479.652929,2102,1939,e_S
1788787479.653128,1996,1823,e_S
1788787479.656281,1917,2066,e_S
1788787479.656471,2068,2203,e_S
1788787479.657981,2151,2292,e_S
1788787479.6606011,2144,2052,e_S
1788787479.661922,2054,1989,e_S
1788787479.667497,2142,2419,e_S
1788787479.66831,2151,1981,e_S
1788787479.668459,2041,1868,e_S
1788787479.6717708,1875,1733,e_S
1788787479.674429,2038,2355,e_S
1788787479.676078,2118,2294,e_S
1788787479.676318,2153,2161,e_S
1788787479.680853,2078,1949,e_S
1788787479.681251,2086,2164,e_S
1788787479.684366,2157,2138,e_S
1788787479.684543,2080,1919,e_S
1788787479.686075,1930,1701,e_S
1788787479.692814,1966,2300,e_S
1788787479.6934688,2053,2184,e_S
1788787479.6957161,2151,2223,e_S
1788787479.696071,2093,2004,e_S
1788787479.696275,2063,2132,e_S
1788787479.7043252,2170,2344,e_S
1788787479.70452,2091,1957,e_S
1788787479.704962,1982,1751,e_S
1788787479.705135,1929,2080,e_S
1788787479.7082088,2068,2205,e_S
1788787479.708488,2153,2280,e_S
1788787479.709816,2129,2116,e_S
1788787479.712399,2045,2032,e_S
1788787479.713738,2119,2389,e_S
1788787479.720248,2111,1934,e_S
1788787479.721592,2005,1835,e_S
1788787479.725086,1866,1754,e_S
1788787479.7271,2027,2393,e_S
1788787479.727902,2081,2279,e_S
1788787479.7338822,2112,2194,e_S
1788787479.734405,2054,1925,e_S
1788787479.735042,2102,2216,e_S
1788787479.735723,2174,2116,e_S
1788787479.738663,2066,1948,e_S
1788787479.738843,1927,1663,e_S
1788787479.738951,1979,2452,e_S
1788787479.740222,2072,2155,e_S
1788787479.746042,2133,2109,e_S
1788787479.74687,2078,2098,e_S
1788787479.752819,2076,2046,e_S
1788787479.759142,2173,2162,e_S
1788787479.7596679,2104,1982,e_S
1788787479.7601972,1981,1797,e_S
1788787479.760555,1945,2124,e_S
1788787479.762975,2088,2197,e_S
1788787479.763892,2155,2231,e_S
1788787479.763978,2129,2153,e_S
1788787479.764292,2044,2093,e_S
1788787479.76444,2128,2367,e_S
1788787479.7658198,2093,1955,e_S
1788787479.768493,1989,1847,e_S
1788787479.769842,1861,1765,e_S
1788787479.7758029,2112,2426,e_S
1788787479.777782,2134,2280,e_S
1788787479.778452,2080,2308,e_S
1788787479.781072,2016,1997,e_S
1788787479.7859478,2053,2027,e_S
1788787479.790516,2174,2083,e_S
1788787479.791297,2068,1908,e_S
1788787479.791734,1904,1758,e_S
1788787479.794272,1977,2283,e_S
1788787479.7953038,2057,2130,e_S
1788787479.7954419,2143,2159,e_S
1788787479.795572,2087,2003,e_S
1788787479.795707,2099,2251,e_S
1788787479.803652,2215,2469,e_S
1788787479.805797,2105,1989,e_S
1788787479.810804,1978,1719,e_S
1788787479.8129501,1926,2061,e_S
1788787479.8172438,2064,2264,e_S
1788787479.81797,2164,2355,e_S
1788787479.818861,2129,2204,e_S
1788787479.8220842,2073,1810,e_S
1788787479.822242,2154,2151,e_S
1788787479.822308,2105,2100,e_S
1788787479.822446,1986,1991,e_S
1788787479.8225338,1878,1725,e_S
1788787479.822666,2039,2279,e_S
1788787479.8241222,2110,2304,e_S
1788787479.8255382,2141,2174,e_S
1788787479.828167,2050,1988,e_S
1788787479.835219,2056,2182,e_S
1788787479.83861,2214,2193,e_S
1788787479.839067,2099,1923,e_S
1788787479.8414779,1905,1734,e_S
1788787479.843976,1978,2371,e_S
1788787479.84828,2061,2121,e_S
1788787479.848752,2172,2234,e_S
1788787479.849257,2114,2010,e_S
1788787479.8497002,2110,2292,e_S
1788787479.8526661,2163,2403,e_S
1788787479.853632,2129,1835,e_S
1788787479.853744,2034,1683,e_S
1788787479.853855,1909,2265,e_S
1788787479.856568,2035,2112,e_S
1788787479.862908,2149,2176,e_S
1788787479.866271,2112,2046,e_S
1788787479.8667352,2023,2045,e_S
1788787479.869789,2128,2462,e_S
1788787479.875818,2196,2074,e_S
1788787479.876394,2086,1836,e_S
1788787479.8769531,1896,1814,e_S
1788787479.877434,1958,2403,e_S
1788787479.8797219,2114,2183,e_S
1788787479.880641,2194,2152,e_S
1788787479.880766,2087,2012,e_S
1788787479.880867,2086,2435,e_S
1788787479.88225,2195,2019,e_S
1788787479.88363,1967,1694,e_S
1788787479.886126,1878,1320,e_S
1788787479.892593,2047,2393,e_S
1788787479.8974211,2126,2320,e_S
1788787479.897876,2188,2145,e_S
1788787479.900207,2050,1902,e_S
1788787479.901184,2140,2134,e_S
1788787479.907105,2264,2408,e_S
1788787479.90785,2069,2001,e_S
1788787479.908266,1935,1929,e_S
1788787479.908593,1865,2213,e_S
1788787479.9118998,2021,2309,e_S
1788787479.911983,2156,2376,e_S
1788787479.912117,2092,2008,e_S
1788787479.912184,2009,1704,e_S
1788787479.9134789,2163,2286,e_S
1788787479.9210398,2121,2147,e_S
1788787479.922503,1962,1926,e_S
1788787479.925344,1917,1894,e_S
1788787479.927223,2106,2372,e_S
1788787479.934648,2016,2290,e_S
1788787479.9384801,2178,2145,e_S
1788787479.938574,2169,2048,e_S
1788787479.938792,2142,2311,e_S
1788787479.938924,2162,2160,e_S
1788787479.939039,2048,1935,e_S
1788787479.939153,1946,1717,e_S
1788787479.93936,2041,2232,e_S
1788787479.939601,2054,2173,e_S
1788787479.942282,2173,2208,e_S
1788787479.9436631,2133,1991,e_S
1788787479.9515269,2112,2171,e_S
1788787479.953807,2182,2431,e_S
1788787479.955909,2070,2030,e_S
1788787479.95622,1949,1776,e_S
1788787479.9565089,1982,2134,e_S
1788787479.956953,2233,2036,e_S
1788787479.961462,2312,2254,e_S
1788787479.9654841,2100,2449,e_S
1788787479.966169,1893,2042,e_S
1788787479.966662,1980,2007,e_S
1788787479.967024,2057,2012,e_S
1788787479.969463,2031,1933,e_S
1788787479.970309,1864,1867,e_S
1788787479.971694,2007,2426,e_S
1788787479.978616,2405,2453,e_S
1788787479.979891,2470,2257,e_S
1788787479.980601,1946,1836,e_S
1788787479.982702,1876,2137,e_S
1788787479.985785,2366,2181,e_S
1788787479.98687,2487,2009,e_S
1788787479.9886458,1940,2068,e_S
1788787479.99282,1552,2217,e_S
1788787479.993123,1789,1750,e_S
1788787479.993811,2056,2209,e_S
1788787479.994245,2013,2235,e_S
1788787479.9977221,2034,2134,e_S
1788787479.997841,2177,2186,e_S
1788787480.000555,2155,1977,e_S
1788787480.001931,1996,1852,e_S
1788787480.004582,1923,1806,e_S
1788787480.0106502,1997,2080,e_S
1788787480.01184,2191,2336,e_S
1788787480.012039,2275,2166,e_S
1788787480.0131788,2208,2048,e_S
1788787480.0171258,2272,2472,e_S
1788787480.020289,2071,2245,e_S
1788787480.024363,1963,1892,e_S
1788787480.024626,1958,1570,e_S
1788787480.025009,2234,2438,e_S
1788787480.025314,2136,2660,e_S
1788787480.026069,2331,2198,e_S
1788787480.029406,2296,2059,e_S
1788787480.0295339,1934,1733,e_S
1788787480.0396202,2150,1951,e_S
1788787480.0424068,2052,2338,e_S
1788787480.0428429,1717,1595,e_S
1788787480.042985,1801,2163,e_S
1788787480.04762,1994,2122,e_S
1788787480.052507,2138,2231,e_S
1788787480.055844,2158,2044,e_S
1788787480.056201,1941,2204,e_S
1788787480.056374,2254,2447,e_S
1788787480.056443,2128,1983,e_S
1788787480.0565069,1934,1764,e_S
1788787480.0565681,1816,2297,e_S
1788787480.0566301,2195,2262,e_S
1788787480.057987,2230,2306,e_S
1788787480.060608,2256,2022,e_S
1788787480.0619478,1989,1903,e_S
1788787480.068505,2063,2504,e_S
1788787480.069288,2128,2299,e_S
1788787480.0729542,2094,2046,e_S
1788787480.075428,2002,1414,e_S
1788787480.076283,2121,2320,e_S
1788787480.078033,2116,2391,e_S
1788787480.082299,1998,2230,e_S
1788787480.0827892,1964,2076,e_S
1788787480.083086,1945,2312,e_S
1788787480.083443,2334,2002,e_S
1788787480.083978,2160,1800,e_S
1788787480.087313,1894,1976,e_S
1788787480.0877671,2056,2536,e_S
1788787480.090464,2096,1766,e_S
1788787480.096867,2141,1992,e_S
1788787480.0977259,2123,2186,e_S
1788787480.098424,1967,2291,e_S
1788787480.098583,2096,2114,e_S
1788787480.10111,2147,2011,e_S
1788787480.104287,2073,1843,e_S
1788787480.1061509,2165,2213,e_S
1788787480.1105988,2070,2223,e_S
1788787480.110968,2022,2321,e_S
1788787480.111321,2141,2266,e_S
1788787480.112,1895,2456,e_S
1788787480.1152918,2140,2141,e_S
1788787480.1154509,2075,1905,e_S
1788787480.118227,1982,1847,e_S
1788787480.1195798,1823,1583,e_S
1788787480.127629,2152,2520,e_S
1788787480.129676,2182,2513,e_S
1788787480.1340852,2147,2151,e_S
1788787480.136605,2167,2131,e_S
1788787480.145385,2166,2115,e_S
1788787480.14546,2222,2160,e_S
1788787480.1455119,2059,1897,e_S
1788787480.1455622,1800,1577,e_S
1788787480.14561,1928,2429,e_S
1788787480.145658,2125,2417,e_S
1788787480.145705,2094,1910,e_S
1788787480.1457531,2033,1809,e_S
1788787480.1459122,2041,2443,e_S
1788787480.160841,2177,2397,e_S
1788787480.199706,2163,1865,e_S
1788787480.199786,1960,1893,e_S
1788787480.19984,1849,2621,e_S
1788787480.1999848,1889,2116,e_S
1788787480.200035,2127,1863,e_S
1788787480.200084,2186,1919,e_S
1788787480.2001312,2028,2006,e_S
1788787480.2022169,2149,2331,e_S
1788787480.2022688,2144,2049,e_S
1788787480.202317,2030,1803,e_S
1788787480.202365,1898,1797,e_S
1788787480.2024121,2124,2486,e_S
1788787480.2024589,2237,2445,e_S
1788787480.202506,2179,2211,e_S
1788787480.20268,2009,1886,e_S
1788787480.203267,2102,2314,e_S
1788787480.221963,2142,2307,e_S
1788787480.228821,2057,1687,e_S
1788787480.228894,1956,1381,e_S
1788787480.228946,1874,2228,e_S
1788787480.228995,1958,2263,e_S
1788787480.229043,2113,2301,e_S
1788787480.229182,2134,2064,e_S
1788787480.22958,2176,2271,e_S
1788787480.2296388,2234,2506,e_S
1788787480.229687,2006,1765,e_S
1788787480.229734,1966,1650,e_S
1788787480.2299058,2082,2073,e_S
1788787480.229998,2279,2486,e_S
1788787480.230046,2259,2634,e_S
1788787480.2301629,2095,2266,e_S
1788787480.23035,1965,1635,e_S
1788787480.230399,2154,3145,e_S
1788787480.230447,1928,1615,e_S
1788787480.2304919,1747,725,e_S
1788787480.23054,1784,1954,e_S
1788787480.230588,1977,2493,e_S
1788787480.230635,2067,2230,e_S
1788787480.230767,2145,2048,e_S
1788787480.230835,2132,1875,e_S
1788787480.230884,2252,2400,e_S
1788787480.233592,2316,2357,e_S
1788787480.2341728,2042,2096,e_S
1788787480.289406,1838,1871,e_S
1788787480.289597,1876,2330,e_S
1788787480.289888,1971,2235,e_S
1788787480.289957,2049,2258,e_S
1788787480.290059,1945,1567,e_S
1788787480.29014,2108,2168,e_S
1788787480.290217,2211,2430,e_S
1788787480.2902951,2175,2202,e_S
1788787480.2903612,2129,1924,e_S
1788787480.290425,2023,2465,e_S
1788787480.290486,2186,1924,e_S
1788787480.290546,2246,1956,e_S
1788787480.2906098,2115,2083,e_S
1788787480.290672,1993,1982,e_S
1788787480.290734,2115,2555,e_S
1788787480.290796,2173,2079,e_S
1788787480.290857,2011,1815,e_S
1788787480.291996,1870,1834,e_S
1788787480.292449,2082,2399,e_S
1788787480.292539,2225,2370,e_S
1788787480.2926168,2116,2221,e_S
1788787480.2926762,2027,1927,e_S
1788787480.2927308,2044,2354,e_S
1788787480.2927842,1967,2144,e_S
1788787480.2928362,2011,1764,e_S
1788787480.2928882,1895,1581,e_S
1788787480.2929401,1997,2361,e_S
1788787480.292993,2180,2417,e_S
1788787480.293046,2212,2128,e_S
1788787480.294385,2162,1873,e_S
1788787480.2957098,2126,2639,e_S
1788787480.298527,2207,1943,e_S
1788787480.299882,2005,1807,e_S
1788787480.302469,1934,1901,e_S
1788787480.303817,2063,2197,e_S
1788787480.307903,2229,2164,e_S
1788787480.30796,2155,2206,e_S
1788787480.3109372,1951,2092,e_S
1788787480.334671,1841,2145,e_S
1788787480.334767,2076,2701,e_S
1788787480.334833,2088,2104,e_S
1788787480.3348951,1979,1625,e_S
1788787480.334955,1755,1592,e_S
1788787480.3350139,1989,2319,e_S
1788787480.3350751,2277,2829,e_S
1788787480.335135,2370,1992,e_S
1788787480.335198,2126,1192,e_S
1788787480.335339,2208,2470,e_S
1788787480.3354392,2148,2139,e_S
1788787480.3354938,1850,2340,e_S
1788787480.335996,1925,1509,e_S
1788787480.3374689,1992,1832,e_S
1788787480.3453262,1965,2398,e_S
1788787480.345925,2004,2628,e_S
1788787480.348063,2075,1932,e_S
1788787480.348306,1987,1865,e_S
1788787480.351207,2159,2112,e_S
1788787480.353634,2143,2019,e_S
1788787480.3539321,2081,1753,e_S
1788787480.358024,2051,2181,e_S
1788787480.3582149,2059,2248,e_S
1788787480.358403,2116,2419,e_S
1788787480.361419,2172,2010,e_S
1788787480.3618,2098,2031,e_S
1788787480.364365,2260,2262,e_S
1788787480.365658,2193,2112,e_S
1788787480.368253,2090,1721,e_S
1788787480.38121,1951,1715,e_S
1788787480.387507,2016,2331,e_S
1788787480.3880801,2045,2335,e_S
1788787480.388559,2095,2287,e_S
1788787480.391047,2044,1822,e_S
1788787480.392448,2047,2347,e_S
1788787480.3925078,2144,2291,e_S
1788787480.392559,2057,1865,e_S
1788787480.3926988,1884,1457,e_S
1788787480.392749,1947,2254,e_S
1788787480.392797,2053,2128,e_S
1788787480.3928452,2144,2221,e_S
1788787480.3944142,2102,2064,e_S
1788787480.4010282,2036,2307,e_S
1788787480.407433,2191,2383,e_S
1788787480.4138439,2161,1953,e_S
1788787480.41456,2072,2015,e_S
1788787480.415172,1990,2155,e_S
1788787480.4156659,2101,1854,e_S
1788787480.418637,2085,2302,e_S
1788787480.418981,2109,2277,e_S
1788787480.4190762,2103,1937,e_S
1788787480.4191449,2049,2472,e_S
1788787480.419209,1969,2290,e_S
1788787480.4193652,1964,1546,e_S
1788787480.419481,1959,1577,e_S
1788787480.422192,2113,2679,e_S
1788787480.4235609,2101,2483,e_S
1788787480.426031,2188,2055,e_S
1788787480.430885,2125,1872,e_S
1788787480.432332,2141,2369,e_S
1788787480.433046,2070,2134,e_S
1788787480.436361,2033,1679,e_S
1788787480.4368079,1827,1647,e_S
1788787480.441613,1989,2508,e_S
1788787480.4419708,2109,2481,e_S
1788787480.442306,2062,1974,e_S
1788787480.4509099,2007,1841,e_S
1788787480.4510021,2180,2253,e_S
1788787480.451067,2322,2348,e_S
1788787480.4511292,2141,2077,e_S
1788787480.452524,1924,1528,e_S
1788787480.460628,1987,2274,e_S
1788787480.463234,2059,2163,e_S
1788787480.465069,2046,2200,e_S
1788787480.4658701,1966,2068,e_S
1788787480.468229,2076,2113,e_S
1788787480.473242,2260,2562,e_S
1788787480.476413,2174,2115,e_S
1788787480.477346,2022,1345,e_S
1788787480.477464,1864,1821,e_S
1788787480.4775832,2085,2630,e_S
1788787480.477652,2153,2386,e_S
1788787480.477715,2151,2061,e_S
1788787480.477777,2133,1780,e_S
1788787480.4802828,2129,2414,e_S
1788787480.4816,2090,2073,e_S
1788787480.484624,2045,1816,e_S
1788787480.491617,1894,1633,e_S
1788787480.492331,1996,2468,e_S
1788787480.4943712,2033,2303,e_S
1788787480.494581,2078,2179,e_S
1788787480.4949682,2027,2067,e_S
1788787480.4993222,2070,1986,e_S
1788787480.499647,2197,2254,e_S
1788787480.504283,2076,1992,e_S
1788787480.505056,1948,1698,e_S
1788787480.507873,1981,2110,e_S
1788787480.508051,2114,2132,e_S
1788787480.509105,2246,2342,e_S
1788787480.510468,2187,2155,e_S
1788787480.51164,2054,2273,e_S
1788787480.5185752,2125,2560,e_S
1788787480.521078,2100,1818,e_S
1788787480.5226,2007,1667,e_S
1788787480.522902,1898,1798,e_S
1788787480.523108,1985,2409,e_S
1788787480.525454,2100,2326,e_S
1788787480.526338,2178,2088,e_S
1788787480.532246,2055,1906,e_S
1788787480.53295,2097,2288,e_S
1788787480.5334249,2077,2068,e_S
1788787480.533907,2011,1901,e_S
1788787480.537816,1941,1676,e_S
1788787480.537915,2055,2402,e_S
1788787480.5406091,2113,2217,e_S
1788787480.541986,2146,2183,e_S
1788787480.544689,2067,2009,e_S
1788787480.546078,2075,2166,e_S
1788787480.5543108,2183,2282,e_S
1788787480.5554051,2080,1899,e_S
1788787480.556403,1962,1846,e_S
1788787480.55723,1991,2249,e_S
1788787480.5598001,2102,2123,e_S
1788787480.560215,2227,2259,e_S
1788787480.5624268,2085,2006,e_S
1788787480.562645,2015,1987,e_S
1788787480.5696561,2122,2454,e_S
1788787480.570009,2080,1975,e_S
1788787480.5706089,1977,1766,e_S
1788787480.570951,1868,1882,e_S
1788787480.57435,2005,2439,e_S
1788787480.5744262,2052,2210,e_S
1788787480.575857,2165,1989,e_S
1788787480.583942,2064,1900,e_S
1788787480.58613,2150,2409,e_S
1788787480.586499,2175,2080,e_S
1788787480.5887868,2052,1707,e_S
1788787480.591425,1895,1469,e_S
1788787480.63709,2009,2374,e_S
1788787480.63768,2070,2244,e_S
1788787480.637745,2129,2182,e_S
1788787480.637797,2066,2024,e_S
1788787480.637845,2032,2134,e_S
1788787480.638056,2159,2259,e_S
1788787480.638134,2078,1886,e_S
1788787480.6381881,1955,1698,e_S
1788787480.638237,1934,2161,e_S
1788787480.6382852,2039,2176,e_S
1788787480.6383328,2132,2264,e_S
1788787480.638379,2105,2065,e_S
1788787480.64236,2050,2060,e_S
1788787480.642453,2145,2417,e_S
1788787480.642504,2076,1931,e_S
1788787480.642553,1974,1777,e_S
1788787480.642602,1902,1833,e_S
1788787480.642693,2052,2349,e_S
1788787480.642743,2103,2322,e_S
1788787480.642879,2122,2087,e_S
1788787480.643062,2058,1925,e_S
1788787480.6432261,2111,2299,e_S
1788787480.64329,2122,2011,e_S
1788787480.643349,2015,1764,e_S
1788787480.643403,1890,1654,e_S
1788787480.643456,2013,2377,e_S
1788787480.6435661,2085,2271,e_S
1788787480.643696,2101,2190,e_S
1788787480.6438248,2067,1964,e_S
1788787480.646657,2061,2094,e_S
1788787480.648232,2161,2250,e_S
1788787480.650384,2055,1857,e_S
1788787480.6583738,1941,1667,e_S
1788787480.65929,1989,2191,e_S
1788787480.662032,2083,2204,e_S
1788787480.6625018,2123,2295,e_S
1788787480.671467,2097,2033,e_S
1788787480.675429,2057,2077,e_S
1788787480.6755662,2116,2407,e_S
1788787480.6756291,2056,1965,e_S
1788787480.675751,1954,1799,e_S
1788787480.675811,1868,1810,e_S
1788787480.6759748,2032,2241,e_S
1788787480.67606,2118,2305,e_S
1788787480.6761239,2101,2103,e_S
1788787480.677491,2037,1906,e_S
1788787480.6868422,2115,2292,e_S
1788787480.69152,2119,2000,e_S
1788787480.6917162,2026,1814,e_S
1788787480.6962602,1898,1668,e_S
1788787480.697076,2022,2336,e_S
1788787480.6976361,2078,2278,e_S
1788787480.70074,2141,2192,e_S
1788787480.7008882,2094,1937,e_S
1788787480.7010481,2058,2111,e_S
1788787480.70114,2177,2215,e_S
1788787480.701291,2071,1924,e_S
1788787480.7014332,1928,1720,e_S
1788787480.704061,1900,2183,e_S
1788787480.705452,2030,2174,e_S
1788787480.711877,2108,2247,e_S
1788787480.7126458,2088,1964,e_S
1788787480.714504,2066,2049,e_S
1788787480.717013,2172,2353,e_S
1788787480.71936,2097,1928,e_S
1788787480.721715,2003,1775,e_S
1788787480.726018,1818,1898,e_S
1788787480.726356,2028,2317,e_S
1788787480.726652,2192,2281,e_S
1788787480.726989,2156,2112,e_S
1788787480.73018,2051,1979,e_S
1788787480.730324,2080,2374,e_S
1788787480.7317498,2148,1975,e_S
1788787480.73854,2049,1798,e_S
1788787480.743293,1904,1652,e_S
1788787480.745455,2031,2417,e_S
1788787480.747725,2095,2288,e_S
1788787480.747872,2121,2119,e_S
1788787480.752324,2053,1948,e_S
1788787480.7526212,2069,2197,e_S
1788787480.753115,2160,2245,e_S
1788787480.75652,2090,1902,e_S
1788787480.756644,1967,1672,e_S
1788787480.756726,1980,2225,e_S
1788787480.756831,2086,2175,e_S
1788787480.7581928,2141,2244,e_S
1788787480.75953,2109,2040,e_S
1788787480.7621162,2049,2081,e_S
1788787480.768304,2170,2390,e_S
1788787480.77184,2101,1928,e_S
1788787480.772198,1957,1796,e_S
1788787480.772498,1856,1919,e_S
1788787480.7750452,2065,2252,e_S
1788787480.777005,2139,2285,e_S
1788787480.777178,2163,2078,e_S
1788787480.781466,2040,1974,e_S
1788787480.78212,2081,2372,e_S
1788787480.782448,2120,1961,e_S
1788787480.785393,2060,1787,e_S
1788787480.785517,1912,1674,e_S
1788787480.788129,2021,2386,e_S
1788787480.7944949,2063,2255,e_S
1788787480.795799,2090,2143,e_S
1788787480.806653,2049,1904,e_S
1788787480.810237,2068,2158,e_S
1788787480.8102999,2163,2203,e_S
1788787480.8103511,2121,1888,e_S
1788787480.810459,1961,1720,e_S
1788787480.8105931,1988,2227,e_S
1788787480.810689,2060,2184,e_S
1788787480.8107579,2113,2213,e_S
1788787480.810823,2109,2034,e_S
1788787480.8122408,2071,2102,e_S
1788787480.813626,2146,2350,e_S
1788787480.816284,2083,1913,e_S
1788787480.823643,1980,1793,e_S
1788787480.8245609,1853,1937,e_S
1788787480.8259351,2056,2231,e_S
1788787480.828177,2139,2304,e_S
1788787480.8284538,2126,2091,e_S
1788787480.8309891,2026,1957,e_S
1788787480.833406,2099,2403,e_S
1788787480.838352,2111,1925,e_S
1788787480.8389828,1991,1844,e_S
1788787480.8419049,1855,1725,e_S
1788787480.842747,2002,2359,e_S
1788787480.843094,2119,2268,e_S
1788787480.843162,2121,2167,e_S
1788787480.8445199,2076,2053,e_S
1788787480.8459039,2088,2151,e_S
1788787480.852915,2101,2134,e_S
1788787480.856461,2041,1924,e_S
1788787480.858443,1918,1727,e_S
1788787480.859293,1940,2279,e_S
1788787480.8613162,2040,2221,e_S
1788787480.861599,2111,2182,e_S
1788787480.866836,2094,2035,e_S
1788787480.870152,2037,2064,e_S
1788787480.870262,2149,2373,e_S
1788787480.870341,2090,1939,e_S
1788787480.8703911,1969,1768,e_S
1788787480.870548,1875,1972,e_S
1788787480.872142,2064,2251,e_S
1788787480.873587,2112,2362,e_S
1788787480.876296,2091,2012,e_S
1788787480.8830578,2027,1925,e_S
1788787480.88399,2128,2434,e_S
1788787480.886625,2144,1989,e_S
1788787480.8872058,2032,1785,e_S
1788787480.890055,1878,1749,e_S
1788787480.891952,1973,2287,e_S
1788787480.892149,2067,2289,e_S
1788787480.896397,2132,2203,e_S
1788787480.897147,2053,1970,e_S
1788787480.8974562,2092,2102,e_S
1788787480.897801,2187,2160,e_S
1788787480.901074,2096,1987,e_S
1788787480.9024441,1960,1725,e_S
1788787480.9038022,1989,2257,e_S
1788787480.9114728,2116,2112,e_S
1788787480.9122071,2179,2219,e_S
1788787480.912908,2124,1957,e_S
1788787480.9151208,2065,2165,e_S
1788787480.915476,2143,2297,e_S
1788787480.91572,2087,1929,e_S
1788787480.919693,1982,1787,e_S
1788787480.920108,1884,1920,e_S
1788787480.9251058,2059,2337,e_S
1788787480.928242,2108,2271,e_S
1788787480.9286468,2128,2057,e_S
1788787480.928719,2056,1984,e_S
1788787480.929879,2113,2428,e_S
1788787480.932511,2118,2010,e_S
1788787480.9339461,2027,1827,e_S
1788787480.942355,1901,1706,e_S
1788787480.943937,2036,2430,e_S
1788787480.9452732,2110,2284,e_S
1788787480.946133,2126,2150,e_S
1788787480.946388,2062,2036,e_S
1788787480.948651,2080,2135,e_S
1788787480.949125,2170,2215,e_S
1788787480.951791,2090,1901,e_S
1788787480.953943,1917,1746,e_S
1788787480.958328,1921,2302,e_S
1788787480.958695,2074,2226,e_S
1788787480.958909,2184,2220,e_S
1788787480.962024,2140,2061,e_S
1788787480.962462,2073,2131,e_S
1788787480.9638011,2169,2327,e_S
1788787480.971984,2105,1973,e_S
1788787480.9750881,1992,1774,e_S
1788787480.97548,1917,2030,e_S
1788787480.977673,2051,2196,e_S
1788787480.9800162,2137,2281,e_S
1788787480.980566,2118,2073,e_S
1788787480.9856262,2041,1987,e_S
1788787480.9859588,2125,2414,e_S
1788787480.986283,2127,1985,e_S
1788787480.9865239,2044,1805,e_S
1788787480.98703,1911,1728,e_S
1788787480.990444,2024,2362,e_S
1788787480.990686,2100,2321,e_S
1788787480.99203,2146,2114,e_S
1788787480.9934568,2065,1940,e_S
1788787480.9961119,2086,2171,e_S
1788787480.997898,2169,2188,e_S
1788787481.002762,2092,1948,e_S
1788787481.00411,1938,1721,e_S
1788787481.0048928,1973,2248,e_S
1788787481.0081751,2074,2177,e_S
1788787481.008517,2138,2226,e_S
1788787481.0106602,2100,2021,e_S
1788787481.0170429,2071,2127,e_S
1788787481.0175061,2179,2355,e_S
1788787481.017816,2102,1960,e_S
1788787481.018212,2017,1788,e_S
1788787481.0215628,1907,1998,e_S
1788787481.0218859,2051,2221,e_S
1788787481.024566,2135,2302,e_S
1788787481.030638,2128,2052,e_S
1788787481.0313332,2037,2000,e_S
1788787481.0347168,2139,2430,e_S
1788787481.037848,2114,1986,e_S
1788787481.043723,2026,1842,e_S
1788787481.043981,1899,1708,e_S
1788787481.044287,2049,2418,e_S
1788787481.044786,2132,2307,e_S
1788787481.045095,2140,2147,e_S
1788787481.045504,2064,1970,e_S
1788787481.045794,2077,2163,e_S
1788787481.0481641,2165,2153,e_S
1788787481.0496588,2056,1923,e_S
1788787481.0522938,1931,1720,e_S
1788787481.0537028,1963,2278,e_S
1788787481.061388,2067,2118,e_S
1788787481.0626829,2145,2247,e_S
1788787481.065173,2100,2033,e_S
1788787481.065639,2062,2126,e_S
1788787481.066043,2173,2322,e_S
1788787481.069342,2079,1975,e_S
1788787481.071223,1985,1785,e_S
1788787481.075499,1911,2042,e_S
1788787481.075637,2059,2214,e_S
1788787481.076194,2133,2304,e_S
1788787481.076494,2130,2138,e_S
1788787481.079604,2048,2021,e_S
1788787481.079979,2141,2400,e_S
1788787481.081435,2129,1969,e_S
1788787481.089519,2016,1818,e_S
1788787481.0930712,1900,1777,e_S
1788787481.093569,2037,2361,e_S
1788787481.098324,2107,2290,e_S
1788787481.103041,2138,2119,e_S
1788787481.104087,2069,1943,e_S
1788787481.107517,2105,2212,e_S
1788787481.107662,2182,2183,e_S
1788787481.1077561,2076,1923,e_S
1788787481.107902,1926,1672,e_S
1788787481.10799,1968,2336,e_S
1788787481.1081321,2091,2178,e_S
1788787481.1082501,2157,2219,e_S
1788787481.1094642,2109,1989,e_S
1788787481.112128,2078,2061,e_S
1788787481.113812,2181,2381,e_S
1788787481.120995,2113,1953,e_S
1788787481.122541,2004,1779,e_S
1788787481.12506,1898,2031,e_S
1788787481.1254342,2055,2201,e_S
1788787481.127242,2130,2282,e_S
1788787481.128661,2134,2041,e_S
1788787481.1304588,2073,2013,e_S
1788787481.134769,2135,2432,e_S
1788787481.13535,2115,1962,e_S
1788787481.135865,2019,1840,e_S
1788787481.1360362,1893,1721,e_S
1788787481.1392808,2038,2383,e_S
1788787481.139617,2099,2313,e_S
1788787481.142037,2147,2151,e_S
1788787481.150312,2067,1965,e_S
1788787481.15279,2090,2176,e_S
1788787481.1550238,2157,2150,e_S
1788787481.1572428,2077,1905,e_S
1788787481.157514,1934,1726,e_S
1788787481.157742,1972,2325,e_S
1788787481.161815,2076,2171,e_S
1788787481.1623948,2155,2212,e_S
1788787481.162729,2092,2015,e_S
1788787481.162949,2057,2155,e_S
1788787481.1663518,2159,2304,e_S
1788787481.1664279,2108,1968,e_S
1788787481.167786,1974,1801,e_S
1788787481.1704268,1906,2054,e_S
1788787481.171786,2066,2206,e_S
1788787481.174471,2152,2284,e_S
1788787481.17942,2135,2097,e_S
1788787481.1820211,2057,1999,e_S
1788787481.184293,2145,2431,e_S
1788787481.18464,2129,1988,e_S
1788787481.187378,2025,1784,e_S
1788787481.189843,1909,1798,e_S
1788787481.194277,2042,2418,e_S
1788787481.194944,2117,2301,e_S
1788787481.195358,2127,2139,e_S
1788787481.195918,2063,1982,e_S
1788787481.196198,2083,2172,e_S
1788787481.19956,2158,2125,e_S
1788787481.1996522,2071,1932,e_S
1788787481.2027578,1951,1718,e_S
1788787481.209153,1989,2282,e_S
1788787481.2126248,2077,2177,e_S
1788787481.2131279,2141,2198,e_S
1788787481.2134311,2088,2036,e_S
1788787481.2163079,2079,2142,e_S
1788787481.2165298,2177,2334,e_S
1788787481.218274,2097,1981,e_S
1788787481.218627,1958,1808,e_S
1788787481.223285,1891,2078,e_S
1788787481.2235541,2065,2201,e_S
1788787481.223849,2149,2283,e_S
1788787481.227221,2112,2096,e_S
1788787481.228478,2041,1999,e_S
1788787481.22963,2140,2409,e_S
1788787481.232254,2122,1957,e_S
1788787481.233588,2036,1861,e_S
1788787481.2414238,1886,1757,e_S
1788787481.243983,2015,2386,e_S
1788787481.244517,2119,2290,e_S
1788787481.246594,2139,2114,e_S
1788787481.249075,2066,2024,e_S
1788787481.253268,2084,2191,e_S
1788787481.253539,2172,2120,e_S
1788787481.254292,2065,1951,e_S
1788787481.257301,1935,1690,e_S
1788787481.2574809,1979,2323,e_S
1788787481.2577841,2064,2188,e_S
1788787481.257909,2153,2194,e_S
1788787481.2605271,2107,2025,e_S
1788787481.266077,2050,2131,e_S
1788787481.270062,2164,2308,e_S
1788787481.274452,2108,1969,e_S
1788787481.27472,1982,1807,e_S
1788787481.2748978,1916,2095,e_S
1788787481.278879,2076,2168,e_S
1788787481.279163,2145,2297,e_S
1788787481.27967,2143,2091,e_S
1788787481.280158,2064,1964,e_S
1788787481.28049,2139,2456,e_S
1788787481.283357,2120,1968,e_S
1788787481.2836428,2024,1843,e_S
1788787481.286317,1878,1782,e_S
1788787481.2876842,2035,2395,e_S
1788787481.294852,2100,2286,e_S
1788787481.296078,2130,2159,e_S
1788787481.2995179,2080,1976,e_S
1788787481.2998002,2075,2186,e_S
1788787481.299914,2148,2123,e_S
1788787481.300162,2047,1906,e_S
1788787481.3041642,1913,1698,e_S
1788787481.3084009,1988,2310,e_S
1788787481.309004,2075,2208,e_S
1788787481.309442,2144,2219,e_S
1788787481.30966,2096,2005,e_S
1788787481.312583,2063,2149,e_S
1788787481.313907,2179,2359,e_S
1788787481.3223119,2088,1975,e_S
1788787481.324634,1965,1760,e_S
1788787481.324885,1922,2108,e_S
1788787481.325095,2046,2186,e_S
1788787481.327032,2129,2268,e_S
1788787481.3277261,2119,2074,e_S
1788787481.3278542,2067,2010,e_S
1788787481.3296142,2143,2434,e_S
1788787481.3338351,2113,1980,e_S
1788787481.333966,2006,1851,e_S
1788787481.336809,1896,1766,e_S
1788787481.3381891,2053,2383,e_S
1788787481.339624,2131,2303,e_S
1788787481.341473,2152,2145,e_S
1788787481.344094,2090,1954,e_S
1788787481.349959,2083,2194,e_S
1788787481.353478,2173,2127,e_S
1788787481.353698,2078,1898,e_S
1788787481.358054,1937,1713,e_S
1788787481.35829,1991,2306,e_S
1788787481.36222,2083,2202,e_S
1788787481.3624508,2134,2214,e_S
1788787481.3627489,2074,1991,e_S
1788787481.362974,2058,2157,e_S
1788787481.365978,2168,2321,e_S
1788787481.3662138,2091,1936,e_S
1788787481.3677042,1980,1821,e_S
1788787481.374652,1915,2132,e_S
1788787481.3753228,2049,2183,e_S
1788787481.375953,2148,2256,e_S
1788787481.376694,2123,2059,e_S
1788787481.378603,2068,2025,e_S
1788787481.381012,2162,2442,e_S
1788787481.382668,2128,1962,e_S
1788787481.386563,2025,1834,e_S
1788787481.386815,1887,1786,e_S
1788787481.3903208,2050,2354,e_S
1788787481.390503,2113,2296,e_S
1788787481.392172,2150,2165,e_S
1788787481.393559,2078,1975,e_S
1788787481.396676,2085,2232,e_S
1788787481.402547,2150,2108,e_S
1788787481.4037278,2080,1872,e_S
1788787481.405947,1930,1693,e_S
1788787481.408057,1976,2322,e_S
1788787481.408923,2074,2194,e_S
1788787481.414304,2151,2186,e_S
1788787481.41473,2101,1984,e_S
1788787481.415165,2068,2123,e_S
1788787481.415551,2181,2314,e_S
1788787481.4187799,2098,1975,e_S
1788787481.4193048,1983,1793,e_S
1788787481.419426,1916,2125,e_S
1788787481.421867,2069,2170,e_S
1788787481.4316108,2143,2266,e_S
1788787481.431778,2135,2075,e_S
1788787481.432031,2078,2020,e_S
1788787481.4322162,2162,2437,e_S
1788787481.4326348,2126,1964,e_S
1788787481.43585,2025,1851,e_S
1788787481.4412942,1890,1803,e_S
1788787481.441844,2054,2340,e_S
1788787481.442134,2118,2316,e_S
1788787481.4427478,2121,2170,e_S
1788787481.4459488,2064,1949,e_S
1788787481.4460611,2097,2214,e_S
1788787481.447423,2173,2104,e_S
1788787481.450005,2067,1899,e_S
1788787481.451443,1912,1690,e_S
1788787481.461907,2004,2318,e_S
1788787481.4660008,2099,2209,e_S
1788787481.466433,2163,2175,e_S
1788787481.471043,2106,2010,e_S
1788787481.471703,2067,2169,e_S
1788787481.471974,2172,2328,e_S
1788787481.472173,2092,1967,e_S
1788787481.472555,1987,1782,e_S
1788787481.472737,1927,2134,e_S
1788787481.47685,2052,2183,e_S
1788787481.477025,2152,2281,e_S
1788787481.477109,2137,2083,e_S
1788787481.478559,2063,2010,e_S
1788787481.486156,2149,2451,e_S
1788787481.488374,2127,1972,e_S
1788787481.4886558,2029,1888,e_S
1788787481.491019,1886,1820,e_S
1788787481.4974048,2066,2343,e_S
1788787481.498132,2121,2307,e_S
1788787481.498772,2143,2364,e_S
1788787481.5013912,2087,1875,e_S
1788787481.502448,2094,2023,e_S
1788787481.50252,2124,2068,e_S
1788787481.5025852,2048,1998,e_S
1788787481.502646,1918,1856,e_S
1788787481.503989,1991,2333,e_S
1788787481.506638,2086,2098,e_S
1788787481.507987,2163,2146,e_S
1788787481.509422,2106,2154,e_S
1788787481.516832,2109,2069,e_S
1788787481.519264,2167,2459,e_S
1788787481.519511,2066,2015,e_S
1788787481.5197198,1933,1698,e_S
1788787481.52014,1945,1955,e_S
1788787481.5228071,2049,2170,e_S
1788787481.524491,2136,2302,e_S
1788787481.528652,2115,2131,e_S
1788787481.5291038,1979,2107,e_S
1788787481.53234,2128,2509,e_S
1788787481.532444,2122,2005,e_S
1788787481.533802,2062,1793,e_S
1788787481.541527,1895,1605,e_S
1788787481.5446,1957,2368,e_S
1788787481.545053,2114,2700,e_S
1788787481.545412,2174,2152,e_S
1788787481.547617,2039,1950,e_S
1788787481.547931,2160,1967,e_S
1788787481.548782,2193,1962,e_S
1788787481.554404,2022,2035,e_S
1788787481.554969,1915,2046,e_S
1788787481.555434,1986,2678,e_S
1788787481.55584,2092,2008,e_S
1788787481.558262,2190,1570,e_S
1788787481.559628,2024,2149,e_S
1788787481.562212,2091,2473,e_S
1788787481.563561,2152,2310,e_S
1788787481.572748,2094,1770,e_S
1788787481.573675,1973,1639,e_S
1788787481.5766761,2005,2155,e_S
1788787481.576998,2261,2166,e_S
1788787481.577285,2082,2273,e_S
1788787481.580122,1983,2200,e_S
1788787481.582043,1995,2199,e_S
1788787481.5858848,2149,2229,e_S
1788787481.586389,2122,1745,e_S
1788787481.586755,2047,1895,e_S
1788787481.587111,1843,1910,e_S
1788787481.590657,2007,2615,e_S
1788787481.590986,2152,2009,e_S
1788787481.59235,2234,1823,e_S
1788787481.598052,2098,1976,e_S
1788787481.5999548,2193,2185,e_S
1788787481.602966,2128,2093,e_S
1788787481.603314,2230,1854,e_S
1788787481.603713,1878,1775,e_S
1788787481.60394,1708,2203,e_S
1788787481.6065779,1900,2115,e_S
1788787481.608417,2133,2249,e_S
1788787481.612475,2211,2045,e_S
1788787481.612959,2101,2282,e_S
1788787481.616095,2168,2466,e_S
1788787481.616179,2176,1844,e_S
1788787481.61753,1964,2128,e_S
1788787481.620234,1940,2242,e_S
1788787481.6216269,1988,1953,e_S
1788787481.629128,2180,1731,e_S
1788787481.630419,2303,2141,e_S
1788787481.6333702,2187,2162,e_S
1788787481.634039,2213,2398,e_S
1788787481.638623,2052,1914,e_S
1788787481.643342,1930,1718,e_S
1788787481.644063,1874,1996,e_S
1788787481.644544,2178,2700,e_S
1788787481.647817,2162,2297,e_S
1788787481.647918,2339,2111,e_S
1788787481.647988,2047,1807,e_S
1788787481.648052,1802,2358,e_S
1788787481.648114,1943,2260,e_S
1788787481.649466,2178,1800,e_S
1788787481.657043,1868,1646,e_S
1788787481.657794,1958,2335,e_S
1788787481.658533,2012,2261,e_S
1788787481.661248,2165,2140,e_S
1788787481.663558,2065,2439,e_S
1788787481.666018,1838,2292,e_S
1788787481.670924,2282,1998,e_S
1788787481.6715908,2364,2287,e_S
1788787481.6720011,2179,1897,e_S
1788787481.674856,2021,1735,e_S
1788787481.6753001,2057,1845,e_S
1788787481.675377,2124,2492,e_S
1788787481.675447,2126,2625,e_S
1788787481.678059,2145,1796,e_S
1788787481.679447,2166,1757,e_S
1788787481.682086,2019,2036,e_S
1788787481.6921558,2072,2172,e_S
1788787481.692541,1916,1893,e_S
1788787481.692915,2107,2367,e_S
1788787481.6931782,2100,2372,e_S
1788787481.695185,2273,2297,e_S
1788787481.695925,2016,2134,e_S
1788787481.6978948,2000,2133,e_S
1788787481.7022579,2085,2186,e_S
1788787481.7025962,2118,1836,e_S
1788787481.703031,2157,1877,e_S
1788787481.706408,2415,2444,e_S
1788787481.7075331,1990,2466,e_S
1788787481.7076218,1768,1739,e_S
1788787481.710346,1977,2019,e_S
1788787481.717067,2053,2254,e_S
1788787481.717728,2014,2212,e_S
1788787481.7184799,2136,2219,e_S
1788787481.7205818,2014,1664,e_S
1788787481.7234612,1775,1942,e_S
1788787481.725271,2261,2176,e_S
1788787481.7294788,2302,2442,e_S
1788787481.72982,2166,2358,e_S
1788787481.730338,2215,1860,e_S
1788787481.730738,2432,2421,e_S
1788787481.7337458,2013,2064,e_S
1788787481.733825,1700,2501,e_S
1788787481.7365189,1719,1534,e_S
1788787481.737939,2195,1313,e_S
1788787481.739587,2172,2416,e_S
1788787481.746788,2193,2698,e_S
1788787481.7486458,2053,1858,e_S
1788787481.751392,2244,2121,e_S
1788787481.751761,2322,2310,e_S
1788787481.75425,2190,1944,e_S
1788787481.754956,1946,1706,e_S
1788787481.755152,1955,2686,e_S
1788787481.761068,2098,2589,e_S
1788787481.761708,2264,1484,e_S
1788787481.762074,2195,1661,e_S
1788787481.764401,2146,2448,e_S
1788787481.765409,2194,2687,e_S
1788787481.765495,2140,1683,e_S
1788787481.768165,1851,1727,e_S
1788787481.7748191,1890,2071,e_S
1788787481.776224,2126,2316,e_S
1788787481.778798,2205,2133,e_S
1788787481.77911,2100,2135,e_S
1788787481.7819479,2023,2227,e_S
1788787481.7838342,2173,2629,e_S
1788787481.7842162,2208,2039,e_S
1788787481.784493,2058,1868,e_S
1788787481.788828,1892,1737,e_S
1788787481.789126,1927,2528,e_S
1788787481.7924821,2011,2608,e_S
1788787481.792566,2129,2354,e_S
1788787481.793903,2138,1579,e_S
1788787481.7965472,2056,2057,e_S
1788787481.7978728,2187,2128,e_S
1788787481.799551,2116,1811,e_S
1788787481.8063219,2011,1647,e_S
1788787481.8072479,2036,2280,e_S
1788787481.808616,2129,2238,e_S
1788787481.810994,2169,2486,e_S
1788787481.811383,2057,2377,e_S
1788787481.8142028,2106,1761,e_S
1788787481.8205922,2149,2489,e_S
1788787481.8210518,1993,2239,e_S
1788787481.821536,2003,1744,e_S
1788787481.821928,1976,2114,e_S
1788787481.822447,2036,2100,e_S
1788787481.825876,2156,2050,e_S
1788787481.826259,2105,2041,e_S
1788787481.827639,2021,2395,e_S
1788787481.835395,2161,2566,e_S
1788787481.8361,2163,1620,e_S
1788787481.8374012,2005,1817,e_S
1788787481.839455,1850,1919,e_S
1788787481.841563,2013,2605,e_S
1788787481.841872,2181,2342,e_S
1788787481.8479722,2288,2175,e_S
1788787481.8483489,2064,1497,e_S
1788787481.848588,2025,2364,e_S
1788787481.848876,2056,2324,e_S
1788787481.851997,2048,2033,e_S
1788787481.8520908,1956,1649,e_S
1788787481.853506,2006,2414,e_S
1788787481.8562,2047,1798,e_S
1788787481.857562,2086,1991,e_S
1788787481.866164,2211,2229,e_S
1788787481.8708532,2212,2577,e_S
1788787481.877603,2311,2660,e_S
1788787481.877776,2177,1516,e_S
1788787481.8781068,1872,1626,e_S
1788787481.87831,1865,1858,e_S
1788787481.880716,1971,2258,e_S
1788787481.881671,2107,2489,e_S
1788787481.8817291,1989,2222,e_S
1788787481.881931,1999,1748,e_S
1788787481.882037,2160,2812,e_S
1788787481.882143,2220,2101,e_S
1788787481.883538,2151,1573,e_S
1788787481.893214,1835,1570,e_S
1788787481.8937652,1883,2484,e_S
1788787481.89648,2076,2546,e_S
1788787481.898064,2161,2105,e_S
1788787481.902223,2075,1898,e_S
1788787481.9025202,2035,2075,e_S
1788787481.902695,2101,2225,e_S
1788787481.9028502,1987,1887,e_S
1788787481.903114,1973,1673,e_S
1788787481.906548,2148,2555,e_S
1788787481.906654,2190,2295,e_S
1788787481.90802,2223,2122,e_S
1788787481.909458,2031,1868,e_S
1788787481.9120488,2039,1971,e_S
1788787481.913694,2135,2441,e_S
1788787481.9189482,1962,2468,e_S
1788787481.9196868,1929,1352,e_S
1788787481.9229472,1963,2137,e_S
1788787481.925266,2166,1850,e_S
1788787481.925998,2353,2394,e_S
1788787481.927744,2179,2175,e_S
1788787481.931764,2052,2096,e_S
1788787481.932052,2079,2359,e_S
1788787481.932329,1984,2044,e_S
1788787481.9354901,1931,1766,e_S
1788787481.9355562,1890,1842,e_S
1788787481.938251,2018,2489,e_S
1788787481.9427898,2200,2314,e_S
1788787481.942965,2112,2277,e_S
1788787481.94675,1931,2169,e_S
1788787481.9471118,2152,1870,e_S
1788787481.9512372,2126,1952,e_S
1788787481.9555461,2157,1918,e_S
1788787481.955981,1889,1507,e_S
1788787481.958826,2022,2340,e_S
1788787481.959475,2114,2232,e_S
1788787481.959785,2113,2242,e_S
1788787481.9599218,2077,2268,e_S
1788787481.962527,2162,2169,e_S
1788787481.963846,2284,2250,e_S
1788787481.966444,2082,2274,e_S
1788787481.9727209,1981,1618,e_S
1788787481.973824,1937,1979,e_S
1788787481.9756649,2134,2295,e_S
1788787481.977412,2112,2079,e_S
1788787481.9780018,1942,1820,e_S
1788787481.979399,2046,2122,e_S
1788787481.979618,2339,2550,e_S
1788787481.9830909,2268,2027,e_S
1788787481.9860969,1792,1812,e_S
1788787481.986249,1805,1861,e_S
1788787481.9876091,2062,2590,e_S
1788787481.995445,2200,2249,e_S
1788787481.997461,2117,2309,e_S
1788787481.9992871,1997,1814,e_S
1788787482.0015502,2014,2071,e_S
1788787482.0055969,2102,2102,e_S
1788787482.006034,2112,1981,e_S
1788787482.00646,2026,2146,e_S
1788787482.007139,2045,2084,e_S
1788787482.009773,2009,1220,e_S
1788787482.0101671,2076,2553,e_S
1788787482.010274,2099,2527,e_S
1788787482.011612,2171,2103,e_S
1788787482.014248,2215,2158,e_S
1788787482.015626,2041,2229,e_S
1788787482.037318,1995,1262,e_S
1788787482.0374558,1965,2077,e_S
1788787482.037872,2005,2418,e_S
1788787482.037948,2053,2350,e_S
1788787482.0381088,2080,2127,e_S
1788787482.0382159,2072,2070,e_S
1788787482.038291,2184,2487,e_S
1788787482.038354,2032,1995,e_S
1788787482.03948,2060,1694,e_S
1788787482.040255,1998,1943,e_S
1788787482.05692,2185,2350,e_S
1788787482.057738,2126,2690,e_S
1788787482.058035,2115,2035,e_S
1788787482.058435,2092,1690,e_S
1788787482.058511,2180,2104,e_S
1788787482.058578,2103,2188,e_S
1788787482.058642,1948,1927,e_S
1788787482.0587049,1812,1543,e_S
1788787482.0587652,1974,2511,e_S
1788787482.058827,2084,2007,e_S
1788787482.058893,2129,2276,e_S
1788787482.0606022,2074,1949,e_S
1788787482.062072,2086,2177,e_S
1788787482.0634491,2298,2433,e_S
1788787482.071321,2128,1858,e_S
1788787482.073314,1941,1603,e_S
1788787482.073617,2063,2207,e_S
1788787482.075777,2214,2254,e_S
1788787482.076133,2223,2536,e_S
1788787482.076326,2159,2418,e_S
1788787482.078593,1970,1910,e_S
1788787482.080944,2006,2258,e_S
1788787482.0853388,2105,1947,e_S
1788787482.085784,1908,1626,e_S
1788787482.086286,1715,1783,e_S
1788787482.090573,1989,2211,e_S
1788787482.090892,2058,2322,e_S
1788787482.0922801,2103,2199,e_S
1788787482.0936341,2058,2215,e_S
1788787482.1007428,2152,2309,e_S
1788787482.103513,2238,1938,e_S
1788787482.1061509,2143,1902,e_S
1788787482.108684,2006,2001,e_S
1788787482.1130729,2122,2347,e_S
1788787482.113489,2086,2131,e_S
1788787482.1137679,2089,1926,e_S
1788787482.113961,2004,1929,e_S
1788787482.114284,1981,2167,e_S
1788787482.114497,2197,2402,e_S
1788787482.1178172,2136,1981,e_S
1788787482.118059,2049,1725,e_S
1788787482.119426,1974,2208,e_S
1788787482.122106,2002,2159,e_S
1788787482.1234958,2171,2288,e_S
1788787482.132789,2134,2351,e_S
1788787482.134339,2050,2305,e_S
1788787482.13677,2220,2065,e_S
1788787482.139394,2109,1924,e_S
1788787482.141255,1772,1924,e_S
1788787482.1416728,1780,1934,e_S
1788787482.146382,2118,2227,e_S
1788787482.14693,2151,2132,e_S
1788787482.147315,2130,2230,e_S
1788787482.147694,2098,1716,e_S
1788787482.147821,2133,2407,e_S
1788787482.151016,2170,2179,e_S
1788787482.151118,2072,1829,e_S
1788787482.152481,1773,1593,e_S
1788787482.1538491,2078,2368,e_S
1788787482.1603682,2185,2346,e_S
1788787482.16343,2205,2284,e_S
1788787482.163748,2157,2032,e_S
1788787482.1662982,2143,2044,e_S
1788787482.167061,2193,2409,e_S
1788787482.168961,2119,2050,e_S
1788787482.17344,1923,1615,e_S
1788787482.173751,1833,2207,e_S
1788787482.1742148,1934,2252,e_S
1788787482.174442,2061,2098,e_S
1788787482.1775901,2068,2039,e_S
1788787482.177921,2180,2457,e_S
1788787482.1805708,2295,2320,e_S
1788787482.181725,2274,1637,e_S
1788787482.184672,2087,1998,e_S
1788787482.190845,1804,1903,e_S
1788787482.194067,2189,2080,e_S
1788787482.196098,2085,2625,e_S
1788787482.1968472,1946,2096,e_S
1788787482.203264,1886,1562,e_S
1788787482.203767,1976,2471,e_S
1788787482.204179,2031,2183,e_S
1788787482.204824,2055,1707,e_S
1788787482.207381,1995,1570,e_S
1788787482.20838,2105,2514,e_S
1788787482.208447,2199,2319,e_S
1788787482.20851,2151,2012,e_S
1788787482.2098591,2115,2008,e_S
1788787482.216964,2117,2233,e_S
1788787482.2177012,2166,2389,e_S
1788787482.218699,2072,1875,e_S
1788787482.221139,1928,1578,e_S
1788787482.221632,1859,2018,e_S
1788787482.224128,1999,2236,e_S
1788787482.225895,2282,2431,e_S
1788787482.226382,2176,2186,e_S
1788787482.2309241,2139,2195,e_S
1788787482.2315478,2275,2263,e_S
1788787482.231951,2236,2060,e_S
1788787482.235112,2079,1655,e_S
1788787482.236492,1803,1789,e_S
1788787482.237845,1973,2444,e_S
1788787482.240534,2175,2434,e_S
1788787482.2418911,2158,2131,e_S
1788787482.248139,2026,1899,e_S
1788787482.249494,1988,2228,e_S
1788787482.2498791,2105,1968,e_S
1788787482.252409,1985,1845,e_S
1788787482.252702,1867,2205,e_S
1788787482.2551749,1970,2078,e_S
1788787482.261921,2196,1739,e_S
1788787482.262323,2369,2379,e_S
1788787482.262698,2072,2045,e_S
1788787482.263131,2050,2252,e_S
1788787482.265604,2143,2398,e_S
1788787482.266571,2061,2075,e_S
1788787482.268001,1875,1731,e_S
1788787482.269496,1914,2212,e_S
1788787482.276785,2120,2206,e_S
1788787482.278074,2206,2099,e_S
1788787482.278307,2136,1869,e_S
1788787482.28021,2050,2203,e_S
1788787482.28058,2148,2467,e_S
1788787482.2828648,2135,1885,e_S
1788787482.285164,2062,1751,e_S
1788787482.289661,1889,1733,e_S
1788787482.290087,1959,2376,e_S
1788787482.2908092,2116,2421,e_S
1788787482.293822,2086,2229,e_S
1788787482.294145,2005,1986,e_S
1788787482.295501,2058,2469,e_S
1788787482.2983701,2106,2110,e_S
1788787482.2997591,2104,1670,e_S
1788787482.3065999,1965,1553,e_S
1788787482.307534,2094,2515,e_S
1788787482.308324,2149,1929,e_S
1788787482.3114932,2186,2241,e_S
1788787482.3118331,2117,1968,e_S
1788787482.313903,2038,2202,e_S
1788787482.31481,2104,2410,e_S
1788787482.3165991,2073,1766,e_S
1788787482.321293,2011,1660,e_S
1788787482.321929,1929,2266,e_S
1788787482.32243,1993,2275,e_S
1788787482.326163,2131,2144,e_S
1788787482.326249,2120,2040,e_S
1788787482.327738,2085,2083,e_S
1788787482.335166,2196,2461,e_S
1788787482.33649,2154,1915,e_S
1788787482.339731,1997,1750,e_S
1788787482.342182,1867,1898,e_S
1788787482.344416,2091,2330,e_S
1788787482.344757,2228,2457,e_S
1788787482.3450391,2208,2182,e_S
1788787482.345372,2061,2036,e_S
1788787482.3500469,2046,2214,e_S
1788787482.3503191,2162,1858,e_S
1788787482.3508182,2108,1759,e_S
1788787482.354272,1871,1601,e_S
1788787482.354354,1951,2483,e_S
1788787482.355766,2018,2500,e_S
1788787482.35846,2069,1934,e_S
1788787482.359835,2040,1971,e_S
1788787482.3674529,2051,2190,e_S
1788787482.368934,2225,2249,e_S
1788787482.370054,2093,1929,e_S
1788787482.372302,1976,1658,e_S
1788787482.374905,2019,2091,e_S
1788787482.375612,2073,2224,e_S
1788787482.377571,2139,2353,e_S
1788787482.3821912,2125,2115,e_S
1788787482.382616,2096,2111,e_S
1788787482.3830621,2215,2557,e_S
1788787482.3833642,2120,2050,e_S
1788787482.3838542,1963,1662,e_S
1788787482.387108,1867,1420,e_S
1788787482.388376,2017,2289,e_S
1788787482.3899362,2093,2400,e_S
1788787482.394868,2147,2139,e_S
1788787482.396687,2057,1896,e_S
1788787482.3990889,2073,2319,e_S
1788787482.399461,2141,2051,e_S
1788787482.4019682,2068,1840,e_S
1788787482.402983,1821,1618,e_S
1788787482.409041,2052,2372,e_S
1788787482.4093592,2172,2299,e_S
1788787482.409792,2196,2155,e_S
1788787482.410441,2106,1906,e_S
1788787482.413826,2048,2056,e_S
1788787482.414042,2140,2178,e_S
1788787482.415398,2085,1875,e_S
1788787482.418102,1953,1682,e_S
1788787482.4195,1958,2218,e_S
1788787482.4224699,2089,2179,e_S
1788787482.429002,2161,2272,e_S
1788787482.4305851,2100,2023,e_S
1788787482.432874,2052,2029,e_S
1788787482.4333389,2173,2355,e_S
1788787482.435431,2133,1898,e_S
1788787482.437779,2024,1737,e_S
1788787482.443031,1912,1867,e_S
1788787482.443441,2073,2289,e_S
1788787482.443698,2168,2340,e_S
1788787482.444163,2148,2095,e_S
1788787482.444323,2072,1921,e_S
1788787482.447628,2144,2298,e_S
1788787482.447716,2134,1990,e_S
1788787482.450389,2036,1786,e_S
1788787482.458293,1877,1616,e_S
1788787482.458497,2041,2342,e_S
1788787482.4592159,2149,2235,e_S
1788787482.461455,2172,2187,e_S
1788787482.463369,2103,1936,e_S
1788787482.470408,2074,2128,e_S
1788787482.471043,2174,2153,e_S
1788787482.471682,2075,1889,e_S
1788787482.474922,1944,1656,e_S
1788787482.4750578,1960,2192,e_S
1788787482.475134,2066,2171,e_S
1788787482.475283,2168,2250,e_S
1788787482.475405,2124,1997,e_S
1788787482.478025,2091,2081,e_S
1788787482.479403,2190,2379,e_S
1788787482.48229,2129,1916,e_S
1788787482.487884,2040,1849,e_S
1788787482.491562,1918,1907,e_S
1788787482.4917881,2042,2319,e_S
1788787482.491988,2126,2321,e_S
1788787482.494303,2132,2106,e_S
1788787482.496525,2068,1958,e_S
1788787482.496852,2126,2406,e_S
1788787482.504589,2142,1951,e_S
1788787482.504816,2037,1818,e_S
1788787482.5049338,1898,1602,e_S
1788787482.505016,2020,2367,e_S
1788787482.506528,2122,2324,e_S
1788787482.5081868,2157,2177,e_S
1788787482.512922,2066,1915,e_S
1788787482.5140831,2082,2147,e_S
1788787482.515263,2183,2149,e_S
1788787482.5200908,2089,1858,e_S
1788787482.5221171,1957,1687,e_S
1788787482.526411,1977,2206,e_S
1788787482.526809,2086,2176,e_S
1788787482.527255,2188,2209,e_S
1788787482.527552,2118,2020,e_S
1788787482.5278661,2049,2087,e_S
1788787482.53089,2143,2382,e_S
1788787482.532324,2109,1901,e_S
1788787482.533654,1980,1673,e_S
1788787482.5362759,1856,1863,e_S
1788787482.537622,2047,2135,e_S
1788787482.5429251,2140,2299,e_S
1788787482.5445812,2070,2057,e_S
1788787482.5451782,2021,1873,e_S
1788787482.547183,2137,2255,e_S
1788787482.549655,2112,1932,e_S
1788787482.54982,1983,1785,e_S
1788787482.555852,1898,1620,e_S
1788787482.55634,2083,2416,e_S
1788787482.559268,2118,2266,e_S
1788787482.5598998,2099,2135,e_S
1788787482.560201,2028,1950,e_S
1788787482.5615392,2111,2109,e_S
1788787482.571806,2149,2194,e_S
1788787482.5722291,2035,1878,e_S
1788787482.574374,1910,1635,e_S
1788787482.57648,1913,2267,e_S
1788787482.580765,2002,2236,e_S
1788787482.581113,2145,2242,e_S
1788787482.5814772,2141,2015,e_S
1788787482.581728,2035,2060,e_S
1788787482.5819268,2165,2335,e_S
1788787482.582206,2118,1929,e_S
1788787482.585293,2009,1760,e_S
1788787482.585432,1899,1982,e_S
1788787482.588042,2070,2248,e_S
1788787482.589437,2141,2318,e_S
1788787482.596394,2121,2094,e_S
1788787482.599336,2019,1994,e_S
1788787482.599468,2074,2372,e_S
1788787482.599617,2105,1964,e_S
1788787482.6015239,2025,1814,e_S
1788787482.601674,1894,1670,e_S
1788787482.607557,2037,2383,e_S
1788787482.610392,2097,2293,e_S
1788787482.6112561,2113,2167,e_S
1788787482.6113422,2061,1972,e_S
1788787482.6114318,2078,2185,e_S
1788787482.61874,2099,2212,e_S
1788787482.6220539,2118,1869,e_S
1788787482.6249979,2038,1671,e_S
1788787482.6266198,2008,2241,e_S
1788787482.6268532,2096,2201,e_S
1788787482.630702,2140,2204,e_S
1788787482.630927,2107,2058,e_S
1788787482.63121,2071,2126,e_S
1788787482.631594,2162,2405,e_S
1788787482.631882,2098,1922,e_S
1788787482.634708,1965,1774,e_S
1788787482.63611,1866,1977,e_S
1788787482.63746,2026,2233,e_S
1788787482.6402318,2127,2276,e_S
1788787482.647042,2159,2111,e_S
1788787482.647726,2082,1929,e_S
1788787482.649717,2187,2375,e_S
1788787482.650003,2188,1978,e_S
1788787482.651816,1993,1854,e_S
1788787482.6537158,1845,1687,e_S
1788787482.657738,2031,2369,e_S
1788787482.65808,2094,2377,e_S
1788787482.658337,2111,2154,e_S
1788787482.661321,2075,1928,e_S
1788787482.6614022,2101,2147,e_S
1788787482.6640582,2159,2179,e_S
1788787482.669548,2074,1897,e_S
1788787482.6714802,1951,1750,e_S
1788787482.6718311,1985,2281,e_S
1788787482.672501,2069,2164,e_S
1788787482.674751,2155,2206,e_S
1788787482.676901,2124,2004,e_S
1788787482.683341,2073,2114,e_S
1788787482.683682,2199,2321,e_S
1788787482.683989,2069,1945,e_S
1788787482.684652,1989,1758,e_S
1788787482.687875,1955,1947,e_S
1788787482.6881862,2108,2299,e_S
1788787482.689535,2102,2325,e_S
1788787482.692171,2073,2078,e_S
1788787482.693522,2027,2003,e_S
1788787482.701143,2143,2359,e_S
1788787482.7049348,2119,1931,e_S
1788787482.705479,2052,1800,e_S
1788787482.7056599,1896,1677,e_S
1788787482.707996,2045,2304,e_S
1788787482.708229,2102,2361,e_S
1788787482.7088141,2183,2160,e_S
1788787482.710677,2066,1916,e_S
1788787482.715127,2092,2153,e_S
1788787482.715432,2198,2178,e_S
1788787482.715877,2054,1931,e_S
1788787482.7197912,1899,1697,e_S
1788787482.719872,1962,2211,e_S
1788787482.722506,2056,2187,e_S
1788787482.72864,2141,2264,e_S
1788787482.7289028,2109,1965,e_S
1788787482.7302191,2090,2063,e_S
1788787482.732838,2183,2378,e_S
1788787482.7330089,2096,1971,e_S
1788787482.736544,1929,1835,e_S
1788787482.7382998,1890,1974,e_S
1788787482.738507,2063,2192,e_S
1788787482.743407,2128,2284,e_S
1788787482.744043,2124,2103,e_S
1788787482.744426,2010,2000,e_S
1788787482.746926,2134,2404,e_S
1788787482.748304,2137,1942,e_S
1788787482.749677,2011,1837,e_S
1788787482.752314,1876,1739,e_S
1788787482.753453,2066,2353,e_S
1788787482.761703,2137,2300,e_S
1788787482.763343,2180,2125,e_S
1788787482.763544,2076,1940,e_S
1788787482.766206,2103,2158,e_S
1788787482.7703528,2187,2101,e_S
1788787482.774781,2030,1935,e_S
1788787482.775219,1927,1733,e_S
1788787482.775765,1978,2285,e_S
1788787482.77619,2073,2186,e_S
1788787482.7764008,2157,2214,e_S
1788787482.7767198,2096,1991,e_S
1788787482.7800179,2050,2133,e_S
1788787482.780139,2156,2344,e_S
1788787482.781572,2106,1930,e_S
1788787482.788138,1997,1762,e_S
1788787482.792345,1949,2060,e_S
1788787482.7928069,2065,2192,e_S
1788787482.794694,2130,2260,e_S
1788787482.795582,2117,2107,e_S
1788787482.797261,2017,1987,e_S
1788787482.801538,2079,2397,e_S
1788787482.802273,2142,1919,e_S
1788787482.802975,2072,1820,e_S
1788787482.803273,1880,1775,e_S
1788787482.806578,2050,2347,e_S
1788787482.806706,2112,2342,e_S
1788787482.808108,2147,2135,e_S
1788787482.8094552,2069,1951,e_S
1788787482.812074,2093,2141,e_S
1788787482.8134139,2164,2131,e_S
1788787482.82016,2057,1882,e_S
1788787482.820957,1929,1762,e_S
1788787482.8259141,1956,2320,e_S
1788787482.8286011,2060,2173,e_S
1788787482.832973,2143,2153,e_S
1788787482.833627,2091,2057,e_S
1788787482.833973,2070,2147,e_S
1788787482.837281,2178,2333,e_S
1788787482.837622,2113,1925,e_S
1788787482.837695,1995,1809,e_S
1788787482.837758,1944,2015,e_S
1788787482.8378189,2058,2248,e_S
1788787482.840481,2100,2226,e_S
1788787482.847222,2117,2099,e_S
1788787482.8479922,2103,1986,e_S
1788787482.8505611,2131,2379,e_S
1788787482.850893,2099,2001,e_S
1788787482.853177,2033,1845,e_S
1788787482.855634,1889,1706,e_S
1788787482.860062,2019,2400,e_S
1788787482.8604548,2147,2264,e_S
1788787482.860687,2193,2186,e_S
1788787482.861137,2079,1975,e_S
1788787482.8637629,2075,2147,e_S
1788787482.864772,2126,2092,e_S
1788787482.8672278,2064,1976,e_S
1788787482.868595,1950,1724,e_S
1788787482.869983,1983,2253,e_S
1788787482.8715,2062,2185,e_S
1788787482.876889,2139,2226,e_S
1788787482.87759,2111,2036,e_S
1788787482.878788,2070,2126,e_S
1788787482.881418,2185,2311,e_S
1788787482.881829,2124,1994,e_S
1788787482.886343,2007,1806,e_S
1788787482.89079,1924,2075,e_S
1788787482.891236,2053,2192,e_S
1788787482.8917792,2125,2265,e_S
1788787482.8920882,2116,2106,e_S
1788787482.894582,2052,1992,e_S
1788787482.895956,2154,2437,e_S
1788787482.89743,2126,1948,e_S
1788787482.9050329,2014,1841,e_S
1788787482.907719,1878,1803,e_S
1788787482.908312,2046,2356,e_S
1788787482.909873,2117,2269,e_S
1788787482.910651,2148,2174,e_S
1788787482.911511,2064,1973,e_S
1788787482.911741,2087,2212,e_S
1788787482.917408,2164,2160,e_S
1788787482.917999,2045,1938,e_S
1788787482.918314,1909,1717,e_S
1788787482.921889,1992,2314,e_S
1788787482.9223082,2084,2220,e_S
1788787482.9236631,2122,2207,e_S
1788787482.926296,2055,2055,e_S
1788787482.927657,2033,2160,e_S
1788787482.9358988,2164,2317,e_S
1788787482.936152,2107,1952,e_S
1788787482.9369652,1976,1811,e_S
1788787482.9381819,1905,2134,e_S
1788787482.938504,2042,2196,e_S
1788787482.940642,2123,2271,e_S
1788787482.945256,2149,2045,e_S
1788787482.949273,2060,2020,e_S
1788787482.9498959,2168,2397,e_S
1788787482.9502468,2117,1981,e_S
1788787482.950607,2008,1831,e_S
1788787482.95403,1884,1767,e_S
1788787482.954108,2037,2356,e_S
1788787482.955457,2098,2290,e_S
1788787482.962614,2136,2176,e_S
1788787482.9662771,2061,1949,e_S
1788787482.966558,2078,2191,e_S
1788787482.966845,2163,2107,e_S
1788787482.969632,2064,1927,e_S
1788787482.97214,1941,1720,e_S
1788787482.976351,1972,2272,e_S
1788787482.976789,2073,2205,e_S
1788787482.977068,2153,2224,e_S
1788787482.9775739,2102,2021,e_S
1788787482.977937,2018,2154,e_S
1788787482.981374,2157,2327,e_S
1788787482.981459,2096,1983,e_S
1788787482.9841259,1979,1800,e_S
1788787482.985476,1918,2089,e_S
1788787482.988124,2040,2166,e_S
1788787482.994551,2116,2257,e_S
1788787482.9958138,2124,2104,e_S
1788787482.998345,2044,2016,e_S
1788787482.998739,2143,2407,e_S
1788787483.000918,2119,1961,e_S
1788787483.0018518,2024,1866,e_S
1788787483.004051,1889,1784,e_S
1788787483.00883,2048,2404,e_S
1788787483.009388,2098,2272,e_S
1788787483.009894,2130,2160,e_S
1788787483.0130072,2056,1948,e_S
1788787483.0134988,2059,2207,e_S
1788787483.013578,2178,2112,e_S
1788787483.016324,2056,1920,e_S
1788787483.0241659,1916,1702,e_S
1788787483.024949,1960,2292,e_S
1788787483.026253,2054,2209,e_S
1788787483.028131,2148,2229,e_S
1788787483.0283031,2088,2021,e_S
1788787483.02853,2100,2150,e_S
1788787483.0307689,2185,2323,e_S
1788787483.036944,2104,1978,e_S
1788787483.037629,1971,1777,e_S
1788787483.037947,1921,2095,e_S
1788787483.038638,2069,2182,e_S
1788787483.041754,2151,2291,e_S
1788787483.042112,2134,2078,e_S
1788787483.0445282,2056,2003,e_S
1788787483.0458722,2129,2405,e_S
1788787483.0484731,2106,1979,e_S
1788787483.0590541,2019,1859,e_S
1788787483.061468,1883,1783,e_S
1788787483.068407,2055,2345,e_S
1788787483.0691369,2125,2293,e_S
1788787483.069598,2147,2144,e_S
1788787483.072955,2062,1944,e_S
1788787483.0731142,2086,2187,e_S
1788787483.073356,2175,2108,e_S
1788787483.073729,2052,1935,e_S
1788787483.073806,1917,1755,e_S
1788787483.073874,1972,2291,e_S
1788787483.073937,2062,2171,e_S
1788787483.074068,2154,2204,e_S
1788787483.0757482,2086,2026,e_S
1788787483.0847318,2055,2161,e_S
1788787483.0871732,2174,2323,e_S
1788787483.093635,2102,1971,e_S
1788787483.094282,1975,1798,e_S
1788787483.094838,1927,2112,e_S
1788787483.095238,2044,2191,e_S
1788787483.0955431,2124,2278,e_S
1788787483.095832,2108,2047,e_S
1788787483.096216,2050,1981,e_S
1788787483.099404,2151,2442,e_S
1788787483.099468,2121,1976,e_S
1788787483.09952,2013,1863,e_S
1788787483.10214,1875,1780,e_S
1788787483.1035268,2055,2368,e_S
1788787483.1110048,2125,2287,e_S
1788787483.115186,2147,2156,e_S
1788787483.115731,2079,1941,e_S
1788787483.115974,2083,2216,e_S
1788787483.118546,2169,2138,e_S
1788787483.1247392,2068,1923,e_S
1788787483.1251578,1918,1690,e_S
1788787483.1258361,1984,2307,e_S
1788787483.128336,2092,2202,e_S
1788787483.12921,2163,2203,e_S
1788787483.1295948,2107,2032,e_S
1788787483.129747,2088,2135,e_S
1788787483.129899,2175,2328,e_S
1788787483.1315572,2094,1974,e_S
1788787483.138349,1958,1767,e_S
1788787483.140405,1910,2117,e_S
1788787483.1434162,2044,2202,e_S
1788787483.147969,2132,2241,e_S
1788787483.1484318,2124,2099,e_S
1788787483.1526651,2044,2039,e_S
1788787483.153108,2156,2419,e_S
1788787483.153434,2121,1971,e_S
1788787483.153703,2008,1902,e_S
1788787483.1539001,1882,1796,e_S
1788787483.154159,2045,2368,e_S
1788787483.157255,2114,2294,e_S
1788787483.157589,2180,2179,e_S
1788787483.160185,2089,1962,e_S
1788787483.161509,2107,2190,e_S
1788787483.1640909,2179,2122,e_S
1788787483.170463,2076,1884,e_S
1788787483.171224,1942,1697,e_S
1788787483.17433,1998,2330,e_S
1788787483.174538,2053,2178,e_S
1788787483.174836,2129,2229,e_S
1788787483.1796942,2075,1996,e_S
1788787483.180258,2084,2143,e_S
1788787483.184327,2157,2341,e_S
1788787483.188203,2068,1999,e_S
1788787483.188561,1957,1805,e_S
1788787483.1886342,1930,2091,e_S
1788787483.188698,2071,2174,e_S
1788787483.1901078,2141,2269,e_S
1788787483.191475,2121,2087,e_S
1788787483.198215,2036,2057,e_S
1788787483.199556,2138,2402,e_S
1788787483.201828,2131,1984,e_S
1788787483.2022789,2038,1866,e_S
1788787483.204447,1905,1825,e_S
1788787483.205108,2059,2354,e_S
1788787483.2107048,2122,2296,e_S
1788787483.211156,2149,2125,e_S
1788787483.21152,2067,1952,e_S
1788787483.2119858,2087,2205,e_S
1788787483.21525,2152,2107,e_S
1788787483.2153852,2058,1898,e_S
1788787483.218024,1919,1695,e_S
1788787483.219417,1989,2302,e_S
1788787483.222077,2071,2191,e_S
1788787483.228506,2157,2240,e_S
1788787483.228678,2100,1997,e_S
1788787483.2302332,2084,2141,e_S
1788787483.232973,2184,2297,e_S
1788787483.233345,2101,1949,e_S
1788787483.236133,1979,1803,e_S
1788787483.2382588,1943,2111,e_S
1788787483.242469,2071,2147,e_S
1788787483.243053,2140,2241,e_S
1788787483.243468,2122,2092,e_S
1788787483.2437491,2053,2023,e_S
1788787483.247,2145,2423,e_S
1788787483.2484689,2114,1965,e_S
1788787483.2498162,2029,1863,e_S
1788787483.2563531,1898,1829,e_S
1788787483.257046,2061,2366,e_S
1788787483.257199,2135,2280,e_S
1788787483.260194,2153,2167,e_S
1788787483.260758,2079,1949,e_S
1788787483.262771,2090,2208,e_S
1788787483.2650769,2161,2090,e_S
1788787483.2694201,2044,1912,e_S
1788787483.2699242,1902,1709,e_S
1788787483.2702641,1985,2325,e_S
1788787483.2737641,2084,2197,e_S
1788787483.273849,2164,2200,e_S
1788787483.2764852,2087,2013,e_S
1788787483.277846,2067,2167,e_S
1788787483.28064,2181,2304,e_S
1788787483.28684,2089,1967,e_S
1788787483.287586,1973,1777,e_S
1788787483.2902899,1923,2134,e_S
1788787483.290585,2068,2161,e_S
1788787483.309134,2141,2272,e_S
1788787483.331677,2123,2069,e_S
1788787483.331773,2043,2031,e_S
1788787483.331841,2147,2433,e_S
1788787483.331907,2125,1966,e_S
1788787483.331975,2024,1851,e_S
1788787483.332042,1899,1820,e_S
1788787483.332109,2054,2363,e_S
1788787483.332174,2118,2313,e_S
1788787483.3322399,2158,2163,e_S
1788787483.3323038,2068,1934,e_S
1788787483.332366,2084,2217,e_S
1788787483.332431,2166,2127,e_S
1788787483.3324978,2059,1916,e_S
1788787483.3325639,1921,1705,e_S
1788787483.332629,1997,2299,e_S
1788787483.33269,2079,2205,e_S
1788787483.332756,2149,2213,e_S
1788787483.332824,2105,2002,e_S
1788787483.332887,2065,2156,e_S
1788787483.332948,2174,2353,e_S
1788787483.3330078,2104,1974,e_S
1788787483.334712,1971,1732,e_S
1788787483.3374321,1937,2145,e_S
1788787483.337488,2068,2205,e_S
1788787483.345394,2127,2256,e_S
1788787483.346792,2124,2074,e_S
1788787483.349205,2045,2053,e_S
1788787483.349421,2157,2449,e_S
1788787483.349708,2129,1927,e_S
1788787483.352532,2008,1878,e_S
1788787483.354985,1883,1851,e_S
1788787483.3589818,2055,2378,e_S
1788787483.359276,2123,2308,e_S
1788787483.359596,2131,2152,e_S
1788787483.3597682,2070,1869,e_S
1788787483.363044,2104,2214,e_S
1788787483.364377,2155,2086,e_S
1788787483.365697,2076,1929,e_S
1788787483.374196,1928,1719,e_S
1788787483.3761652,2014,2314,e_S
1788787483.376619,2084,2188,e_S
1788787483.388402,2139,2389,e_S
1788787483.388739,2083,2066,e_S
1788787483.388839,2066,1987,e_S
1788787483.388909,2172,2219,e_S
1788787483.388961,2086,1957,e_S
1788787483.389059,1978,1873,e_S
1788787483.389131,1930,2173,e_S
1788787483.389194,2056,2040,e_S
1788787483.390629,2149,2160,e_S
1788787483.391978,2140,2084,e_S
1788787483.393381,2072,2135,e_S
1788787483.402415,2160,2477,e_S
1788787483.409017,2112,1985,e_S
1788787483.413436,1999,1874,e_S
1788787483.417047,1866,2178,e_S
1788787483.417165,2035,2445,e_S
1788787483.4173,2124,1906,e_S
1788787483.4173691,2123,1868,e_S
1788787483.4174201,2046,2117,e_S
1788787483.41747,2083,2394,e_S
1788787483.4175181,2161,2059,e_S
1788787483.4175649,2076,1874,e_S
1788787483.417613,1935,1581,e_S
1788787483.430478,1995,2290,e_S
1788787483.437079,2050,2514,e_S
1788787483.437609,2124,2431,e_S
1788787483.438189,2110,1675,e_S
1788787483.438436,2054,1973,e_S
1788787483.441248,2158,2283,e_S
1788787483.4426281,2061,1891,e_S
1788787483.442689,1985,1735,e_S
1788787483.44274,1936,2159,e_S
1788787483.4427881,2051,2250,e_S
1788787483.442836,2151,2116,e_S
1788787483.442883,2133,2056,e_S
1788787483.444265,2065,2219,e_S
1788787483.445651,2160,2584,e_S
1788787483.448881,2150,1995,e_S
1788787483.455489,1992,1755,e_S
1788787483.458606,1952,1830,e_S
1788787483.461526,2125,2474,e_S
1788787483.467363,2133,2243,e_S
1788787483.467843,2180,2326,e_S
1788787483.4680839,2052,1917,e_S
1788787483.4684439,1986,1959,e_S
1788787483.468809,2086,2202,e_S
1788787483.471945,2081,2043,e_S
1788787483.472317,1920,1612,e_S
1788787483.4723892,1966,2220,e_S
1788787483.472478,2063,1988,e_S
1788787483.473962,2278,2081,e_S
1788787483.481971,2114,2041,e_S
1788787483.4849658,1951,2008,e_S
1788787483.485385,2089,2174,e_S
1788787483.487218,2036,2035,e_S
1788787483.488039,2019,1710,e_S
1788787483.490473,1875,2117,e_S
1788787483.4907038,1988,2162,e_S
1788787483.494647,2119,2335,e_S
1788787483.4948459,2208,2143,e_S
1788787483.495414,2079,2109,e_S
1788787483.4957912,2123,2552,e_S
1788787483.498771,2085,2052,e_S
1788787483.500126,2041,1620,e_S
1788787483.501487,1852,1578,e_S
1788787483.504218,2042,2547,e_S
1788787483.5056891,2135,2280,e_S
1788787483.51198,2095,2099,e_S
1788787483.513226,2100,2003,e_S
1788787483.513521,2174,2277,e_S
1788787483.516306,2249,2229,e_S
1788787483.5166981,2162,2344,e_S
1788787483.5198479,2124,1836,e_S
1788787483.5220249,2087,1706,e_S
1788787483.529509,2205,2310,e_S
1788787483.530037,2087,2272,e_S
1788787483.530129,1807,1857,e_S
1788787483.5302012,2017,2377,e_S
1788787483.5302641,2198,2454,e_S
1788787483.5316968,2133,1771,e_S
1788787483.5384378,1848,1664,e_S
1788787483.539299,1857,2118,e_S
1788787483.539507,1995,2323,e_S
1788787483.5426052,2182,2571,e_S
1788787483.5430138,2231,2164,e_S
1788787483.5472808,2263,1782,e_S
1788787483.551409,2193,2294,e_S
1788787483.5518012,2030,2025,e_S
1788787483.552188,1972,1942,e_S
1788787483.5527449,1814,2186,e_S
1788787483.555966,1945,2394,e_S
1788787483.556321,2105,2095,e_S
1788787483.557678,2110,2065,e_S
1788787483.560338,2147,2022,e_S
1788787483.561692,2235,2224,e_S
1788787483.569571,2211,2142,e_S
1788787483.56987,2024,2022,e_S
1788787483.5705621,1937,1873,e_S
1788787483.572785,2042,2539,e_S
1788787483.57478,2049,1617,e_S
1788787483.5779352,2125,2380,e_S
1788787483.581965,2193,2315,e_S
1788787483.5827122,2118,2145,e_S
1788787483.5829718,2084,1989,e_S
1788787483.5832078,2012,2037,e_S
1788787483.5833569,1954,2139,e_S
1788787483.585888,2176,1851,e_S
1788787483.588601,2096,1789,e_S
1788787483.5900748,2041,2531,e_S
1788787483.5963311,2015,2153,e_S
1788787483.59824,2000,2250,e_S
1788787483.6003652,2231,2150,e_S
1788787483.600686,2114,1770,e_S
1788787483.601087,1963,1780,e_S
1788787483.604822,1811,1929,e_S
1788787483.606774,2107,2702,e_S
1788787483.611101,2152,2115,e_S
1788787483.61141,2192,2215,e_S
1788787483.6117609,2040,2098,e_S
1788787483.6118379,2025,2186,e_S
1788787483.614996,2164,2262,e_S
1788787483.616382,2159,2059,e_S
1788787483.617768,2021,1859,e_S
1788787483.620467,1994,2491,e_S
1788787483.6218722,2068,1823,e_S
1788787483.6305358,2159,1949,e_S
1788787483.6328378,2037,2164,e_S
1788787483.635413,2080,2316,e_S
1788787483.636126,2234,2311,e_S
1788787483.638437,2127,1918,e_S
1788787483.638952,2061,1835,e_S
1788787483.643402,1890,2295,e_S
1788787483.6438231,2030,2013,e_S
1788787483.644041,2188,2315,e_S
1788787483.6443,2147,2190,e_S
1788787483.6478348,2090,2118,e_S
1788787483.6483269,2181,2564,e_S
1788787483.6484668,2149,1962,e_S
1788787483.6498501,2035,1485,e_S
1788787483.651351,1794,1856,e_S
1788787483.658083,2050,2433,e_S
1788787483.658271,2163,2350,e_S
1788787483.659285,2205,2057,e_S
1788787483.6594691,2176,2052,e_S
1788787483.661536,2121,2368,e_S
1788787483.669777,2044,2149,e_S
1788787483.669968,1990,1981,e_S
1788787483.6704798,1913,1423,e_S
1788787483.670688,2000,2281,e_S
1788787483.6740549,2109,2224,e_S
1788787483.674176,2128,2320,e_S
1788787483.675526,2119,2034,e_S
1788787483.6781461,1991,2067,e_S
1788787483.6795032,2116,2344,e_S
1788787483.6862369,2183,2082,e_S
1788787483.687125,2076,1593,e_S
1788787483.6915169,1932,2241,e_S
1788787483.693753,2054,2374,e_S
1788787483.693952,2129,2181,e_S
1788787483.69779,2035,1936,e_S
1788787483.698246,2117,2039,e_S
1788787483.698494,2207,2596,e_S
1788787483.698831,2195,1908,e_S
1788787483.701752,1965,1847,e_S
1788787483.7018812,1758,1734,e_S
1788787483.7034,2018,2612,e_S
1788787483.709481,2075,1994,e_S
1788787483.711199,2128,2167,e_S
1788787483.7118871,2063,2048,e_S
1788787483.7142,2063,2262,e_S
1788787483.718358,2108,2106,e_S
1788787483.722404,2093,1866,e_S
1788787483.7238479,1869,1706,e_S
1788787483.726241,2053,2287,e_S
1788787483.726944,2145,2459,e_S
1788787483.727338,2093,2398,e_S
1788787483.727404,1992,1949,e_S
1788787483.727502,2002,1753,e_S
1788787483.730089,2150,2374,e_S
1788787483.731421,2102,1936,e_S
1788787483.734006,1969,1928,e_S
1788787483.741417,1950,2065,e_S
1788787483.743938,2082,2097,e_S
1788787483.744163,2116,2317,e_S
1788787483.7444322,2128,2141,e_S
1788787483.7470322,2069,2172,e_S
1788787483.752286,2094,2303,e_S
1788787483.752768,2094,1922,e_S
1788787483.7531898,1945,1968,e_S
1788787483.753437,1856,2030,e_S
1788787483.753752,2050,2127,e_S
1788787483.756951,2132,2335,e_S
1788787483.758286,2192,2080,e_S
1788787483.764226,1944,1843,e_S
1788787483.765292,2138,2194,e_S
1788787483.766338,2150,2230,e_S
1788787483.768223,1993,2029,e_S
1788787483.7687738,1894,1402,e_S
1788787483.770706,1921,2280,e_S
1788787483.776515,1996,2212,e_S
1788787483.777065,2236,2387,e_S
1788787483.777205,2143,2583,e_S
1788787483.77748,2089,1856,e_S
1788787483.7805529,2129,1710,e_S
1788787483.781887,2068,2127,e_S
1788787483.7833002,1970,2013,e_S
1788787483.7859259,1942,2098,e_S
1788787483.787282,1942,1987,e_S
1788787483.7929459,2133,2514,e_S
1788787483.793767,2193,1885,e_S
1788787483.794417,2075,1896,e_S
1788787483.797323,2102,2594,e_S
1788787483.7977018,2143,2109,e_S
1788787483.799488,1971,2048,e_S
1788787483.801524,1944,1794,e_S
1788787483.8053188,2161,2119,e_S
1788787483.806113,2181,2286,e_S
1788787483.808873,2069,2281,e_S
1788787483.810245,1931,2143,e_S
1788787483.811598,2025,2356,e_S
1788787483.824866,2134,1805,e_S
1788787483.827353,2108,1788,e_S
1788787483.829927,1889,1680,e_S
1788787483.8300228,1976,2329,e_S
1788787483.830095,2125,2136,e_S
1788787483.8301592,2162,2157,e_S
1788787483.8302279,2095,2046,e_S
1788787483.830296,2088,2182,e_S
1788787483.830362,2174,2474,e_S
1788787483.831584,2108,2115,e_S
1788787483.83418,1958,1713,e_S
1788787483.835559,1938,1998,e_S
1788787483.8489778,1988,2188,e_S
1788787483.849455,2206,2465,e_S
1788787483.849838,2160,2047,e_S
1788787483.854212,2035,1916,e_S
1788787483.8545358,2151,2564,e_S
1788787483.854978,2223,1996,e_S
1788787483.8554208,2022,1899,e_S
1788787483.858021,1886,1946,e_S
1788787483.858211,2010,2397,e_S
1788787483.8591192,2064,1837,e_S
1788787483.859216,2104,2147,e_S
1788787483.8592799,2011,1984,e_S
1788787483.8666618,2147,2355,e_S
1788787483.867959,2222,2213,e_S
1788787483.871139,2010,1744,e_S
1788787483.871569,1821,1783,e_S
1788787483.874078,2081,2475,e_S
1788787483.874916,2050,2315,e_S
1788787483.876657,2235,2034,e_S
1788787483.880764,2058,2115,e_S
1788787483.881423,2101,2137,e_S
1788787483.881686,2149,2233,e_S
1788787483.8820329,2039,1828,e_S
1788787483.885529,1955,1698,e_S
1788787483.885621,1996,2148,e_S
1788787483.888127,2135,2122,e_S
1788787483.889478,2273,2357,e_S
1788787483.8924239,2135,2255,e_S
1788787483.897418,1985,2078,e_S
1788787483.8982568,2159,2618,e_S
1788787483.899508,1979,1892,e_S
1788787483.902047,1974,1790,e_S
1788787483.902377,2080,2090,e_S
1788787483.907532,1983,2145,e_S
1788787483.9118369,1959,2212,e_S
1788787483.9123,2111,2398,e_S
1788787483.912792,2077,2112,e_S
1788787483.913245,2156,1700,e_S
1788787483.913565,2189,2133,e_S
1788787483.916679,1959,2045,e_S
1788787483.91804,1822,1564,e_S
1788787483.9194062,2030,2335,e_S
1788787483.9265852,2093,2233,e_S
1788787483.927946,2176,2242,e_S
1788787483.930444,2168,2034,e_S
1788787483.930651,2151,2216,e_S
1788787483.931116,2190,2350,e_S
1788787483.931381,1995,2065,e_S
1788787483.934201,1991,1790,e_S
1788787483.940629,1999,2118,e_S
1788787483.9410088,2029,2313,e_S
1788787483.9413528,2147,2214,e_S
1788787483.941719,2053,1790,e_S
1788787483.944983,1958,2263,e_S
1788787483.946329,2131,2343,e_S
1788787483.947684,2107,2134,e_S
1788787483.950332,2040,1938,e_S
1788787483.9516869,1940,1400,e_S
1788787483.957712,2053,2290,e_S
1788787483.958592,2078,2424,e_S
1788787483.959805,2161,2154,e_S
1788787483.962684,2081,1989,e_S
1788787483.9643729,2230,2287,e_S
1788787483.965652,2218,2108,e_S
1788787483.967398,2077,1962,e_S
1788787483.967917,1901,1677,e_S
1788787483.972196,1947,2410,e_S
1788787483.97264,2047,2333,e_S
1788787483.976063,2043,2114,e_S
1788787483.976419,2012,1881,e_S
1788787483.977789,1962,2082,e_S
1788787483.9792588,2126,2157,e_S
1788787483.985214,2142,1930,e_S
1788787483.985429,1989,1786,e_S
1788787483.9869492,1928,2122,e_S
1788787483.99197,2097,2360,e_S
1788787483.992222,2203,2177,e_S
1788787483.994174,2223,2106,e_S
1788787483.994525,2114,2050,e_S
1788787483.998679,2102,2434,e_S
1788787483.999122,2110,1940,e_S
1788787483.9998221,2088,1859,e_S
1788787484.0037382,1918,1852,e_S
1788787484.004034,1934,2229,e_S
1788787484.005623,2063,2196,e_S
1788787484.0083451,2171,2220,e_S
1788787484.0098948,2036,1984,e_S
1788787484.016159,2169,2298,e_S
1788787484.017976,2128,2026,e_S
1788787484.020246,2009,1817,e_S
1788787484.0206778,1957,1513,e_S
1788787484.0292501,2084,2351,e_S
1788787484.0299149,2052,2277,e_S
1788787484.0302799,2066,2264,e_S
1788787484.030841,2038,2105,e_S
1788787484.033344,2096,2137,e_S
1788787484.034249,2155,2076,e_S
1788787484.034334,2043,1971,e_S
1788787484.0344,1943,1814,e_S
1788787484.0358112,1975,2178,e_S
1788787484.037536,2089,2264,e_S
1788787484.043006,2216,2157,e_S
1788787484.04433,2229,2067,e_S
1788787484.045038,2121,2129,e_S
1788787484.050962,2106,2489,e_S
1788787484.05544,2033,2031,e_S
1788787484.056554,1913,1806,e_S
1788787484.0568168,1843,1972,e_S
1788787484.059623,2043,2456,e_S
1788787484.059977,2124,2039,e_S
1788787484.0600882,2130,2060,e_S
1788787484.060171,2016,1987,e_S
1788787484.061771,2101,2230,e_S
1788787484.0648692,2168,2004,e_S
1788787484.066227,2058,1890,e_S
1788787484.073534,1917,1732,e_S
1788787484.076758,1996,2238,e_S
1788787484.077153,2099,2191,e_S
1788787484.07757,2184,2207,e_S
1788787484.0803661,2100,2020,e_S
1788787484.080569,2091,2171,e_S
1788787484.08624,2187,2381,e_S
1788787484.086787,2148,2168,e_S
1788787484.087102,2083,1731,e_S
1788787484.087643,1944,1831,e_S
1788787484.088032,1978,2279,e_S
1788787484.0904791,2118,2322,e_S
1788787484.091893,2070,1964,e_S
1788787484.093261,2080,2065,e_S
1788787484.0993989,2228,2529,e_S
1788787484.101355,2055,1799,e_S
1788787484.1069381,1921,1760,e_S
1788787484.1088698,1821,1889,e_S
1788787484.109169,2079,2387,e_S
1788787484.109492,2162,2358,e_S
1788787484.114023,2188,2226,e_S
1788787484.114646,2064,1981,e_S
1788787484.114997,2053,2177,e_S
1788787484.11846,2089,2030,e_S
1788787484.118618,2057,1973,e_S
1788787484.1187189,1935,1699,e_S
1788787484.120096,2021,2149,e_S
1788787484.121473,2140,2280,e_S
1788787484.124181,2138,2272,e_S
1788787484.125652,2003,2049,e_S
1788787484.132514,2075,2174,e_S
1788787484.1345038,2293,2201,e_S
1788787484.136711,2158,1971,e_S
1788787484.137255,1884,1592,e_S
1788787484.137608,1870,2206,e_S
1788787484.140556,2049,2233,e_S
1788787484.1424482,2133,2278,e_S
1788787484.146556,2097,2052,e_S
1788787484.147042,2005,2078,e_S
1788787484.147425,2144,2450,e_S
1788787484.147879,2070,2071,e_S
1788787484.150927,2038,1840,e_S
1788787484.152301,1997,1857,e_S
1788787484.153642,2124,2396,e_S
1788787484.160419,2273,2285,e_S
1788787484.161076,2167,2130,e_S
1788787484.165663,1930,1828,e_S
1788787484.168113,2075,2242,e_S
1788787484.172989,2131,2048,e_S
1788787484.1739562,2004,1818,e_S
1788787484.1743538,1826,1714,e_S
1788787484.174656,1949,2332,e_S
1788787484.177907,2046,2277,e_S
1788787484.17809,2136,2154,e_S
1788787484.1782851,2102,1980,e_S
1788787484.178358,2095,2370,e_S
1788787484.179614,2188,2360,e_S
1788787484.1823869,2100,1774,e_S
1788787484.183778,1946,1641,e_S
1788787484.191605,1962,2164,e_S
1788787484.194193,2086,2226,e_S
1788787484.197425,2144,2291,e_S
1788787484.203134,2153,2006,e_S
1788787484.203808,2098,2038,e_S
1788787484.204138,2141,2454,e_S
1788787484.2046149,2099,2052,e_S
1788787484.205017,2015,1812,e_S
1788787484.205375,1875,1771,e_S
1788787484.205555,2043,2325,e_S
1788787484.208616,2122,2394,e_S
1788787484.209151,2120,2102,e_S
1788787484.209285,2049,1858,e_S
1788787484.212003,2139,2259,e_S
1788787484.2181,2184,2077,e_S
1788787484.218442,2050,1866,e_S
1788787484.219914,1852,1776,e_S
1788787484.220547,1989,2291,e_S
1788787484.222958,2077,2131,e_S
1788787484.225825,2100,2173,e_S
1788787484.2275891,2052,1968,e_S
1788787484.227983,2061,2154,e_S
1788787484.232759,2178,2250,e_S
1788787484.233373,2098,1920,e_S
1788787484.2358332,1975,1727,e_S
1788787484.2369,1949,2182,e_S
1788787484.2383082,2049,2231,e_S
1788787484.239694,2131,2265,e_S
1788787484.2424629,2086,2057,e_S
1788787484.2438662,2032,2074,e_S
1788787484.2519522,2205,2410,e_S
1788787484.253147,2175,1926,e_S
1788787484.2554219,2013,1828,e_S
1788787484.258056,1902,1854,e_S
1788787484.258969,2034,2333,e_S
1788787484.260915,2123,2321,e_S
1788787484.265214,2131,2117,e_S
1788787484.265583,2050,1953,e_S
1788787484.265868,2084,2314,e_S
1788787484.266272,2105,2053,e_S
1788787484.266741,2000,1854,e_S
1788787484.2698472,1884,1693,e_S
1788787484.270738,2028,2335,e_S
1788787484.272326,2113,2259,e_S
1788787484.273837,2149,2188,e_S
1788787484.2791328,2108,1982,e_S
1788787484.27931,2093,2115,e_S
1788787484.27999,2167,2313,e_S
1788787484.283155,2065,1993,e_S
1788787484.285676,1950,1763,e_S
1788787484.2920399,1926,2076,e_S
1788787484.292414,2085,2200,e_S
1788787484.2927098,2156,2303,e_S
1788787484.2933729,2136,2065,e_S
1788787484.293665,2057,2070,e_S
1788787484.296921,2155,2430,e_S
1788787484.298315,2093,1991,e_S
1788787484.299766,1985,1821,e_S
1788787484.302305,1874,1843,e_S
1788787484.303689,2032,2327,e_S
1788787484.309868,2121,2300,e_S
1788787484.3117921,2149,2137,e_S
1788787484.313688,2060,1921,e_S
1788787484.314156,2077,2313,e_S
1788787484.3162482,2100,2061,e_S
1788787484.323413,2018,1828,e_S
1788787484.326303,1898,1659,e_S
1788787484.326496,2010,2345,e_S
1788787484.326729,2101,2238,e_S
1788787484.326784,2147,2171,e_S
1788787484.326872,2064,1996,e_S
1788787484.328248,2057,2110,e_S
1788787484.33492,2176,2236,e_S
1788787484.338146,2106,1913,e_S
1788787484.338659,1969,1726,e_S
1788787484.340828,1980,2184,e_S
1788787484.341495,2084,2162,e_S
1788787484.3433018,2136,2236,e_S
1788787484.3475049,2092,2039,e_S
1788787484.34792,2047,2091,e_S
1788787484.348084,2162,2381,e_S
1788787484.348342,2103,1949,e_S
1788787484.3513222,1997,1806,e_S
1788787484.351386,1887,1865,e_S
1788787484.3542569,2030,2295,e_S
1788787484.355674,2125,2254,e_S
1788787484.3634088,2142,2127,e_S
1788787484.3635452,2047,1926,e_S
1788787484.3647182,2086,2312,e_S
1788787484.364932,2119,2041,e_S
1788787484.3672278,2052,1823,e_S
1788787484.3676171,1906,1661,e_S
1788787484.371608,2011,2367,e_S
1788787484.375813,2089,2235,e_S
1788787484.376399,2152,2148,e_S
1788787484.3765628,2081,1970,e_S
1788787484.379204,2080,2133,e_S
1788787484.3799942,2172,2260,e_S
1788787484.381349,2061,1942,e_S
1788787484.3878589,1937,1725,e_S
1788787484.389618,1950,2191,e_S
1788787484.392185,2067,2206,e_S
1788787484.3924868,2129,2224,e_S
1788787484.394353,2097,2057,e_S
1788787484.396539,2092,2090,e_S
1788787484.3967428,2177,2473,e_S
1788787484.400384,2079,1951,e_S
1788787484.400815,2002,1812,e_S
1788787484.40369,1887,1853,e_S
1788787484.403744,2060,2364,e_S
1788787484.405264,2125,2300,e_S
1788787484.4078872,2142,2083,e_S
1788787484.409318,2065,1960,e_S
1788787484.413141,2105,2298,e_S
1788787484.413794,2157,2025,e_S
1788787484.417005,2075,1831,e_S
1788787484.4204779,1901,1666,e_S
1788787484.420682,2001,2329,e_S
1788787484.4245272,2108,2255,e_S
1788787484.424831,2193,2201,e_S
1788787484.4275079,2119,1960,e_S
1788787484.427658,2111,2120,e_S
1788787484.4302568,2203,2251,e_S
1788787484.4406989,2094,1975,e_S
1788787484.4413388,1950,1721,e_S
1788787484.446317,1979,2154,e_S
1788787484.449106,2090,2183,e_S
1788787484.450242,2139,2279,e_S
1788787484.450295,2083,2071,e_S
1788787484.450339,2041,2078,e_S
1788787484.450382,2162,2417,e_S
1788787484.450426,2115,1951,e_S
1788787484.450468,2027,1818,e_S
1788787484.451794,1938,1853,e_S
1788787484.4531178,2104,2288,e_S
1788787484.455725,2166,2294,e_S
1788787484.4712021,2153,2108,e_S
1788787484.4716039,2050,1923,e_S
1788787484.471993,2102,2333,e_S
1788787484.472482,2127,1975,e_S
1788787484.473026,2065,1825,e_S
1788787484.475923,1968,1660,e_S
1788787484.476007,2061,2354,e_S
1788787484.476144,2133,2254,e_S
1788787484.476224,2187,2124,e_S
1788787484.476295,2107,1962,e_S
1788787484.477638,2125,2130,e_S
1788787484.4829922,2211,2209,e_S
1788787484.483192,2107,1893,e_S
1788787484.4845262,1939,1726,e_S
1788787484.4875789,1953,2222,e_S
1788787484.487809,2055,2186,e_S
1788787484.492084,2162,2240,e_S
1788787484.496365,2135,2047,e_S
1788787484.4969149,2099,2067,e_S
1788787484.497382,2201,2388,e_S
1788787484.497617,2132,1941,e_S
1788787484.5007842,2031,1816,e_S
1788787484.5021582,1910,1898,e_S
1788787484.503532,2032,2278,e_S
1788787484.506207,2122,2289,e_S
1788787484.507604,2143,2154,e_S
1788787484.513762,2063,1927,e_S
1788787484.514715,2112,2305,e_S
1788787484.5164511,2133,2025,e_S
1788787484.518754,2060,1828,e_S
1788787484.519273,1949,1729,e_S
1788787484.52203,2001,2353,e_S
1788787484.522246,2108,2218,e_S
1788787484.524,2188,2142,e_S
1788787484.5282612,2118,1971,e_S
1788787484.5284638,2085,2173,e_S
1788787484.531928,2162,2246,e_S
1788787484.532277,2065,1958,e_S
1788787484.53363,1945,1770,e_S
1788787484.542165,1954,2265,e_S
1788787484.5429912,2078,2170,e_S
1788787484.545186,2159,2260,e_S
1788787484.545568,2104,2063,e_S
1788787484.5476649,2067,2102,e_S
1788787484.5485492,2179,2390,e_S
1788787484.548782,2101,1977,e_S
1788787484.550414,1982,1804,e_S
1788787484.554793,1898,1904,e_S
1788787484.5552378,2100,2286,e_S
1788787484.555677,2142,2302,e_S
1788787484.559045,2133,2100,e_S
1788787484.56041,2046,1974,e_S
1788787484.56179,2088,2334,e_S
1788787484.563261,2150,2012,e_S
1788787484.572333,2052,1830,e_S
1788787484.587667,1918,1697,e_S
1788787484.5881898,2006,2350,e_S
1788787484.6031702,2084,2262,e_S
1788787484.610925,2109,2164,e_S
1788787484.611007,2076,2000,e_S
1788787484.611059,2069,2130,e_S
1788787484.611115,2179,2207,e_S
1788787484.611163,2094,1945,e_S
1788787484.61127,1962,1760,e_S
1788787484.611357,1952,2220,e_S
1788787484.6114292,2055,2171,e_S
1788787484.611499,2151,2270,e_S
1788787484.61157,2091,2049,e_S
1788787484.611638,2081,2107,e_S
1788787484.611702,2192,2400,e_S
1788787484.611766,2104,1991,e_S
1788787484.611827,1993,1823,e_S
1788787484.6118882,1852,1895,e_S
1788787484.611949,2080,2280,e_S
1788787484.61201,2147,2320,e_S
1788787484.6120691,2117,2118,e_S
1788787484.612127,2024,1944,e_S
1788787484.612185,2105,2346,e_S
1788787484.6135502,2116,2032,e_S
1788787484.6184099,2038,1819,e_S
1788787484.624162,1900,1702,e_S
1788787484.6254568,2016,2370,e_S
1788787484.625634,2091,2267,e_S
1788787484.626328,2177,2147,e_S
1788787484.630898,2118,1958,e_S
1788787484.638356,2094,2130,e_S
1788787484.6422248,2159,2247,e_S
1788787484.642345,2057,1964,e_S
1788787484.6424162,1961,1784,e_S
1788787484.6424809,1953,2222,e_S
1788787484.642546,2043,2225,e_S
1788787484.642615,2125,2232,e_S
1788787484.6426802,2116,2046,e_S
1788787484.644064,2050,2115,e_S
1788787484.6573179,2154,2408,e_S
1788787484.664578,2124,1956,e_S
1788787484.664842,2026,1809,e_S
1788787484.664905,1915,1921,e_S
1788787484.664957,2109,2282,e_S
1788787484.665014,2171,2206,e_S
1788787484.665065,2112,2134,e_S
1788787484.6651149,1964,1974,e_S
1788787484.665198,2130,2358,e_S
1788787484.665249,2134,1997,e_S
1788787484.6652968,2037,1853,e_S
1788787484.668224,1880,1679,e_S
1788787484.669694,2005,2353,e_S
1788787484.671207,2078,2273,e_S
1788787484.6830451,2147,2150,e_S
1788787484.689533,2111,2032,e_S
1788787484.69373,2083,2181,e_S
1788787484.694091,2194,2188,e_S
1788787484.69417,2107,1939,e_S
1788787484.694355,1976,1781,e_S
1788787484.694428,1957,2264,e_S
1788787484.694491,2087,2221,e_S
1788787484.6945531,2122,2230,e_S
1788787484.694614,2081,1988,e_S
1788787484.6946769,2076,2117,e_S
1788787484.696075,2184,2392,e_S
1788787484.702126,2017,1983,e_S
1788787484.7030752,1946,1820,e_S
1788787484.704345,1961,1913,e_S
1788787484.707401,2180,2285,e_S
1788787484.709564,2117,2299,e_S
1788787484.711951,2123,2080,e_S
1788787484.71612,2076,1998,e_S
1788787484.7164211,2156,2356,e_S
1788787484.716929,2140,1949,e_S
1788787484.7174988,2074,1854,e_S
1788787484.717824,1896,1779,e_S
1788787484.721427,1992,2340,e_S
1788787484.72189,2095,2277,e_S
1788787484.723247,2119,2131,e_S
1788787484.725853,2075,2006,e_S
1788787484.727187,2089,2147,e_S
1788787484.735862,2147,2199,e_S
1788787484.738492,2079,1924,e_S
1788787484.73894,1932,1766,e_S
1788787484.74076,1958,2253,e_S
1788787484.7416499,2058,2168,e_S
1788787484.74398,2142,2266,e_S
1788787484.744267,2095,2029,e_S
1788787484.748703,2112,2116,e_S
1788787484.749075,2173,2383,e_S
1788787484.74963,2109,1936,e_S
1788787484.74996,1961,1826,e_S
1788787484.7529962,1903,1980,e_S
1788787484.753134,2017,2237,e_S
1788787484.755858,2131,2317,e_S
1788787484.7630248,2141,2098,e_S
1788787484.7651598,2007,1965,e_S
1788787484.765553,2159,2324,e_S
1788787484.768364,2129,2053,e_S
1788787484.7746718,1983,1823,e_S
1788787484.7750568,1906,1688,e_S
1788787484.775286,2095,2430,e_S
1788787484.775767,2134,2322,e_S
1788787484.7762828,2071,2135,e_S
1788787484.776432,2112,1950,e_S
1788787484.779737,2127,2144,e_S
1788787484.780045,2205,2171,e_S
1788787484.781406,2100,1970,e_S
1788787484.784083,1943,1802,e_S
1788787484.785459,1951,2205,e_S
1788787484.793299,2061,2143,e_S
1788787484.794585,2166,2228,e_S
1788787484.7953658,2118,2053,e_S
1788787484.797624,2078,2130,e_S
1788787484.800431,2170,2335,e_S
1788787484.8023412,2093,2001,e_S
1788787484.8026712,1981,1813,e_S
1788787484.806725,1881,1927,e_S
1788787484.8072672,2087,2247,e_S
1788787484.8079722,2150,2280,e_S
1788787484.8104231,2122,2115,e_S
1788787484.811606,2024,1968,e_S
1788787484.811739,2104,2355,e_S
1788787484.813185,2132,2000,e_S
1788787484.820181,1998,1840,e_S
1788787484.821474,1865,1760,e_S
1788787484.8221598,2049,2341,e_S
1788787484.824456,2074,2263,e_S
1788787484.82478,2154,2138,e_S
1788787484.827608,2093,1983,e_S
1788787484.829643,2073,2150,e_S
1788787484.8339908,2196,2185,e_S
1788787484.8343492,2065,1937,e_S
1788787484.834595,1941,1759,e_S
1788787484.837984,2004,2235,e_S
1788787484.838057,2095,2185,e_S
1788787484.839421,2120,2206,e_S
1788787484.842186,2082,2066,e_S
1788787484.843522,2060,2122,e_S
1788787484.8510468,2166,2333,e_S
1788787484.852492,2062,1972,e_S
1788787484.852803,1986,1817,e_S
1788787484.8555012,1902,1958,e_S
1788787484.8557749,2053,2233,e_S
1788787484.8563762,2109,2293,e_S
1788787484.858751,2116,2095,e_S
1788787484.861302,2035,1991,e_S
1788787484.86522,2129,2381,e_S
1788787484.865577,2124,2037,e_S
1788787484.86583,2062,1858,e_S
1788787484.869359,1900,1743,e_S
1788787484.869777,2031,2345,e_S
1788787484.871182,2101,2260,e_S
1788787484.878572,2146,2173,e_S
1788787484.879315,2076,1974,e_S
1788787484.880086,2075,2149,e_S
1788787484.8808398,2189,2167,e_S
1788787484.887421,2073,1936,e_S
1788787484.891419,1941,1754,e_S
1788787484.891617,1949,2250,e_S
1788787484.892108,2087,2176,e_S
1788787484.8924081,2172,2239,e_S
1788787484.8926551,2096,2012,e_S
1788787484.8960278,2055,2134,e_S
1788787484.896087,2170,2337,e_S
1788787484.897496,2111,1985,e_S
1788787484.900131,1985,1803,e_S
1788787484.9014919,1894,1975,e_S
1788787484.909514,2079,2231,e_S
1788787484.909759,2152,2272,e_S
1788787484.912828,2141,2086,e_S
1788787484.913216,2046,1992,e_S
1788787484.921321,2142,2399,e_S
1788787484.9247448,2139,2013,e_S
1788787484.9251451,2015,1832,e_S
1788787484.925268,1879,1730,e_S
1788787484.9253912,2035,2368,e_S
1788787484.92548,2092,2254,e_S
1788787484.925594,2140,2156,e_S
1788787484.925649,2067,1967,e_S
1788787484.9364328,2074,2143,e_S
1788787484.9369931,2178,2174,e_S
1788787484.938902,2094,1930,e_S
1788787484.941228,1936,1756,e_S
1788787484.945181,1959,2266,e_S
1788787484.945308,2085,2152,e_S
1788787484.94572,2130,2190,e_S
1788787484.945972,2101,2038,e_S
1788787484.9464672,2085,2139,e_S
1788787484.946635,2207,2330,e_S
1788787484.949661,2121,1953,e_S
1788787484.949715,1991,1830,e_S
1788787484.9511611,1902,1991,e_S
1788787484.953782,2067,2237,e_S
1788787484.9551842,2168,2264,e_S
1788787484.962646,2153,2100,e_S
1788787484.966262,2055,1981,e_S
1788787484.968301,2113,2371,e_S
1788787484.970583,2126,1981,e_S
1788787484.9747992,2034,1842,e_S
1788787484.9750621,1894,1731,e_S
1788787484.9755352,2036,2381,e_S
1788787484.9756439,2114,2282,e_S
1788787484.975948,2140,2158,e_S
1788787484.976174,2073,1965,e_S
1788787484.979017,2081,2127,e_S
1788787484.9793239,2181,2177,e_S
1788787484.987181,2084,1936,e_S
1788787484.990485,1947,1759,e_S
