timestamp,ch1,ch2,label
1773824259.0530581,85,1195,i
1773824259.063684,136,1233,i
1773824259.075268,35,1134,i
1773824259.085925,83,1197,i
1773824259.096979,89,1218,i
1773824259.1076548,16,1123,i
1773824259.1192992,66,1200,i
1773824259.132808,84,1214,i
1773824259.1410801,30,1133,i
1773824259.1527958,103,1218,i
1773824259.163104,65,1204,i
1773824259.173795,106,1136,i
1773824259.1849349,28,1223,i
1773824259.195554,42,1187,i
1773824259.206526,57,1130,i
1773824259.217577,16,1224,i
1773824259.22856,45,1186,i
1773824259.240202,60,1133,i
1773824259.250593,49,1234,i
1773824259.2622662,80,1175,i
1773824259.275871,80,1139,i
1773824259.284163,23,1231,i
1773824259.2957,69,1175,i
1773824259.305866,99,1149,i
1773824259.317931,41,1243,i
1773824259.327609,49,1161,i
1773824259.3395112,132,1156,i
1773824259.3495538,39,1245,i
1773824259.3607621,63,1156,i
1773824259.371546,94,1161,i
1773824259.383105,21,1239,i
1773824259.3935418,0,1146,i
1773824259.404737,100,1154,i
1773824259.4176,33,1247,i
1773824259.4267159,17,1141,i
1773824259.438093,139,1170,i
1773824259.448554,51,1239,i
1773824259.4601018,23,1140,i
1773824259.470834,112,1170,i
1773824259.482191,71,1242,i
1773824259.492631,16,1144,i
1773824259.503697,83,1168,i
1773824259.5145469,27,1242,i
1773824259.5259142,49,1137,i
1773824259.540329,131,1183,i
1773824259.547584,108,1245,i
1773824259.5603871,4,1129,i
1773824259.569719,131,1190,i
1773824259.581454,104,1237,i
1773824259.5915148,46,1129,i
1773824259.603474,113,1189,i
1773824259.613526,66,1227,i
1773824259.626305,15,1135,i
1773824259.6359072,82,1195,i
1773824259.646697,72,1222,i
1773824259.6575942,20,1125,i
1773824259.669815,68,1202,i
1773824259.681664,85,1214,i
1773824259.6908648,64,1139,i
1773824259.702464,72,1215,i
1773824259.712998,50,1200,i
1773824259.72477,39,1135,i
1773824259.734575,47,1222,i
1773824259.746238,60,1183,i
1773824259.756426,61,1132,i
1773824259.7681122,46,1222,i
1773824259.778409,65,1181,i
1773824259.789406,60,1144,i
1773824259.800415,37,1233,i
1773824259.811935,79,1172,i
1773824259.826026,115,1149,i
1773824259.834798,29,1236,i
1773824259.848562,102,1178,i
1773824259.8555222,147,1153,i
1773824259.8677812,24,1242,i
1773824259.877832,38,1168,i
1773824259.888871,89,1152,i
1773824259.899467,33,1242,i
1773824259.911755,47,1154,i
1773824259.921948,148,1152,i
1773824259.9327161,35,1247,i
1773824259.9436722,31,1149,i
1773824259.955325,151,1168,i
1773824259.965408,38,1247,i
1773824259.97773,25,1142,i
1773824259.987623,154,1168,i
1773824259.999281,68,1251,i
1773824260.0124102,36,1142,i
1773824260.0215218,144,1171,i
1773824260.033827,95,1247,i
1773824260.042402,13,1136,i
1773824260.054165,128,1179,i
1773824260.064537,128,1254,i
1773824260.075899,37,1141,i
1773824260.086537,141,1177,i
1773824260.0988271,123,1243,i
1773824260.1086872,47,1132,i
1773824260.1206,169,1183,i
1773824260.13052,169,1238,i
1773824260.141695,35,1138,i
1773824260.152643,79,1195,i
1773824260.16424,134,1232,i
1773824260.177633,9,1134,i
1773824260.186265,99,1196,i
1773824260.198329,103,1227,i
1773824260.2077818,42,1137,i
1773824260.2197309,127,1204,i
1773824260.2294312,128,1218,i
1773824260.240968,70,1131,i
1773824260.251431,74,1218,i
1773824260.2628381,113,1201,i
1773824260.2734,80,1131,i
1773824260.285449,50,1214,i
1773824260.299165,70,1192,i
1773824260.3072991,70,1134,i
1773824260.319703,51,1229,i
1773824260.328581,111,1186,i
1773824260.3396502,105,1144,i
1773824260.35043,26,1224,i
1773824260.3623521,95,1179,i
1773824260.372483,135,1152,i
1773824260.3837938,40,1240,i
1773824260.39427,25,1169,i
1773824260.405737,138,1150,i
1773824260.416725,36,1243,i
1773824260.427331,59,1168,i
1773824260.441076,127,1151,i
1773824260.449997,35,1240,i
1773824260.4620202,54,1163,i
1773824260.471522,161,1164,i
1773824260.483157,29,1248,i
1773824260.4932868,34,1145,i
1773824260.5049322,174,1168,i
1773824260.515274,66,1253,i
1773824260.526865,13,1140,i
1773824260.5374331,144,1161,i
1773824260.5505311,99,1255,i
1773824260.559654,7,1146,i
1773824260.57057,133,1167,i
1773824260.585207,74,1245,i
1773824260.592753,47,1143,i
1773824260.605006,109,1168,i
1773824260.6144361,126,1247,i
1773824260.625452,31,1132,i
1773824260.636433,192,1188,i
1773824260.6479628,114,1239,i
1773824260.658284,43,1139,i
1773824260.669856,91,1182,i
1773824260.680804,130,1244,i
1773824260.69263,44,1137,i
1773824260.7024891,122,1190,i
1773824260.714903,125,1227,i
1773824260.7269042,48,1126,i
1773824260.7356212,168,1213,i
1773824260.747524,126,1227,i
1773824260.757306,43,1129,i
1773824260.769739,97,1205,i
1773824260.779603,96,1204,i
1773824260.791331,34,1136,i
1773824260.801492,77,1211,i
1773824260.812536,110,1204,i
1773824260.823298,117,1135,i
1773824260.835205,58,1220,i
1773824260.848894,64,1186,i
1773824260.857337,65,1135,i
1773824260.868991,34,1220,i
1773824260.878505,73,1186,i
1773824260.889359,85,1144,i
1773824260.900755,50,1232,i
1773824260.911177,55,1172,i
1773824260.9223502,127,1152,i
1773824260.9334881,27,1242,i
1773824260.9441779,58,1161,i
1773824260.956334,138,1145,i
1773824260.9666922,26,1246,i
1773824260.977283,49,1154,i
1773824260.9914198,144,1149,i
1773824260.999362,3,1245,i
1773824261.011997,37,1150,i
1773824261.021305,183,1166,i
1773824261.033613,56,1252,i
1773824261.043181,34,1151,i
1773824261.0547252,168,1170,i
1773824261.0651882,80,1252,i
1773824261.076261,45,1145,i
1773824261.087352,160,1169,i
1773824261.099749,113,1253,i
1773824261.109185,35,1138,i
1773824261.120665,142,1171,i
1773824261.1335108,128,1246,i
1773824261.1428852,24,1142,i
1773824261.1537821,154,1177,i
1773824261.1644852,85,1252,i
1773824261.17555,31,1138,i
1773824261.18627,193,1182,i
1773824261.1975539,160,1248,i
1773824261.208597,19,1136,i
1773824261.219409,144,1187,i
1773824261.230377,118,1234,i
1773824261.241677,35,1127,i
1773824261.2552571,121,1196,i
1773824261.263911,96,1221,i
1773824261.2760901,24,1127,i
1773824261.28529,171,1207,i
1773824261.296462,132,1220,i
1773824261.307627,14,1124,i
1773824261.319336,62,1204,i
1773824261.32931,117,1211,i
1773824261.340236,92,1135,i
1773824261.351158,95,1219,i
1773824261.3624918,78,1193,i
1773824261.376222,38,1127,i
1773824261.3846989,46,1225,i
1773824261.396706,32,1178,i
1773824261.406218,49,1137,i
1773824261.417174,64,1227,i
1773824261.4281542,72,1185,i
1773824261.440525,134,1143,i
1773824261.450148,84,1245,i
1773824261.461874,100,1179,i
1773824261.472209,118,1148,i
1773824261.4851232,12,1242,i
1773824261.494154,31,1159,i
1773824261.50569,263,1160,i
1773824261.51901,88,1244,i
1773824261.5274189,68,1169,i
1773824261.539032,176,1166,i
1773824261.549056,39,1243,i
1773824261.5613859,30,1147,i
1773824261.57135,176,1159,i
1773824261.583224,132,1260,i
1773824261.593298,59,1153,i
1773824261.605611,116,1157,i
1773824261.6150558,98,1252,i
1773824261.626826,43,1141,i
1773824261.64066,201,1180,i
1773824261.6491299,142,1254,i
1773824261.661088,33,1136,i
1773824261.671307,147,1177,i
1773824261.6846359,56,1245,i
1773824261.692919,79,1138,i
1773824261.703413,76,1175,i
1773824261.715303,128,1251,i
1773824261.729023,51,1142,i
1773824261.737099,18,1180,i
1773824261.749676,42,1228,i
1773824261.758563,48,1135,i
1773824261.7699058,95,1193,i
1773824261.780384,42,1219,i
1773824261.7915468,46,1128,i
1773824261.802036,41,1190,i
1773824261.8131452,18,1218,i
1773824261.8240519,15,1133,i
1773824261.8357382,155,1212,i
1773824261.846046,40,1210,i
1773824261.857963,57,1130,i
1773824261.8705778,48,1216,i
1773824261.879214,89,1197,i
1773824261.89088,102,1133,i
1773824261.9010508,27,1222,i
1773824261.912912,47,1195,i
1773824261.923127,95,1137,i
1773824261.934942,36,1228,i
1773824261.9450612,89,1183,i
1773824261.9563808,139,1151,i
1773824261.9674282,70,1240,i
1773824261.978863,68,1176,i
1773824261.992474,101,1148,i
1773824262.0008059,47,1243,i
1773824262.0127969,36,1162,i
1773824262.0222778,154,1150,i
1773824262.034472,53,1247,i
1773824262.043941,9,1153,i
1773824262.055352,101,1152,i
1773824262.0659761,51,1247,i
1773824262.077087,29,1152,i
1773824262.0881338,132,1156,i
1773824262.100327,38,1241,i
1773824262.110527,8,1144,i
1773824262.1218119,142,1159,i
1773824262.1342888,8,1240,i
1773824262.142931,58,1141,i
1773824262.154801,152,1169,i
1773824262.165474,130,1256,i
1773824262.1771579,28,1144,i
1773824262.187499,144,1174,i
1773824262.198977,148,1256,i
1773824262.20892,51,1138,i
1773824262.22049,113,1179,i
1773824262.2310588,111,1247,i
1773824262.242948,74,1146,i
1773824262.2563999,154,1187,i
1773824262.264477,118,1250,i
1773824262.276866,7,1129,i
1773824262.286558,140,1188,i
1773824262.2976918,126,1235,i
1773824262.3083038,75,1138,i
1773824262.319469,114,1199,i
1773824262.3299341,99,1222,i
1773824262.341035,15,1125,i
1773824262.352273,125,1210,i
1773824262.3638191,104,1220,i
1773824262.374055,40,1125,i
1773824262.384914,89,1216,i
1773824262.3986402,67,1210,i
1773824262.406971,83,1134,i
1773824262.418842,43,1207,i
1773824262.4290628,112,1195,i
1773824262.4408262,63,1141,i
1773824262.4509702,42,1223,i
1773824262.464365,105,1189,i
1773824262.473061,112,1136,i
1773824262.483961,73,1236,i
1773824262.495112,72,1185,i
1773824262.5071628,52,1143,i
1773824262.5169039,24,1227,i
1773824262.528448,59,1177,i
1773824262.53898,145,1154,i
1773824262.551782,22,1233,i
1773824262.560933,78,1164,i
1773824262.573704,205,1162,i
1773824262.5829492,46,1239,i
1773824262.5943198,16,1162,i
1773824262.607836,113,1150,i
1773824262.6166751,2,1244,i
1773824262.628978,20,1156,i
1773824262.637919,150,1165,i
1773824262.649754,32,1249,i
1773824262.659942,60,1154,i
1773824262.671453,180,1169,i
1773824262.682078,97,1247,i
1773824262.6934788,27,1150,i
1773824262.703934,188,1176,i
1773824262.715709,106,1255,i
1773824262.725919,39,1136,i
1773824262.738328,143,1176,i
1773824262.747902,104,1250,i
1773824262.7603872,40,1134,i
1773824262.770307,146,1176,i
1773824262.782239,177,1257,i
1773824262.792115,10,1130,i
1773824262.8038568,147,1191,i
1773824262.8139079,166,1251,i
1773824262.826792,33,1132,i
1773824262.835936,171,1191,i
1773824262.8477042,142,1233,i
1773824262.860961,31,1129,i
1773824262.8698611,111,1203,i
1773824262.883478,141,1231,i
1773824262.890847,38,1130,i
1773824262.905034,95,1205,i
1773824262.913316,98,1221,i
1773824262.925411,44,1138,i
1773824262.934932,109,1211,i
1773824262.9462001,170,1216,i
1773824262.956815,78,1141,i
1773824262.968881,104,1219,i
1773824262.978837,74,1202,i
1773824262.990335,96,1141,i
1773824263.000813,49,1218,i
1773824263.011829,87,1191,i
1773824263.0234509,82,1135,i
1773824263.0354612,36,1233,i
1773824263.0449111,107,1179,i
1773824263.0562031,104,1138,i
1773824263.0689962,20,1230,i
1773824263.077804,80,1169,i
1773824263.0893629,143,1151,i
1773824263.100281,34,1244,i
1773824263.1118,78,1163,i
1773824263.121815,166,1156,i
1773824263.1331751,43,1248,i
1773824263.143799,43,1153,i
1773824263.155946,157,1162,i
1773824263.165815,32,1239,i
1773824263.178117,6,1155,i
1773824263.191576,152,1167,i
1773824263.199609,39,1245,i
1773824263.210758,68,1152,i
1773824263.220902,182,1171,i
1773824263.232705,66,1255,i
1773824263.242676,36,1148,i
1773824263.254671,160,1173,i
1773824263.265153,129,1257,i
1773824263.2760372,43,1143,i
1773824263.2868228,112,1168,i
1773824263.299137,105,1251,i
1773824263.312667,53,1143,i
1773824263.3198159,144,1185,i
1773824263.333429,115,1243,i
1773824263.342005,26,1136,i
1773824263.353446,158,1187,i
1773824263.3639941,158,1250,i
1773824263.374787,31,1129,i
1773824263.3862069,134,1191,i
1773824263.397259,144,1229,i
1773824263.407687,25,1129,i
1773824263.419277,126,1207,i
1773824263.429816,147,1220,i
1773824263.442888,53,1135,i
1773824263.45177,97,1215,i
1773824263.463395,133,1220,i
1773824263.476614,31,1133,i
1773824263.485347,67,1215,i
1773824263.4969401,114,1201,i
1773824263.5068412,40,1127,i
1773824263.5188649,93,1223,i
1773824263.528775,133,1200,i
1773824263.540373,114,1145,i
1773824263.550706,35,1228,i
1773824263.563585,68,1188,i
1773824263.573107,79,1143,i
1773824263.5850701,21,1226,i
1773824263.594811,77,1173,i
1773824263.6067111,126,1151,i
1773824263.619062,37,1241,i
1773824263.6278028,59,1173,i
1773824263.638676,188,1161,i
1773824263.649736,25,1245,i
1773824263.661022,36,1162,i
1773824263.671718,166,1163,i
1773824263.682881,47,1243,i
1773824263.693687,48,1150,i
1773824263.70515,147,1153,i
1773824263.715841,21,1240,i
1773824263.729413,50,1157,i
1773824263.740221,180,1169,i
1773824263.7486951,60,1243,i
1773824263.7614238,41,1148,i
1773824263.770806,181,1167,i
1773824263.782593,111,1259,i
1773824263.792674,34,1144,i
1773824263.803999,183,1176,i
1773824263.8147929,143,1251,i
1773824263.8267121,34,1142,i
1773824263.836664,141,1181,i
1773824263.847967,114,1250,i
1773824263.8586571,18,1140,i
1773824263.870659,153,1182,i
1773824263.8833852,182,1254,i
1773824263.892233,68,1141,i
1773824263.904332,195,1199,i
1773824263.913686,195,1248,i
1773824263.92571,22,1138,i
1773824263.9356842,181,1197,i
1773824263.9475079,94,1226,i
1773824263.9575648,94,1142,i
1773824263.968949,158,1209,i
1773824263.979533,91,1216,i
1773824263.99278,35,1128,i
1773824264.001943,163,1221,i
1773824264.012773,159,1218,i
1773824264.0252721,31,1129,i
1773824264.034742,122,1224,i
1773824264.045813,182,1211,i
1773824264.0570838,85,1139,i
1773824264.0676868,87,1225,i
1773824264.078656,77,1187,i
1773824264.090143,76,1139,i
1773824264.100558,65,1234,i
1773824264.112261,63,1185,i
1773824264.122793,128,1139,i
1773824264.133782,62,1241,i
1773824264.147087,54,1170,i
1773824264.155879,146,1151,i
1773824264.167062,64,1243,i
1773824264.17758,39,1162,i
1773824264.189287,38,1137,i
1773824264.199979,29,1246,i
1773824264.210956,38,1162,i
1773824264.221698,143,1149,i
1773824264.233474,44,1251,i
1773824264.2436879,165,1171,i
1773824264.255351,101,1162,i
1773824264.2683258,92,1249,i
1773824264.276907,32,1152,i
1773824264.288552,158,1173,i
1773824264.298592,63,1245,i
1773824264.31036,160,1149,i
1773824264.321105,202,1170,i
1773824264.332119,143,1251,i
1773824264.342579,46,1148,i
1773824264.3539572,58,1171,i
1773824264.3648582,197,1260,i
1773824264.377318,22,1135,i
1773824264.3895931,90,1180,i
1773824264.398078,62,1246,i
1773824264.4107032,65,1134,i
1773824264.4200692,103,1186,i
1773824264.431241,172,1246,i
1773824264.441566,65,1138,i
1773824264.452899,102,1186,i
1773824264.4637818,119,1230,i
1773824264.474751,96,1136,i
1773824264.4855769,60,1200,i
1773824264.497608,49,1220,i
1773824264.507566,85,1135,i
1773824264.519783,124,1213,i
1773824264.531946,34,1211,i
1773824264.541793,20,1133,i
1773824264.5538838,48,1212,i
1773824264.563082,62,1198,i
1773824264.576756,128,1147,i
1773824264.585535,27,1215,i
1773824264.602289,61,1189,i
1773824264.60672,72,1141,i
1773824264.617534,48,1221,i
1773824264.629754,100,1185,i
1773824264.63975,147,1149,i
1773824264.6515388,78,1231,i
1773824264.661545,76,1186,i
1773824264.6744719,174,1153,i
1773824264.683537,67,1243,i
1773824264.695233,41,1171,i
1773824264.708545,74,1140,i
1773824264.718055,31,1243,i
1773824264.729763,24,1165,i
1773824264.7394261,102,1153,i
1773824264.750978,38,1247,i
1773824264.760532,55,1161,i
1773824264.772822,167,1163,i
1773824264.783081,83,1247,i
1773824264.793775,18,1147,i
1773824264.804537,165,1157,i
1773824264.816705,52,1253,i
1773824264.8266199,38,1144,i
1773824264.839753,149,1171,i
1773824264.848683,61,1250,i
1773824264.860767,64,1143,i
1773824264.870573,188,1179,i
1773824264.8830662,175,1263,i
1773824264.892422,41,1145,i
1773824264.905505,180,1183,i
1773824264.9146361,144,1257,i
1773824264.9277282,25,1133,i
1773824264.9370189,157,1177,i
1773824264.949118,121,1239,i
1773824264.958403,37,1132,i
1773824264.972726,156,1187,i
1773824264.980536,135,1246,i
1773824264.992752,34,1136,i
1773824265.002922,120,1189,i
1773824265.014575,164,1241,i
1773824265.024791,61,1135,i
1773824265.038042,96,1195,i
1773824265.0465732,101,1223,i
1773824265.0585659,39,1125,i
1773824265.068436,83,1205,i
1773824265.080349,110,1207,i
1773824265.090546,71,1140,i
1773824265.101828,89,1217,i
1773824265.112911,103,1209,i
1773824265.123539,87,1136,i
1773824265.1344068,66,1226,i
1773824265.1478488,151,1203,i
1773824265.157196,77,1133,i
1773824265.168406,38,1223,i
1773824265.180969,98,1190,i
1773824265.189771,136,1147,i
1773824265.2011461,28,1237,i
1773824265.211537,48,1180,i
1773824265.2227771,90,1148,i
1773824265.234014,35,1234,i
1773824265.244693,69,1173,i
1773824265.2555652,146,1149,i
1773824265.267235,43,1239,i
1773824265.2774332,92,1160,i
1773824265.2895648,183,1152,i
1773824265.299653,74,1245,i
1773824265.310739,12,1158,i
1773824265.323817,148,1165,i
1773824265.3325481,32,1241,i
1773824265.3443,17,1144,i
1773824265.354534,138,1160,i
1773824265.365459,48,1243,i
1773824265.376433,53,1143,i
1773824265.3877928,200,1168,i
1773824265.3986409,119,1249,i
1773824265.409666,25,1147,i
1773824265.420566,139,1172,i
1773824265.433007,131,1257,i
1773824265.4469938,24,1135,i
1773824265.454588,150,1178,i
1773824265.467485,105,1251,i
1773824265.475741,50,1137,i
1773824265.4884312,179,1190,i
1773824265.497785,150,1244,i
1773824265.5091252,17,1133,i
1773824265.519959,150,1190,i
1773824265.531827,183,1246,i
1773824265.541554,45,1129,i
1773824265.5531352,148,1196,i
1773824265.563443,153,1233,i
1773824265.574656,33,1128,i
1773824265.585448,87,1204,i
1773824265.597939,137,1217,i
1773824265.607451,42,1135,i
1773824265.618471,82,1211,i
1773824265.6308658,118,1207,i
1773824265.6409888,71,1141,i
1773824265.651535,81,1214,i
1773824265.662587,128,1196,i
1773824265.674494,59,1129,i
1773824265.684365,50,1227,i
1773824265.6955001,126,1189,i
1773824265.7064269,122,1141,i
1773824265.719967,44,1227,i
1773824265.7289732,50,1181,i
1773824265.7399611,84,1138,i
1773824265.752646,35,1238,i
1773824265.761935,77,1169,i
1773824265.772933,159,1156,i
1773824265.783293,27,1236,i
1773824265.794966,90,1167,i
1773824265.805753,197,1154,i
1773824265.817167,22,1248,i
1773824265.8274372,47,1160,i
1773824265.839566,147,1152,i
1773824265.849327,28,1242,i
1773824265.861883,24,1154,i
1773824265.874458,172,1165,i
1773824265.8824599,59,1243,i
1773824265.8951318,30,1149,i
1773824265.9046552,205,1177,i
1773824265.9156458,100,1252,i
1773824265.9262972,59,1140,i
1773824265.937731,169,1167,i
1773824265.948579,97,1247,i
1773824265.959312,29,1135,i
1773824265.970444,209,1176,i
1773824265.9821491,139,1254,i
1773824265.9923148,12,1132,i
1773824266.004145,119,1184,i
1773824266.0168881,112,1250,i
1773824266.025934,16,1135,i
1773824266.0367942,156,1186,i
1773824266.0473301,110,1236,i
1773824266.05888,41,1137,i
1773824266.069647,168,1197,i
1773824266.0804448,157,1239,i
1773824266.091302,51,1133,i
1773824266.103625,93,1197,i
1773824266.113282,146,1219,i
1773824266.12563,26,1128,i
1773824266.138038,118,1216,i
1773824266.146577,124,1208,i
1773824266.1599848,92,1133,i
1773824266.168721,78,1215,i
1773824266.180037,118,1205,i
1773824266.190187,60,1133,i
1773824266.201453,50,1215,i
1773824266.212168,64,1195,i
1773824266.223619,64,1134,i
1773824266.234533,71,1233,i
1773824266.245823,95,1190,i
1773824266.256289,155,1151,i
1773824266.2675562,44,1238,i
1773824266.278326,56,1171,i
1773824266.2912672,93,1140,i
1773824266.30016,16,1233,i
1773824266.311457,40,1170,i
1773824266.324058,112,1153,i
1773824266.33319,30,1239,i
1773824266.344584,58,1155,i
1773824266.3555148,164,1152,i
1773824266.36656,59,1251,i
1773824266.3775308,36,1150,i
1773824266.388619,203,1162,i
1773824266.399161,72,1249,i
1773824266.412319,42,1149,i
1773824266.421345,161,1165,i
1773824266.432951,88,1249,i
1773824266.445271,56,1153,i
1773824266.454615,156,1169,i
1773824266.466084,95,1258,i
1773824266.476206,32,1137,i
1773824266.488093,150,1173,i
1773824266.498283,128,1257,i
1773824266.510058,16,1134,i
1773824266.5202858,186,1177,i
1773824266.5319512,139,1242,i
1773824266.542633,11,1130,i
1773824266.55483,104,1180,i
1773824266.5642161,170,1241,i
1773824266.575329,32,1127,i
1773824266.5879009,87,1186,i
1773824266.597229,102,1239,i
1773824266.608362,73,1139,i
1773824266.619565,160,1199,i
1773824266.63034,123,1220,i
1773824266.6411939,48,1135,i
1773824266.6526778,112,1211,i
1773824266.663488,74,1216,i
1773824266.676754,172,1140,i
1773824266.685282,113,1220,i
1773824266.704321,70,1198,i
1773824266.707149,56,1138,i
1773824266.719945,32,1210,i
1773824266.7295098,118,1193,i
1773824266.741504,118,1138,i
1773824266.751831,40,1219,i
1773824266.763981,100,1186,i
1773824266.7737532,104,1147,i
1773824266.785918,50,1235,i
1773824266.7955189,72,1173,i
1773824266.8076181,114,1145,i
1773824266.8170419,23,1235,i
1773824266.828289,29,1162,i
1773824266.8391738,121,1150,i
1773824266.85136,48,1237,i
1773824266.86111,52,1169,i
1773824266.8726048,160,1159,i
1773824266.88305,67,1250,i
1773824266.8940558,64,1160,i
1773824266.905448,225,1167,i
1773824266.916311,26,1241,i
1773824266.927267,26,1155,i
1773824266.939501,148,1168,i
1773824266.9492118,44,1242,i
1773824266.9623082,66,1154,i
1773824266.9711921,160,1167,i
1773824266.98392,120,1252,i
1773824266.993352,25,1141,i
1773824267.005651,128,1176,i
1773824267.015179,121,1247,i
1773824267.029505,95,1147,i
1773824267.041305,230,1179,i
1773824267.049598,235,1254,i
1773824267.0590599,43,1136,i
1773824267.071061,60,1171,i
1773824267.08636,150,1251,i
1773824267.092632,27,1130,i
1773824267.105917,48,1185,i
1773824267.1143901,101,1233,i
1773824267.127687,83,1143,i
1773824267.136262,118,1190,i
1773824267.1490078,292,1241,i
1773824267.1581938,91,1141,i
1773824267.169546,110,1208,i
1773824267.180649,124,1225,i
1773824267.1917162,55,1136,i
1773824267.2020822,95,1217,i
1773824267.213675,128,1207,i
1773824267.2241879,131,1139,i
1773824267.2355058,141,1220,i
1773824267.246191,231,1217,i
1773824267.257885,88,1134,i
1773824267.268041,99,1231,i
1773824267.279577,84,1196,i
1773824267.290041,79,1143,i
1773824267.301224,17,1229,i
1773824267.3125918,56,1175,i
1773824267.323904,153,1144,i
1773824267.334071,43,1238,i
1773824267.346251,45,1167,i
1773824267.3584251,146,1145,i
1773824267.367777,32,1239,i
1773824267.378995,53,1172,i
1773824267.389351,168,1160,i
1773824267.401599,125,1250,i
1773824267.4113631,55,1163,i
1773824267.42309,117,1150,i
1773824267.4331021,10,1242,i
1773824267.444913,81,1153,i
1773824267.455507,100,1157,i
1773824267.468107,49,1250,i
1773824267.477227,27,1152,i
1773824267.488636,145,1162,i
1773824267.501589,55,1252,i
1773824267.5109172,54,1141,i
1773824267.522054,148,1168,i
1773824267.53234,150,1254,i
1773824267.544052,41,1138,i
1773824267.55443,140,1169,i
1773824267.5658848,71,1242,i
1773824267.576053,45,1142,i
1773824267.588567,141,1186,i
1773824267.59813,136,1246,i
1773824267.609091,23,1132,i
1773824267.620071,58,1179,i
1773824267.631708,74,1244,i
1773824267.6420631,66,1131,i
1773824267.654988,207,1197,i
1773824267.664067,202,1243,i
1773824267.675215,48,1135,i
1773824267.6885939,47,1200,i
1773824267.6971672,129,1220,i
1773824267.708113,65,1129,i
1773824267.719594,98,1213,i
1773824267.72996,58,1205,i
1773824267.740931,91,1143,i
1773824267.752598,99,1220,i
1773824267.763498,118,1203,i
1773824267.775855,87,1133,i
1773824267.784927,82,1219,i
1773824267.796648,116,1193,i
1773824267.809223,77,1143,i
1773824267.8182888,49,1222,i
1773824267.82975,29,1183,i
1773824267.840478,123,1137,i
1773824267.852094,33,1235,i
1773824267.861931,62,1175,i
1773824267.873858,128,1141,i
1773824267.884512,21,1241,i
1773824267.895448,47,1164,i
1773824267.906301,148,1158,i
1773824267.918491,17,1234,i
1773824267.931179,84,1158,i
1773824267.9391072,137,1150,i
1773824267.951615,54,1241,i
1773824267.961282,34,1150,i
1773824267.9724932,170,1156,i
1773824267.983436,73,1246,i
1773824267.9943712,11,1153,i
1773824268.005398,147,1162,i
1773824268.0161479,61,1252,i
1773824268.026921,61,1150,i
1773824268.038729,157,1172,i
1773824268.048911,76,1249,i
1773824268.061829,9,1139,i
1773824268.0710258,186,1171,i
1773824268.082645,151,1259,i
1773824268.0948591,15,1141,i
1773824268.104295,119,1180,i
1773824268.116129,90,1240,i
1773824268.1259258,26,1138,i
1773824268.13832,150,1182,i
1773824268.1479528,109,1246,i
1773824268.1600451,46,1133,i
1773824268.169941,160,1194,i
1773824268.181003,128,1239,i
1773824268.1919308,58,1129,i
1773824268.2042172,93,1199,i
1773824268.216958,132,1223,i
1773824268.224919,37,1126,i
1773824268.23773,95,1211,i
1773824268.2469199,106,1218,i
1773824268.257963,71,1130,i
1773824268.269069,109,1214,i
1773824268.280649,128,1206,i
1773824268.290945,62,1138,i
1773824268.30379,40,1211,i
1773824268.312948,120,1193,i
1773824268.324672,81,1134,i
1773824268.334993,52,1219,i
1773824268.346551,91,1182,i
1773824268.3589,134,1148,i
1773824268.3683999,38,1236,i
1773824268.379294,64,1184,i
1773824268.389962,112,1148,i
1773824268.40151,26,1233,i
1773824268.411826,37,1164,i
1773824268.4236531,136,1154,i
1773824268.4342542,15,1235,i
1773824268.446492,62,1162,i
1773824268.4559329,157,1159,i
1773824268.467725,40,1240,i
1773824268.478229,60,1155,i
1773824268.489602,167,1163,i
1773824268.502452,51,1250,i
1773824268.5117,12,1147,i
1773824268.523042,137,1168,i
1773824268.532854,67,1247,i
1773824268.544538,69,1148,i
1773824268.555358,175,1166,i
1773824268.566357,130,1259,i
1773824268.5768352,11,1137,i
1773824268.588682,224,1180,i
1773824268.599007,155,1259,i
1773824268.610973,13,1135,i
1773824268.623538,144,1181,i
1773824268.6328971,108,1244,i
1773824268.643878,40,1132,i
1773824268.653929,180,1183,i
1773824268.666004,107,1245,i
1773824268.675807,32,1128,i
1773824268.688087,178,1198,i
1773824268.697972,163,1241,i
1773824268.708931,49,1129,i
1773824268.719836,97,1192,i
1773824268.732822,134,1228,i
1773824268.741675,8,1125,i
1773824268.753456,133,1212,i
1773824268.766745,108,1223,i
1773824268.77586,41,1127,i
1773824268.787065,157,1216,i
1773824268.796947,175,1220,i
1773824268.809556,75,1131,i
1773824268.81885,36,1217,i
1773824268.8314931,119,1205,i
1773824268.8407931,84,1141,i
1773824268.852874,50,1218,i
1773824268.86321,77,1185,i
1773824268.874656,118,1145,i
1773824268.885458,65,1227,i
1773824268.897092,107,1188,i
1773824268.906922,134,1149,i
1773824268.919262,19,1231,i
1773824268.929118,69,1171,i
1773824268.940455,161,1146,i
1773824268.950825,57,1237,i
1773824268.9631228,18,1164,i
1773824268.972942,130,1156,i
1773824268.98459,43,1246,i
1773824268.994992,88,1162,i
1773824269.006059,161,1161,i
1773824269.016788,28,1242,i
1773824269.0303092,50,1151,i
1773824269.0389462,174,1161,i
1773824269.050953,30,1242,i
1773824269.063966,38,1152,i
1773824269.072211,128,1167,i
1773824269.0856478,72,1253,i
1773824269.093977,64,1143,i
1773824269.11236,190,1169,i
1773824269.1166458,79,1248,i
1773824269.1309152,32,1136,i
1773824269.1395981,216,1185,i
1773824269.152239,129,1246,i
1773824269.160935,34,1142,i
1773824269.170947,130,1177,i
1773824269.1827352,115,1248,i
1773824269.1955142,12,1128,i
1773824269.2041311,119,1189,i
1773824269.21843,107,1245,i
1773824269.226249,56,1130,i
1773824269.240265,167,1200,i
1773824269.247951,196,1234,i
1773824269.261581,31,1136,i
1773824269.2699552,119,1201,i
1773824269.2827919,142,1224,i
1773824269.291776,53,1136,i
1773824269.30305,92,1216,i
1773824269.313845,85,1218,i
1773824269.324929,57,1131,i
1773824269.335818,92,1220,i
1773824269.34801,165,1213,i
1773824269.357954,88,1142,i
1773824269.369206,88,1222,i
1773824269.380217,139,1196,i
1773824269.391058,114,1137,i
1773824269.401825,56,1232,i
1773824269.413769,96,1183,i
1773824269.423823,78,1145,i
1773824269.435642,26,1227,i
1773824269.4486778,97,1173,i
1773824269.457794,112,1142,i
1773824269.468572,37,1233,i
1773824269.479111,66,1172,i
1773824269.490836,178,1150,i
1773824269.5012639,55,1241,i
1773824269.512653,24,1166,i
1773824269.52294,128,1159,i
1773824269.533966,36,1247,i
1773824269.544804,18,1157,i
1773824269.55808,205,1171,i
1773824269.5668218,22,1243,i
1773824269.5800378,66,1156,i
1773824269.589119,175,1167,i
1773824269.601706,140,1252,i
1773824269.6107972,69,1158,i
1773824269.622127,90,1170,i
1773824269.634996,90,1253,i
1773824269.6442618,31,1140,i
1773824269.6558561,166,1180,i
1773824269.666365,208,1259,i
1773824269.678039,54,1137,i
1773824269.687922,115,1176,i
1773824269.701484,181,1248,i
1773824269.709793,57,1143,i
1773824269.721705,224,1191,i
1773824269.7317948,63,1231,i
1773824269.74303,60,1144,i
1773824269.7539499,209,1200,i
1773824269.7651682,238,1246,i
1773824269.776156,48,1137,i
1773824269.78861,47,1194,i
1773824269.797801,66,1219,i
1773824269.809027,70,1131,i
1773824269.821852,143,1215,i
1773824269.8310242,134,1226,i
1773824269.842143,150,1150,i
1773824269.853503,107,1209,i
1773824269.8639302,92,1211,i
1773824269.8750029,74,1133,i
1773824269.886932,23,1217,i
1773824269.8974779,91,1203,i
1773824269.909945,118,1146,i
1773824269.919039,45,1227,i
1773824269.930804,43,1186,i
1773824269.943033,80,1135,i
1773824269.952142,37,1229,i
1773824269.963797,87,1186,i
1773824269.974265,95,1147,i
1773824269.986312,74,1236,i
1773824269.995806,52,1175,i
1773824270.006919,147,1147,i
1773824270.0180008,46,1241,i
1773824270.029846,72,1164,i
1773824270.039822,88,1152,i
1773824270.050883,62,1253,i
1773824270.06179,48,1154,i
1773824270.0736818,176,1163,i
1773824270.0838022,64,1245,i
1773824270.0961668,68,1161,i
1773824270.109269,123,1165,i
1773824270.1170099,69,1248,i
1773824270.129753,70,1146,i
1773824270.139369,90,1155,i
1773824270.151406,151,1261,i
1773824270.160821,77,1143,i
1773824270.17247,154,1176,i
1773824270.182946,145,1249,i
1773824270.194505,96,1151,i
1773824270.204915,103,1178,i
1773824270.216894,60,1237,i
1773824270.2271569,68,1143,i
1773824270.237938,115,1183,i
1773824270.248797,89,1244,i
1773824270.261594,42,1131,i
1773824270.2707908,128,1183,i
1773824270.2818592,147,1243,i
1773824270.2946088,70,1138,i
1773824270.303916,73,1186,i
1773824270.3155148,114,1222,i
1773824270.325835,100,1140,i
1773824270.337266,44,1194,i
1773824270.3483012,91,1210,i
1773824270.3590772,127,1136,i
1773824270.3698182,83,1208,i
1773824270.3814368,75,1201,i
1773824270.391841,68,1142,i
1773824270.402817,82,1222,i
1773824270.4136949,31,1196,i
1773824270.42709,92,1142,i
1773824270.4359832,64,1219,i
1773824270.448093,82,1191,i
1773824270.461133,159,1142,i
1773824270.468721,62,1236,i
1773824270.481428,25,1172,i
1773824270.490835,57,1143,i
1773824270.50192,27,1229,i
1773824270.5127082,20,1165,i
1773824270.524789,84,1150,i
1773824270.5346718,41,1245,i
1773824270.545886,63,1159,i
1773824270.556823,213,1158,i
1773824270.568523,93,1254,i
1773824270.5791109,30,1163,i
1773824270.591615,156,1153,i
1773824270.600672,55,1249,i
1773824270.611917,33,1145,i
1773824270.622787,124,1161,i
1773824270.635149,40,1246,i
1773824270.648087,90,1150,i
1773824270.656796,121,1169,i
1773824270.668463,146,1263,i
1773824270.677692,17,1146,i
1773824270.6901639,177,1169,i
1773824270.6998951,133,1255,i
1773824270.711384,49,1144,i
1773824270.72225,154,1177,i
1773824270.734297,92,1242,i
1773824270.744065,32,1141,i
1773824270.756156,112,1182,i
1773824270.765673,83,1234,i
1773824270.7777522,28,1130,i
1773824270.789483,132,1187,i
1773824270.799277,147,1247,i
1773824270.810773,71,1141,i
1773824270.820699,96,1192,i
1773824270.832448,177,1236,i
1773824270.842675,41,1135,i
1773824270.854482,125,1209,i
1773824270.8646772,105,1220,i
1773824270.8764338,73,1138,i
1773824270.886699,78,1214,i
1773824270.8976839,67,1205,i
1773824270.9086962,53,1134,i
1773824270.920639,72,1212,i
1773824270.9337542,128,1205,i
1773824270.941665,66,1140,i
1773824270.9542458,58,1227,i
1773824270.96369,93,1195,i
1773824270.9780219,120,1139,i
1773824270.98591,86,1229,i
1773824271.0000331,37,1183,i
1773824271.0080771,96,1146,i
1773824271.022899,43,1230,i
1773824271.0306659,43,1167,i
1773824271.040996,118,1150,i
1773824271.052911,41,1242,i
1773824271.066317,57,1161,i
1773824271.074574,196,1154,i
1773824271.0879622,50,1241,i
1773824271.096065,46,1153,i
1773824271.109162,99,1156,i
1773824271.117627,38,1248,i
1773824271.130956,30,1156,i
1773824271.140616,147,1154,i
1773824271.1528242,55,1245,i
1773824271.1619341,31,1145,i
1773824271.173721,188,1176,i
1773824271.183894,96,1248,i
1773824271.19535,21,1138,i
1773824271.205673,188,1179,i
1773824271.217243,114,1249,i
1773824271.230203,35,1136,i
1773824271.242321,147,1178,i
1773824271.250717,87,1240,i
1773824271.262293,45,1144,i
1773824271.2723,133,1179,i
1773824271.288579,150,1252,i
1773824271.297584,9,1138,i
1773824271.3046641,142,1195,i
1773824271.3181272,122,1242,i
1773824271.326571,45,1130,i
1773824271.3376782,142,1200,i
1773824271.3488588,165,1229,i
1773824271.36427,36,1135,i
1773824271.37082,94,1208,i
1773824271.3828852,120,1217,i
1773824271.393147,32,1133,i
1773824271.405278,75,1215,i
1773824271.414668,115,1212,i
1773824271.42697,65,1133,i
1773824271.436918,72,1219,i
1773824271.447881,147,1202,i
1773824271.458679,72,1130,i
1773824271.472893,78,1230,i
1773824271.4807339,96,1188,i
1773824271.491862,122,1144,i
1773824271.502592,51,1233,i
1773824271.5138402,54,1178,i
1773824271.524574,81,1146,i
1773824271.535813,39,1234,i
1773824271.5465589,98,1173,i
1773824271.557997,116,1145,i
1773824271.568877,23,1233,i
1773824271.580966,79,1164,i
1773824271.593927,210,1163,i
1773824271.60159,54,1243,i
1773824271.613951,44,1167,i
1773824271.623765,86,1151,i
1773824271.635183,17,1248,i
1773824271.64578,23,1156,i
1773824271.657634,138,1166,i
1773824271.667542,22,1251,i
1773824271.6808572,72,1147,i
1773824271.6897411,196,1165,i
1773824271.701666,120,1249,i
1773824271.711555,22,1138,i
1773824271.725562,125,1171,i
1773824271.733687,114,1248,i
1773824271.745308,23,1144,i
1773824271.755685,136,1168,i
1773824271.767435,103,1243,i
1773824271.777586,29,1136,i
1773824271.788966,177,1181,i
1773824271.7995808,145,1247,i
1773824271.811062,22,1137,i
1773824271.8218071,162,1195,i
1773824271.833885,163,1249,i
1773824271.843543,35,1137,i
1773824271.856707,130,1188,i
1773824271.86576,162,1231,i
1773824271.877919,37,1127,i
1773824271.890935,117,1200,i
1773824271.899286,125,1220,i
1773824271.912619,30,1127,i
1773824271.921558,102,1208,i
1773824271.933693,103,1212,i
1773824271.942605,67,1131,i
1773824271.954323,123,1223,i
1773824271.964821,172,1204,i
1773824271.975883,81,1131,i
1773824271.98643,31,1223,i
1773824271.9978921,98,1198,i
1773824272.008611,122,1136,i
1773824272.019682,35,1231,i
1773824272.0305889,46,1179,i
1773824272.042361,82,1137,i
1773824272.052866,61,1229,i
1773824272.0654562,87,1176,i
1773824272.0745778,140,1145,i
1773824272.0858061,32,1232,i
1773824272.09876,64,1162,i
1773824272.107691,170,1159,i
1773824272.11982,20,1239,i
1773824272.129699,31,1157,i
1773824272.140687,132,1150,i
1773824272.15201,38,1241,i
1773824272.1625578,64,1160,i
1773824272.173574,166,1166,i
1773824272.184484,54,1243,i
1773824272.195456,35,1144,i
1773824272.2071328,193,1173,i
1773824272.2180018,94,1254,i
1773824272.230857,39,1148,i
1773824272.2437491,157,1170,i
1773824272.251269,98,1256,i
1773824272.265849,22,1144,i
1773824272.273293,193,1173,i
1773824272.286698,134,1247,i
1773824272.294639,9,1141,i
1773824272.3081532,151,1187,i
1773824272.317504,108,1241,i
1773824272.330563,22,1129,i
1773824272.33923,151,1193,i
1773824272.350532,129,1239,i
1773824272.360476,21,1136,i
1773824272.372684,157,1191,i
1773824272.382549,139,1230,i
1773824272.39455,54,1138,i
1773824272.404418,63,1194,i
1773824272.416339,126,1230,i
1773824272.426423,30,1129,i
1773824272.4386299,106,1216,i
1773824272.452588,95,1210,i
1773824272.460738,65,1139,i
1773824272.473224,102,1213,i
1773824272.4826171,156,1213,i
1773824272.493786,88,1137,i
1773824272.503443,30,1215,i
1773824272.514627,84,1199,i
1773824272.525447,113,1143,i
1773824272.537278,34,1231,i
1773824272.547533,133,1188,i
1773824272.559783,165,1146,i
1773824272.569529,49,1231,i
1773824272.580883,123,1186,i
1773824272.591475,90,1147,i
1773824272.602518,18,1232,i
1773824272.613466,163,1183,i
1773824272.624671,270,1162,i
1773824272.635759,57,1248,i
1773824272.6470919,23,1155,i
1773824272.661421,99,1152,i
1773824272.669481,39,1250,i
1773824272.679714,36,1157,i
1773824272.690901,84,1158,i
1773824272.704332,57,1244,i
1773824272.714011,32,1146,i
1773824272.7257972,158,1168,i
1773824272.7354932,32,1249,i
1773824272.747424,73,1143,i
1773824272.756901,47,1160,i
1773824272.769461,107,1254,i
1773824272.7787058,46,1147,i
1773824272.791193,228,1178,i
1773824272.800756,150,1257,i
1773824272.812481,59,1138,i
1773824272.822418,104,1180,i
1773824272.83416,182,1252,i
1773824272.8443131,40,1139,i
1773824272.856174,103,1183,i
1773824272.8667579,123,1237,i
1773824272.877923,148,1145,i
1773824272.888488,164,1198,i
1773824272.9005718,91,1235,i
1773824272.910329,66,1131,i
1773824272.922061,45,1197,i
1773824272.9355881,60,1223,i
1773824272.943443,42,1126,i
1773824272.9567318,140,1216,i
1773824272.965801,47,1204,i
1773824272.978034,132,1146,i
1773824272.987304,81,1216,i
1773824272.998564,324,1223,i
1773824273.009732,71,1141,i
1773824273.020345,47,1223,i
1773824273.031648,170,1210,i
1773824273.042999,98,1142,i
1773824273.0538838,24,1219,i
1773824273.066335,28,1175,i
1773824273.0754602,100,1135,i
1773824273.0886168,38,1227,i
1773824273.0973382,87,1187,i
1773824273.110446,142,1147,i
1773824273.119493,185,1254,i
1773824273.1315022,33,1160,i
1773824273.141462,180,1152,i
1773824273.1525388,149,1256,i
1773824273.1633348,21,1160,i
1773824273.1762738,133,1150,i
1773824273.1884642,63,1244,i
1773824273.196597,64,1158,i
1773824273.2096379,87,1159,i
1773824273.219018,25,1241,i
1773824273.231345,40,1153,i
1773824273.2403252,203,1169,i
1773824273.251568,137,1253,i
1773824273.262295,27,1149,i
1773824273.273338,103,1159,i
1773824273.2843788,86,1254,i
1773824273.295798,50,1146,i
1773824273.306327,279,1190,i
1773824273.3178098,125,1248,i
1773824273.328649,21,1144,i
1773824273.340686,123,1181,i
1773824273.356639,100,1250,i
1773824273.363658,55,1140,i
1773824273.372298,208,1193,i
1773824273.386932,85,1237,i
1773824273.3946471,29,1136,i
1773824273.407764,106,1194,i
1773824273.416179,55,1225,i
1773824273.430036,66,1132,i
1773824273.438299,113,1193,i
1773824273.451657,42,1219,i
1773824273.460175,52,1134,i
1773824273.4738529,25,1205,i
1773824273.482296,117,1208,i
1773824273.4936872,71,1140,i
1773824273.504902,46,1208,i
1773824273.515876,50,1197,i
1773824273.52648,101,1136,i
1773824273.537972,64,1216,i
1773824273.548301,108,1196,i
1773824273.559923,68,1132,i
1773824273.570286,19,1220,i
1773824273.5841432,94,1183,i
1773824273.592309,112,1144,i
1773824273.604099,33,1227,i
1773824273.614184,52,1181,i
1773824273.626461,105,1142,i
1773824273.63637,24,1233,i
1773824273.647886,62,1169,i
1773824273.658325,131,1155,i
1773824273.669781,27,1246,i
1773824273.680202,63,1159,i
1773824273.6931388,154,1155,i
1773824273.702208,64,1245,i
1773824273.71468,50,1158,i
1773824273.724205,167,1156,i
1773824273.736604,41,1241,i
1773824273.750566,42,1145,i
1773824273.758349,163,1163,i
1773824273.77145,120,1250,i
1773824273.780521,20,1149,i
1773824273.790163,130,1172,i
1773824273.802927,75,1248,i
1773824273.812174,47,1138,i
1773824273.824487,148,1177,i
1773824273.837218,119,1256,i
1773824273.8457248,28,1142,i
1773824273.859623,150,1176,i
1773824273.867597,121,1252,i
1773824273.88082,42,1139,i
1773824273.890047,129,1187,i
1773824273.901651,128,1236,i
1773824273.911374,27,1135,i
1773824273.923392,68,1184,i
1773824273.9332101,131,1227,i
1773824273.9450781,52,1128,i
1773824273.955364,100,1199,i
1773824273.966413,112,1220,i
1773824273.977429,22,1125,i
1773824273.988797,83,1212,i
1773824273.9990652,91,1213,i
1773824274.011034,42,1137,i
1773824274.021054,82,1215,i
1773824274.0323231,136,1207,i
1773824274.043453,109,1135,i
1773824274.054543,62,1228,i
1773824274.06556,44,1190,i
1773824274.076581,41,1137,i
1773824274.087316,33,1231,i
1773824274.099433,58,1183,i
1773824274.112112,80,1134,i
1773824274.1202471,55,1232,i
1773824274.1336079,71,1170,i
1773824274.143439,114,1143,i
1773824274.156898,25,1241,i
1773824274.16457,61,1159,i
1773824274.176663,161,1158,i
1773824274.186374,29,1239,i
1773824274.199071,54,1161,i
1773824274.208297,142,1152,i
1773824274.2213912,10,1241,i
1773824274.2308748,48,1148,i
1773824274.243316,156,1168,i
1773824274.252953,37,1250,i
1773824274.265483,0,1138,i
1773824274.2748852,136,1170,i
1773824274.2872581,54,1249,i
1773824274.2973728,71,1147,i
1773824274.309319,205,1179,i
1773824274.3190248,132,1259,i
1773824274.3307369,28,1146,i
1773824274.340089,102,1170,i
1773824274.351964,100,1247,i
1773824274.362466,21,1132,i
1773824274.374658,112,1184,i
1773824274.384256,92,1251,i
1773824274.395474,31,1131,i
1773824274.406063,172,1188,i
1773824274.417336,144,1246,i
1773824274.428324,27,1126,i
1773824274.439745,146,1196,i
1773824274.4500842,125,1237,i
1773824274.461287,53,1128,i
1773824274.472349,99,1207,i
1773824274.4833012,90,1223,i
1773824274.494281,50,1134,i
1773824274.5052311,130,1220,i
1773824274.5164669,115,1215,i
1773824274.527967,30,1126,i
1773824274.5379672,81,1214,i
1773824274.550136,125,1210,i
1773824274.5600011,86,1135,i
1773824274.571768,76,1221,i
1773824274.5819478,98,1187,i
1773824274.5940511,66,1140,i
1773824274.6045172,18,1225,i
1773824274.6166668,80,1185,i
1773824274.625956,96,1145,i
1773824274.6371908,24,1230,i
1773824274.648009,42,1175,i
1773824274.659179,125,1143,i
1773824274.6701288,40,1236,i
1773824274.68123,53,1158,i
1773824274.692074,159,1157,i
1773824274.7039528,24,1246,i
1773824274.713932,56,1154,i
1773824274.727372,146,1150,i
1773824274.7365801,65,1244,i
1773824274.748231,20,1147,i
1773824274.757935,104,1160,i
1773824274.769491,34,1249,i
1773824274.784002,34,1149,i
1773824274.791729,179,1169,i
1773824274.802192,35,1250,i
1773824274.816339,53,1146,i
1773824274.823967,176,1166,i
1773824274.83664,107,1252,i
1773824274.845927,29,1134,i
1773824274.8601038,108,1176,i
1773824274.868053,98,1251,i
1773824274.879786,19,1130,i
1773824274.889914,145,1185,i
1773824274.901783,104,1247,i
1773824274.91183,2,1127,i
1773824274.92322,157,1187,i
1773824274.934174,120,1244,i
1773824274.945611,9,1128,i
1773824274.955913,118,1191,i
1773824274.9672189,118,1236,i
1773824274.978113,16,1125,i
1773824274.989142,118,1204,i
1773824275.0004292,133,1218,i
1773824275.011034,71,1132,i
1773824275.022251,75,1209,i
1773824275.033186,94,1211,i
1773824275.043805,29,1131,i
1773824275.055555,45,1217,i
1773824275.066508,81,1198,i
1773824275.080079,52,1130,i
1773824275.0878348,98,1219,i
1773824275.099827,123,1198,i
1773824275.109968,103,1132,i
1773824275.1225522,20,1223,i
1773824275.132479,69,1178,i
1773824275.142966,124,1147,i
1773824275.1539772,21,1236,i
1773824275.1672409,23,1174,i
1773824275.1762,125,1152,i
1773824275.187086,54,1237,i
1773824275.1996071,95,1175,i
1773824275.208979,157,1156,i
1773824275.220237,27,1243,i
1773824275.2308311,62,1156,i
1773824275.241975,142,1153,i
1773824275.252856,51,1254,i
1773824275.264451,2,1143,i
1773824275.274961,153,1154,i
1773824275.287196,26,1243,i
1773824275.297291,28,1150,i
1773824275.308463,140,1170,i
1773824275.319293,64,1245,i
1773824275.329843,38,1139,i
1773824275.341043,145,1167,i
1773824275.3522701,41,1250,i
1773824275.363298,53,1144,i
1773824275.3746188,149,1177,i
1773824275.3850188,130,1246,i
1773824275.396044,20,1133,i
1773824275.40716,158,1185,i
1773824275.417961,163,1244,i
1773824275.428808,21,1136,i
1773824275.440352,149,1189,i
1773824275.4512541,112,1247,i
1773824275.463476,42,1127,i
1773824275.47567,143,1200,i
1773824275.483906,145,1240,i
1773824275.496601,14,1124,i
1773824275.50581,144,1201,i
1773824275.5170891,158,1224,i
1773824275.527851,51,1127,i
1773824275.538892,84,1206,i
1773824275.549799,80,1214,i
1773824275.561412,18,1125,i
1773824275.5718012,88,1220,i
1773824275.583523,70,1198,i
1773824275.593985,39,1130,i
1773824275.6056361,90,1222,i
1773824275.615871,97,1188,i
1773824275.627914,104,1134,i
1773824275.638017,35,1231,i
1773824275.651138,77,1180,i
1773824275.659817,136,1145,i
1773824275.6711428,21,1228,i
1773824275.681758,67,1176,i
1773824275.693527,96,1138,i
1773824275.704225,32,1234,i
1773824275.714915,71,1173,i
1773824275.726345,160,1150,i
1773824275.737192,16,1238,i
1773824275.748258,53,1161,i
1773824275.759557,147,1155,i
1773824275.7701828,49,1251,i
1773824275.782042,49,1146,i
1773824275.792435,190,1160,i
1773824275.803806,54,1243,i
1773824275.8137128,18,1141,i
1773824275.825539,87,1165,i
1773824275.835718,82,1247,i
1773824275.8471029,20,1139,i
1773824275.8583329,112,1162,i
1773824275.8697999,91,1257,i
1773824275.8797069,12,1141,i
1773824275.89229,135,1167,i
1773824275.9052029,130,1256,i
1773824275.9130821,31,1143,i
1773824275.9259882,158,1187,i
1773824275.935658,110,1242,i
1773824275.947486,18,1137,i
1773824275.957314,100,1186,i
