timestamp,ch1,ch2,label
1777450664.948163,2009,0,0
1777450664.9484181,1869,0,0
1777450664.9485419,1919,0,0
1777450664.948752,2031,0,0
1777450664.948782,2103,0,0
1777450664.948805,2033,0,0
1777450664.9488268,1883,0,0
1777450664.953048,1858,0,0
1777450664.965533,1951,0,0
1777450664.9656541,2042,0,0
1777450664.965717,2059,0,0
1777450664.965769,1982,0,0
1777450664.9659069,1835,0,0
1777450664.969065,1849,0,0
1777450664.971961,2048,0,0
1777450664.978414,2055,0,0
1777450664.978486,2023,0,0
1777450664.982143,1918,0,0
1777450664.9849741,1811,0,0
1777450664.987457,1902,0,0
1777450664.9900138,2046,0,0
1777450664.9928808,2066,0,0
1777450664.999508,1997,0,0
1777450665.0013819,1869,0,0
1777450665.0028641,1857,0,0
1777450665.006017,2000,0,0
1777450665.00802,2102,0,0
1777450665.0109382,2075,0,0
1777450665.013899,2008,0,0
1777450665.019989,1880,0,0
1777450665.020735,1957,0,0
1777450665.02409,2088,0,0
1777450665.0267038,2119,0,0
1777450665.0293398,2073,0,0
1777450665.031903,1920,0,0
1777450665.03489,1907,0,0
1777450665.037925,2023,0,0
1777450665.043414,2125,0,0
1777450665.044109,2112,0,0
1777450665.048076,2014,0,0
1777450665.050735,1900,0,0
1777450665.05339,1950,0,0
1777450665.055966,2096,0,0
1777450665.058985,2153,0,0
1777450665.062102,2085,0,0
1777450665.0673878,1949,0,0
1777450665.068806,1879,0,0
1777450665.073411,2035,0,0
1777450665.074333,2134,0,0
1777450665.077396,2132,0,0
1777450665.080034,2040,0,0
1777450665.0829241,1859,0,0
1777450665.089792,1938,0,0
1777450665.0918348,2084,0,0
1777450665.0936801,2148,0,0
1777450665.098099,2070,0,0
1777450665.098552,1953,0,0
1777450665.1012008,1883,0,0
1777450665.104091,1991,0,0
1777450665.106889,2125,0,0
1777450665.114422,2138,0,0
1777450665.117901,2020,0,0
1777450665.1188831,1874,0,0
1777450665.1208682,1922,0,0
1777450665.123242,2071,0,0
1777450665.1248908,2143,0,0
1777450665.127906,2114,0,0
1777450665.130899,1975,0,0
1777450665.137986,1901,0,0
1777450665.140159,1974,0,0
1777450665.1413178,2099,0,0
1777450665.144147,2134,0,0
1777450665.146013,2034,0,0
1777450665.148896,1875,0,0
1777450665.151934,1896,0,0
1777450665.154917,2034,0,0
1777450665.1619341,2151,0,0
1777450665.162216,2098,0,0
1777450665.164507,1963,0,0
1777450665.167639,1863,0,0
1777450665.1704378,1929,0,0
1777450665.1730611,2082,0,0
1777450665.17591,2122,0,0
1777450665.1844978,2057,0,0
1777450665.186823,1878,0,0
1777450665.187291,1898,0,0
1777450665.19051,2037,0,0
1777450665.19111,2118,0,0
1777450665.194077,2117,0,0
1777450665.196903,1999,0,0
1777450665.199919,1832,0,0
1777450665.208638,1917,0,0
1777450665.208809,2074,0,0
1777450665.211242,2107,0,0
1777450665.214549,2051,0,0
1777450665.215067,1973,0,0
1777450665.2179499,1932,0,0
1777450665.220942,2042,0,0
1777450665.224597,2181,0,0
1777450665.229414,2175,0,0
1777450665.231508,2073,0,0
1777450665.234304,1954,0,0
1777450665.237154,1990,0,0
1777450665.238989,2104,0,0
1777450665.241944,2176,0,0
1777450665.244925,2149,0,0
1777450665.24796,2057,0,0
1777450665.253001,1961,0,0
1777450665.2549791,1993,0,0
1777450665.2575371,2156,0,0
1777450665.2621078,2192,0,0
1777450665.263357,2127,0,0
1777450665.265996,1932,0,0
1777450665.268922,1855,0,0
1777450665.274133,2067,0,0
1777450665.276176,2146,0,0
1777450665.278719,2117,0,0
1777450665.281712,1974,0,0
1777450665.284576,1869,0,0
1777450665.287178,1957,0,0
1777450665.290037,2097,0,0
1777450665.296768,2128,0,0
1777450665.2975621,2064,0,0
1777450665.300172,1874,0,0
1777450665.302998,1878,0,0
1777450665.305404,2022,0,0
1777450665.30804,2119,0,0
1777450665.311043,2078,0,0
1777450665.3171892,1977,0,0
1777450665.317785,1867,0,0
1777450665.320684,1949,0,0
1777450665.323311,2068,0,0
1777450665.3260539,2139,0,0
1777450665.329029,2045,0,0
1777450665.33201,1911,0,0
1777450665.337743,1860,0,0
1777450665.3386502,1995,0,0
1777450665.341238,2076,0,0
1777450665.3446631,2108,0,0
1777450665.347617,1997,0,0
1777450665.350213,1885,0,0
1777450665.353017,1947,0,0
1777450665.3587708,2099,0,0
1777450665.3595352,2184,0,0
1777450665.3623328,2083,0,0
1777450665.36603,1919,0,0
1777450665.368959,1868,0,0
1777450665.371503,2018,0,0
1777450665.374062,2136,0,0
1777450665.380322,2127,0,0
1777450665.380388,2020,0,0
1777450665.38412,1871,0,0
1777450665.387776,1922,0,0
1777450665.389452,2101,0,0
1777450665.392045,2170,0,0
1777450665.395047,2094,0,0
1777450665.400961,1946,0,0
1777450665.402302,1861,0,0
1777450665.405196,1960,0,0
1777450665.408025,2111,0,0
1777450665.41074,2150,0,0
1777450665.413387,2044,0,0
1777450665.416043,1873,0,0
1777450665.419023,1885,0,0
1777450665.426162,2079,0,0
1777450665.42633,2128,0,0
1777450665.428231,2097,0,0
1777450665.431861,1961,0,0
1777450665.434572,1866,0,0
1777450665.43712,1940,0,0
1777450665.4400399,2090,0,0
1777450665.447119,2166,0,0
1777450665.448488,2039,0,0
1777450665.450482,1896,0,0
1777450665.4540522,1833,0,0
1777450665.4558668,2033,0,0
1777450665.458224,2138,0,0
1777450665.4610088,2114,0,0
1777450665.464015,1966,0,0
1777450665.469283,1858,0,0
1777450665.470633,1940,0,0
1777450665.473332,2139,0,0
1777450665.4772952,2163,0,0
1777450665.479031,2050,0,0
1777450665.482026,1917,0,0
1777450665.485058,1867,0,0
1777450665.49176,2039,0,0
1777450665.491997,2137,0,0
1777450665.494874,2107,0,0
1777450665.497924,1993,0,0
1777450665.500066,1843,0,0
1777450665.503115,1873,0,0
1777450665.506094,2104,0,0
1777450665.509084,2146,0,0
1777450665.514324,2082,0,0
1777450665.516839,1938,0,0
1777450665.519501,1859,0,0
1777450665.521584,1991,0,0
1777450665.5248141,2146,0,0
1777450665.527468,2154,0,0
1777450665.530132,2054,0,0
1777450665.533188,1875,0,0
1777450665.537965,1873,0,0
1777450665.540145,2083,0,0
1777450665.5420108,2167,0,0
1777450665.546572,2100,0,0
1777450665.548448,1936,0,0
1777450665.551008,1822,0,0
1777450665.554044,1931,0,0
1777450665.557216,2097,0,0
1777450665.5616121,2165,0,0
1777450665.5633001,2043,0,0
1777450665.5661728,1854,0,0
1777450665.570422,1857,0,0
1777450665.5720131,2035,0,0
1777450665.575011,2168,0,0
1777450665.5779998,2130,0,0
1777450665.5827022,1971,0,0
1777450665.5845,1839,0,0
1777450665.588675,1910,0,0
1777450665.59156,2096,0,0
1777450665.593014,2177,0,0
1777450665.596009,2065,0,0
1777450665.599029,1876,0,0
1777450665.603323,1840,0,0
1777450665.605473,2044,0,0
1777450665.608414,2154,0,0
1777450665.6126301,2131,0,0
1777450665.6140459,1994,0,0
1777450665.6170099,1829,0,0
1777450665.620045,1907,0,0
1777450665.624248,2092,0,0
1777450665.626132,2162,0,0
1777450665.629281,2087,0,0
1777450665.633031,1898,0,0
1777450665.635592,1808,0,0
1777450665.638156,2000,0,0
1777450665.641035,2150,0,0
1777450665.644779,2134,0,0
1777450665.648005,1989,0,0
1777450665.650387,1805,0,0
1777450665.653161,1883,0,0
1777450665.656055,2091,0,0
1777450665.659009,2115,0,0
1777450665.6647658,2080,0,0
1777450665.665138,1900,0,0
1777450665.668333,1823,0,0
1777450665.6718369,1943,0,0
1777450665.67446,2123,0,0
1777450665.677044,2149,0,0
1777450665.6800451,2035,0,0
1777450665.685311,1845,0,0
1777450665.6874292,1837,0,0
1777450665.689981,2071,0,0
1777450665.692781,2128,0,0
1777450665.6953669,2120,0,0
1777450665.6980422,1942,0,0
1777450665.7010372,1819,0,0
1777450665.705025,1926,0,0
1777450665.707158,2103,0,0
1777450665.711013,2166,0,0
1777450665.713749,2077,0,0
1777450665.716307,1861,0,0
1777450665.7190158,1831,0,0
1777450665.722024,2048,0,0
1777450665.7258,2171,0,0
1777450665.728816,2139,0,0
1777450665.732552,1964,0,0
1777450665.734178,1835,0,0
1777450665.737043,1937,0,0
1777450665.7400472,2133,0,0
1777450665.745801,2175,0,0
1777450665.746707,2089,0,0
1777450665.749554,1907,0,0
1777450665.753195,1839,0,0
1777450665.755038,2031,0,0
1777450665.758018,2166,0,0
1777450665.761011,2147,0,0
1777450665.7674491,1989,0,0
1777450665.767835,1835,0,0
1777450665.770196,1885,0,0
1777450665.773912,2107,0,0
1777450665.7765,2179,0,0
1777450665.779056,2081,0,0
1777450665.782023,1890,0,0
1777450665.7867599,1835,0,0
1777450665.788657,2006,0,0
1777450665.792615,2148,0,0
1777450665.794049,2150,0,0
1777450665.7970402,2014,0,0
1777450665.8000078,1867,0,0
1777450665.803066,1890,0,0
1777450665.807112,2126,0,0
1777450665.8090858,2194,0,0
1777450665.814176,2111,0,0
1777450665.815912,1928,0,0
1777450665.818476,1828,0,0
1777450665.8210392,2007,0,0
1777450665.824011,2160,0,0
1777450665.827729,2176,0,0
1777450665.8309052,2036,0,0
1777450665.833348,1859,0,0
1777450665.836127,1890,0,0
1777450665.839058,2072,0,0
1777450665.842017,2208,0,0
1777450665.8503082,2120,0,0
1777450665.8504682,1954,0,0
1777450665.852106,1837,0,0
1777450665.854769,1952,0,0
1777450665.857711,2161,0,0
1777450665.86027,2189,0,0
1777450665.863049,2082,0,0
1777450665.869036,1893,0,0
1777450665.869434,1856,0,0
1777450665.8725991,2070,0,0
1777450665.8763762,2181,0,0
1777450665.87828,2145,0,0
1777450665.8810282,2015,0,0
1777450665.884021,1845,0,0
1777450665.890273,1934,0,0
1777450665.89061,2120,0,0
1777450665.893595,2188,0,0
1777450665.896068,2118,0,0
1777450665.899221,1898,0,0
1777450665.9020538,1822,0,0
1777450665.90502,2033,0,0
1777450665.910738,2197,0,0
1777450665.911391,2172,0,0
1777450665.91409,2014,0,0
1777450665.917881,1852,0,0
1777450665.9206772,1942,0,0
1777450665.923229,2114,0,0
1777450665.9260118,2199,0,0
1777450665.930675,2146,0,0
1777450665.933266,1942,0,0
1777450665.936401,1836,0,0
1777450665.9389062,2018,0,0
1777450665.941622,2161,0,0
1777450665.94418,2186,0,0
1777450665.947031,2022,0,0
1777450665.952446,1865,0,0
1777450665.954039,1867,0,0
1777450665.957112,2118,0,0
1777450665.959451,2170,0,0
1777450665.962049,2119,0,0
1777450665.965044,1935,0,0
1777450665.968052,1850,0,0
1777450665.972592,1968,0,0
1777450665.974886,2148,0,0
1777450665.977754,2184,0,0
1777450665.980066,2051,0,0
1777450665.983037,1808,0,0
1777450665.986059,1834,0,0
1777450665.989055,2078,0,0
1777450665.9928699,2177,0,0
1777450665.9962702,2153,0,0
1777450665.999251,1943,0,0
1777450666.0021272,1812,0,0
1777450666.004686,1945,0,0
1777450666.007052,2132,0,0
1777450666.01003,2207,0,0
1777450666.0139499,2085,0,0
1777450666.017633,1890,0,0
1777450666.0194402,1877,0,0
1777450666.022321,2077,0,0
1777450666.025035,2286,0,0
1777450666.028007,2132,0,0
1777450666.033889,1980,0,0
1777450666.034215,1843,0,0
1777450666.037833,1951,0,0
1777450666.041184,2135,0,0
1777450666.043018,2188,0,0
1777450666.046035,2118,0,0
1777450666.049011,1936,0,0
1777450666.054207,1880,0,0
1777450666.055849,2056,0,0
1777450666.058645,2218,0,0
1777450666.0613198,2186,0,0
1777450666.0641642,2060,0,0
1777450666.0671291,1882,0,0
1777450666.070137,1901,0,0
1777450666.073972,2130,0,0
1777450666.076344,2214,0,0
1777450666.079156,2125,0,0
1777450666.0830688,1928,0,0
1777450666.085802,1825,0,0
1777450666.088376,2030,0,0
1777450666.0911381,2167,0,0
1777450666.095815,2187,0,0
1777450666.0978482,2025,0,0
1777450666.100857,1802,0,0
1777450666.10337,1894,0,0
1777450666.106213,2112,0,0
1777450666.1091251,2215,0,0
1777450666.112154,2155,0,0
1777450666.116622,1993,0,0
1777450666.118314,1856,0,0
1777450666.122284,1938,0,0
1777450666.125033,2088,0,0
1777450666.127578,2212,0,0
1777450666.130165,2094,0,0
1777450666.136694,1880,0,0
1777450666.1367922,1884,0,0
1777450666.140414,2117,0,0
1777450666.14308,2190,0,0
1777450666.14604,2094,0,0
1777450666.148612,2010,0,0
1777450666.151168,1891,0,0
1777450666.157263,1972,0,0
1777450666.1579,2130,0,0
1777450666.1603048,2158,0,0
1777450666.164444,2116,0,0
1777450666.1661508,1837,0,0
1777450666.16913,1913,0,0
1777450666.1721442,2042,0,0
1777450666.178228,2253,0,0
1777450666.1792378,2266,0,0
1777450666.182156,2019,0,0
1777450666.185102,1838,0,0
1777450666.188224,1947,0,0
1777450666.1907709,2089,0,0
1777450666.19332,2198,0,0
1777450666.1992,2164,0,0
1777450666.199553,1960,0,0
1777450666.203098,1872,0,0
1777450666.205481,2074,0,0
1777450666.20852,2174,0,0
1777450666.211164,2216,0,0
1777450666.214158,2066,0,0
1777450666.21964,1892,0,0
1777450666.220255,1914,0,0
1777450666.2236109,2146,0,0
1777450666.227322,2188,0,0
1777450666.229166,2113,0,0
1777450666.232127,1944,0,0
1777450666.23516,1833,0,0
1777450666.241278,2027,0,0
1777450666.2413929,2202,0,0
1777450666.2451048,2206,0,0
1777450666.247531,2022,0,0
1777450666.250614,1887,0,0
1777450666.253186,1930,0,0
1777450666.256164,2139,0,0
1777450666.2626922,2246,0,0
1777450666.263398,2147,0,0
1777450666.2660701,1999,0,0
1777450666.2720058,1787,0,0
1777450666.272186,2006,0,0
1777450666.2747571,2256,0,0
1777450666.277518,2139,0,0
1777450666.280121,2047,0,0
1777450666.2843251,1841,0,0
1777450666.286305,1818,0,0
1777450666.2892091,2161,0,0
1777450666.2922409,2217,0,0
1777450666.2951522,2139,0,0
1777450666.2981272,1870,0,0
1777450666.301124,1820,0,0
1777450666.30591,2042,0,0
1777450666.3078349,2189,0,0
1777450666.311915,2226,0,0
1777450666.313411,2131,0,0
1777450666.316154,1890,0,0
1777450666.3191261,1890,0,0
1777450666.322158,2022,0,0
1777450666.325721,2134,0,0
1777450666.329206,2063,0,0
1777450666.3321202,1975,0,0
1777450666.335375,1845,0,0
1777450666.337149,1968,0,0
1777450666.340149,2181,0,0
1777450666.346526,2105,0,0
1777450666.346897,2041,0,0
1777450666.349838,1978,0,0
1777450666.352455,1862,0,0
1777450666.3556921,2021,0,0
1777450666.358212,2146,0,0
1777450666.361176,2126,0,0
1777450666.367424,1992,0,0
1777450666.367512,1826,0,0
1777450666.370529,1880,0,0
1777450666.374627,2199,0,0
1777450666.3763928,2196,0,0
1777450666.379169,2041,0,0
1777450666.382147,1880,0,0
1777450666.3879411,1832,0,0
1777450666.388351,2020,0,0
1777450666.391166,2126,0,0
1777450666.395204,2140,0,0
1777450666.3971689,2067,0,0
1777450666.40014,1908,0,0
1777450666.403143,1910,0,0
1777450666.408133,2088,0,0
1777450666.4100978,2177,0,0
1777450666.414436,2058,0,0
1777450666.416115,1955,0,0
1777450666.418143,1886,0,0
1777450666.421174,1946,0,0
1777450666.424138,2142,0,0
1777450666.42925,2183,0,0
1777450666.430995,2060,0,0
1777450666.435168,1865,0,0
1777450666.436754,1851,0,0
1777450666.439627,2014,0,0
1777450666.442175,2133,0,0
1777450666.445166,2094,0,0
1777450666.4491332,1975,0,0
1777450666.4512901,1827,0,0
1777450666.4554722,1927,0,0
1777450666.4572759,2120,0,0
1777450666.460172,2173,0,0
1777450666.463137,2094,0,0
1777450666.4661388,1911,0,0
1777450666.4706151,1845,0,0
1777450666.4724429,2050,0,0
1777450666.4752839,2157,0,0
1777450666.478202,2160,0,0
1777450666.4811368,1999,0,0
1777450666.484201,1822,0,0
1777450666.4871418,1907,0,0
1777450666.492024,2134,0,0
1777450666.4937768,2199,0,0
1777450666.497827,2128,0,0
1777450666.499438,1904,0,0
1777450666.502131,1843,0,0
1777450666.505134,2086,0,0
1777450666.50813,2259,0,0
1777450666.5134552,2194,0,0
1777450666.514935,2034,0,0
1777450666.518904,1872,0,0
1777450666.520701,1949,0,0
1777450666.523458,2119,0,0
1777450666.526137,2148,0,0
1777450666.5291278,2117,0,0
1777450666.5344799,1947,0,0
1777450666.5358028,1855,0,0
1777450666.5398479,2005,0,0
1777450666.541517,2153,0,0
1777450666.54417,2184,0,0
1777450666.54713,2087,0,0
1777450666.550132,1849,0,0
1777450666.554832,1883,0,0
1777450666.556226,2098,0,0
1777450666.5592132,2167,0,0
1777450666.562221,2117,0,0
1777450666.565171,1936,0,0
1777450666.5681431,1810,0,0
1777450666.608545,1954,0,0
1777450666.6085918,2139,0,0
1777450666.608617,2168,0,0
1777450666.6086478,2062,0,0
1777450666.60867,1883,0,0
1777450666.60869,1871,0,0
1777450666.6087098,2098,0,0
1777450666.60873,2183,0,0
1777450666.60875,2156,0,0
1777450666.6087701,2024,0,0
1777450666.608792,1849,0,0
1777450666.608812,1938,0,0
1777450666.608992,2147,0,0
1777450666.610292,2144,0,0
1777450666.618114,2079,0,0
1777450666.618149,1888,0,0
1777450666.622886,1818,0,0
1777450666.62331,2028,0,0
1777450666.625917,2180,0,0
1777450666.629998,2157,0,0
1777450666.631758,1976,0,0
1777450666.634319,1829,0,0
1777450666.637148,1908,0,0
1777450666.643143,2120,0,0
1777450666.643269,2178,0,0
1777450666.64758,2068,0,0
1777450666.649368,1902,0,0
1777450666.652621,1816,0,0
1777450666.655175,1964,0,0
1777450666.65815,2062,0,0
1777450666.664046,2165,0,0
1777450666.6646771,2015,0,0
1777450666.668015,1846,0,0
1777450666.67171,1926,0,0
1777450666.673449,2046,0,0
1777450666.676142,2148,0,0
1777450666.679137,2155,0,0
1777450666.685506,1901,0,0
1777450666.686218,1804,0,0
1777450666.689026,1990,0,0
1777450666.691488,2098,0,0
1777450666.694866,2125,0,0
1777450666.697418,2020,0,0
1777450666.700144,1838,0,0
1777450666.7063198,1850,0,0
1777450666.7066948,2066,0,0
1777450666.70977,2222,0,0
1777450666.712406,2151,0,0
1777450666.715699,1956,0,0
1777450666.7182562,1800,0,0
1777450666.7211661,1935,0,0
1777450666.727295,2132,0,0
1777450666.727915,2174,0,0
1777450666.730693,2084,0,0
1777450666.734897,1866,0,0
1777450666.7366788,1839,0,0
1777450666.739234,2040,0,0
1777450666.742144,2196,0,0
1777450666.748634,2165,0,0
1777450666.749311,1998,0,0
1777450666.752067,1864,0,0
1777450666.7564101,1934,0,0
1777450666.758104,2142,0,0
1777450666.7606559,2212,0,0
1777450666.763207,2083,0,0
1777450666.768714,1891,0,0
1777450666.770232,1811,0,0
1777450666.77266,2008,0,0
1777450666.776636,2204,0,0
1777450666.778261,2172,0,0
1777450666.7811751,2047,0,0
1777450666.7841332,1837,0,0
1777450666.7903302,1917,0,0
1777450666.790784,2141,0,0
1777450666.7938051,2202,0,0
1777450666.796683,2128,0,0
1777450666.799983,1965,0,0
1777450666.802305,1847,0,0
1777450666.8051698,2010,0,0
1777450666.8081422,2139,0,0
1777450666.8164768,2150,0,0
1777450666.8171918,2053,0,0
1777450666.817989,1867,0,0
1777450666.820747,1889,0,0
1777450666.823457,2100,0,0
1777450666.826144,2208,0,0
1777450666.829141,2101,0,0
1777450666.834784,1946,0,0
1777450666.835831,1857,0,0
1777450666.838681,1990,0,0
1777450666.842835,2153,0,0
1777450666.844466,2213,0,0
1777450666.847281,2103,0,0
1777450666.850228,1853,0,0
1777450666.853178,1907,0,0
1777450666.858081,2101,0,0
1777450666.860107,2187,0,0
1777450666.866652,2146,0,0
1777450666.8686929,1959,0,0
1777450666.868729,1819,0,0
1777450666.8713999,2052,0,0
1777450666.8741498,2099,0,0
1777450666.877177,2149,0,0
1777450666.8831658,2103,0,0
1777450666.884602,1908,0,0
1777450666.887833,1897,0,0
1777450666.8896608,2021,0,0
1777450666.893313,2111,0,0
1777450666.8951628,2301,0,0
1777450666.8981462,2093,0,0
1777450666.901165,1672,0,0
1777450666.908088,1889,0,0
1777450666.908301,2144,0,0
1777450666.910524,2194,0,0
1777450666.91467,2085,0,0
1777450666.916482,1893,0,0
1777450666.919327,1819,0,0
1777450666.922195,2002,0,0
1777450666.931016,2154,0,0
1777450666.93291,2117,0,0
1777450666.9361548,1986,0,0
1777450666.93812,1875,0,0
1777450666.938745,1902,0,0
1777450666.940497,2058,0,0
1777450666.943157,2141,0,0
1777450666.9461591,2074,0,0
1777450666.952852,1907,0,0
1777450666.953645,1847,0,0
1777450666.9554281,2005,0,0
1777450666.959929,2147,0,0
1777450666.961813,2152,0,0
1777450666.964649,2039,0,0
1777450666.9672918,1822,0,0
1777450666.9701529,1860,0,0
1777450666.976695,2054,0,0
1777450666.978593,2203,0,0
1777450666.980156,2114,0,0
1777450666.9835362,1966,0,0
1777450666.985569,1839,0,0
1777450666.9882429,1963,0,0
1777450666.991159,2133,0,0
1777450666.9941561,2184,0,0
1777450667.000043,2089,0,0
1777450667.001858,1893,0,0
1777450667.0045462,1878,0,0
1777450667.006845,2096,0,0
1777450667.010538,2180,0,0
1777450667.012149,2141,0,0
1777450667.01515,1962,0,0
1777450667.019132,1804,0,0
1777450667.024061,1990,0,0
1777450667.027681,2154,0,0
1777450667.029,2160,0,0
1777450667.032228,2079,0,0
1777450667.034157,1923,0,0
1777450667.036803,1869,0,0
1777450667.039478,2084,0,0
1777450667.042162,2214,0,0
1777450667.047164,2142,0,0
1777450667.0492108,1995,0,0
1777450667.0521579,1827,0,0
1777450667.055377,1956,0,0
1777450667.057162,2137,0,0
1777450667.060142,2183,0,0
1777450667.0632908,2110,0,0
1777450667.069925,1915,0,0
1777450667.070365,1845,0,0
1777450667.072284,1994,0,0
1777450667.075658,2184,0,0
1777450667.078679,2173,0,0
1777450667.081664,2023,0,0
1777450667.084286,1877,0,0
1777450667.0872672,1954,0,0
1777450667.092934,2141,0,0
1777450667.093599,2234,0,0
1777450667.096603,2172,0,0
1777450667.101176,1960,0,0
1777450667.103116,1869,0,0
1777450667.105676,1999,0,0
1777450667.108275,2203,0,0
1777450667.111292,2232,0,0
1777450667.1154299,2090,0,0
1777450667.1174772,1910,0,0
1777450667.120845,1937,0,0
1777450667.12392,2155,0,0
1777450667.126591,2264,0,0
1777450667.129289,2165,0,0
1777450667.132261,2010,0,0
1777450667.138175,1887,0,0
1777450667.1395268,1983,0,0
1777450667.142145,2134,0,0
1777450667.145067,2196,0,0
1777450667.148417,2112,0,0
1777450667.1508741,1919,0,0
1777450667.1534662,1914,0,0
1777450667.156262,2127,0,0
1777450667.1628091,2215,0,0
1777450667.164684,2193,0,0
1777450667.166413,2019,0,0
1777450667.169431,1896,0,0
1777450667.171308,2015,0,0
1777450667.1742568,2186,0,0
1777450667.177247,2220,0,0
1777450667.180248,2104,0,0
1777450667.18628,1929,0,0
1777450667.187038,1909,0,0
1777450667.1897018,2078,0,0
1777450667.194676,2205,0,0
1777450667.1964061,2195,0,0
1777450667.198269,2033,0,0
1777450667.201252,1871,0,0
1777450667.204256,1928,0,0
1777450667.20997,2154,0,0
1777450667.210399,2200,0,0
1777450667.2139149,2136,0,0
1777450667.2170298,1968,0,0
1777450667.21927,1864,0,0
1777450667.222288,2066,0,0
1777450667.225261,2211,0,0
1777450667.228292,2199,0,0
1777450667.234869,2053,0,0
1777450667.234943,1867,0,0
1777450667.238463,1939,0,0
1777450667.240389,2129,0,0
1777450667.243573,2202,0,0
1777450667.246321,2137,0,0
1777450667.249268,1942,0,0
1777450667.25227,1863,0,0
1777450667.259626,2030,0,0
1777450667.261792,2181,0,0
1777450667.262028,2185,0,0
1777450667.265177,2060,0,0
1777450667.2692869,1865,0,0
1777450667.271383,1904,0,0
1777450667.273259,2106,0,0
1777450667.279903,2189,0,0
1777450667.281261,2124,0,0
1777450667.286245,1973,0,0
1777450667.28833,1851,0,0
1777450667.288617,1960,0,0
1777450667.291779,2144,0,0
1777450667.2944572,2213,0,0
1777450667.297258,2065,0,0
1777450667.303689,1873,0,0
1777450667.304506,1885,0,0
1777450667.308084,2066,0,0
1777450667.311056,2186,0,0
1777450667.314912,2144,0,0
1777450667.31527,1981,0,0
1777450667.318301,1857,0,0
1777450667.321267,1939,0,0
1777450667.3287091,2123,0,0
1777450667.3317308,2180,0,0
1777450667.3322,2083,0,0
1777450667.335126,1921,0,0
1777450667.3391218,1853,0,0
1777450667.339262,2043,0,0
1777450667.342269,2174,0,0
1777450667.345995,2150,0,0
1777450667.3528278,2002,0,0
1777450667.354374,1850,0,0
1777450667.355639,1940,0,0
1777450667.358021,2131,0,0
1777450667.361066,2202,0,0
1777450667.3633542,2099,0,0
1777450667.3662982,1922,0,0
1777450667.369355,1852,0,0
1777450667.37394,2051,0,0
1777450667.376849,2178,0,0
1777450667.3798242,2181,0,0
1777450667.381723,2034,0,0
1777450667.384432,1873,0,0
1777450667.387251,1901,0,0
1777450667.3902872,2085,0,0
1777450667.3959758,2203,0,0
1777450667.396738,2119,0,0
1777450667.399688,1945,0,0
1777450667.402518,1848,0,0
1777450667.405802,1973,0,0
1777450667.408363,2121,0,0
1777450667.411262,2183,0,0
1777450667.414259,2057,0,0
1777450667.419182,1847,0,0
1777450667.421095,1897,0,0
1777450667.423736,2079,0,0
1777450667.4271529,2178,0,0
1777450667.429266,2115,0,0
1777450667.43226,1933,0,0
1777450667.4352572,1843,0,0
1777450667.4410298,1964,0,0
1777450667.44174,2147,0,0
1777450667.445493,2160,0,0
1777450667.4482381,2065,0,0
1777450667.4503129,1873,0,0
1777450667.4532511,1848,0,0
1777450667.456286,2061,0,0
1777450667.4592881,2190,0,0
1777450667.4641879,2154,0,0
1777450667.466367,1943,0,0
1777450667.468277,1801,0,0
1777450667.472346,1942,0,0
1777450667.474265,2111,0,0
1777450667.477296,2212,0,0
1777450667.480285,2073,0,0
1777450667.4869912,1890,0,0
1777450667.488031,1865,0,0
1777450667.489918,2075,0,0
1777450667.494238,2170,0,0
1777450667.496095,2161,0,0
1777450667.498656,2033,0,0
1777450667.50129,1836,0,0
1777450667.5042958,1953,0,0
1777450667.508132,2134,0,0
1777450667.5112052,2180,0,0
1777450667.514242,2082,0,0
1777450667.5163388,1917,0,0
1777450667.5192478,1838,0,0
1777450667.5222678,2037,0,0
1777450667.5258722,2154,0,0
1777450667.529481,2157,0,0
1777450667.531627,2068,0,0
1777450667.534786,1855,0,0
1777450667.537876,1926,0,0
1777450667.5403378,2112,0,0
1777450667.543287,2178,0,0
1777450667.546271,2134,0,0
1777450667.553216,1970,0,0
1777450667.5538838,1846,0,0
1777450667.556322,1969,0,0
1777450667.5585449,2124,0,0
1777450667.561557,2182,0,0
1777450667.56428,2062,0,0
1777450667.567262,1863,0,0
1777450667.570258,1877,0,0
1777450667.5744178,2104,0,0
1777450667.576479,2189,0,0
1777450667.579371,2139,0,0
1777450667.5823061,1995,0,0
1777450667.585255,1844,0,0
1777450667.588254,1981,0,0
1777450667.591254,2134,0,0
1777450667.595113,2152,0,0
1777450667.598603,2050,0,0
1777450667.6013162,1857,0,0
1777450667.6033,1894,0,0
1777450667.6062489,1990,0,0
1777450667.609239,2142,0,0
1777450667.6122408,2131,0,0
1777450667.617239,1995,0,0
1777450667.621585,1807,0,0
1777450667.623817,1906,0,0
1777450667.6257632,2155,0,0
1777450667.627274,2170,0,0
1777450667.630244,2065,0,0
1777450667.633256,1915,0,0
1777450667.6400561,1851,0,0
1777450667.640495,2058,0,0
1777450667.643189,2184,0,0
1777450667.646107,2184,0,0
1777450667.6496692,2002,0,0
1777450667.651237,1861,0,0
1777450667.654232,1943,0,0
1777450667.657252,2127,0,0
1777450667.66355,2191,0,0
1777450667.6637409,2136,0,0
1777450667.6668868,1926,0,0
1777450667.669864,1843,0,0
1777450667.672523,2040,0,0
1777450667.675244,2151,0,0
1777450667.678245,2193,0,0
1777450667.683228,2055,0,0
1777450667.685987,1923,0,0
1777450667.687828,1850,0,0
1777450667.691943,2123,0,0
1777450667.693805,2203,0,0
1777450667.6963909,2146,0,0
1777450667.6992698,1947,0,0
1777450667.705226,1830,0,0
1777450667.7056,1998,0,0
1777450667.7093859,2174,0,0
1777450667.712121,2200,0,0
1777450667.715531,2103,0,0
1777450667.7172549,1873,0,0
1777450667.7202618,1908,0,0
1777450667.723286,2110,0,0
1777450667.726924,2219,0,0
1777450667.730195,2145,0,0
1777450667.73323,1960,0,0
1777450667.736366,1800,0,0
1777450667.738942,2038,0,0
1777450667.741272,2213,0,0
1777450667.747749,2247,0,0
1777450667.7478201,2162,0,0
1777450667.752075,1960,0,0
1777450667.754067,1915,0,0
1777450667.757303,2127,0,0
1777450667.759855,2258,0,0
1777450667.7624052,2159,0,0
1777450667.765279,1964,0,0
1777450667.7692869,1806,0,0
1777450667.7723038,1933,0,0
1777450667.775278,2112,0,0
1777450667.777337,2184,0,0
1777450667.7802932,2083,0,0
1777450667.783264,1922,0,0
1777450667.786892,1886,0,0
1777450667.790428,2018,0,0
1777450667.792552,2191,0,0
1777450667.795448,2176,0,0
1777450667.798311,2007,0,0
1777450667.801255,1799,0,0
1777450667.805084,1912,0,0
1777450667.807691,2098,0,0
1777450667.810872,2194,0,0
1777450667.8144739,2106,0,0
1777450667.8170528,1951,0,0
1777450667.820367,1849,0,0
1777450667.8229141,2042,0,0
1777450667.8254652,2177,0,0
1777450667.8312588,2185,0,0
1777450667.831599,2045,0,0
1777450667.83501,1872,0,0
1777450667.838918,1891,0,0
1777450667.840694,2107,0,0
1777450667.8432481,2184,0,0
1777450667.846275,2094,0,0
1777450667.852431,1937,0,0
1777450667.8542411,1853,0,0
1777450667.856257,1985,0,0
1777450667.8583438,2152,0,0
1777450667.861501,2183,0,0
1777450667.8642619,2044,0,0
1777450667.867255,1828,0,0
1777450667.872443,1894,0,0
1777450667.8744562,2080,0,0
1777450667.876298,2169,0,0
1777450667.880193,2109,0,0
1777450667.882367,1988,0,0
1777450667.885372,1809,0,0
1777450667.8883939,1949,0,0
1777450667.892776,2139,0,0
1777450667.8961222,2264,0,0
1777450667.89764,1984,0,0
1777450667.900525,1873,0,0
1777450667.903532,1919,0,0
1777450667.906378,2063,0,0
1777450667.909395,2117,0,0
1777450667.913173,2036,0,0
1777450667.9164622,2003,0,0
1777450667.918972,1837,0,0
1777450667.921845,2076,0,0
1777450667.924393,2149,0,0
1777450667.9273758,2220,0,0
1777450667.933589,2097,0,0
1777450667.93455,1912,0,0
1777450667.9375439,1835,0,0
1777450667.9398232,2069,0,0
1777450667.943022,2174,0,0
1777450667.945597,2142,0,0
1777450667.9484081,2008,0,0
1777450667.9548612,1838,0,0
1777450667.955201,1888,0,0
1777450667.9577768,2094,0,0
1777450667.961941,2209,0,0
1777450667.9635231,2189,0,0
1777450667.966377,1942,0,0
1777450667.969378,1889,0,0
1777450667.974399,2048,0,0
1777450667.976224,2174,0,0
1777450667.9801831,2210,0,0
1777450667.982024,1989,0,0
1777450667.98479,1948,0,0
1777450667.98753,1907,0,0
1777450667.990381,2143,0,0
1777450667.9945412,2208,0,0
1777450667.9965901,2114,0,0
1777450668.002099,1948,0,0
1777450668.0024269,1892,0,0
1777450668.005407,2117,0,0
1777450668.0083761,2262,0,0
1777450668.011369,2220,0,0
1777450668.0151591,2095,0,0
1777450668.018327,1902,0,0
1777450668.0213041,2000,0,0
1777450668.024353,2137,0,0
1777450668.026368,2230,0,0
1777450668.029366,2149,0,0
1777450668.0323882,2063,0,0
1777450668.036088,1917,0,0
1777450668.039732,2051,0,0
1777450668.041785,2183,0,0
1777450668.0451179,2220,0,0
1777450668.0476649,2096,0,0
1777450668.0503669,1933,0,0
1777450668.0561438,1869,0,0
1777450668.056489,2087,0,0
1777450668.0595598,2201,0,0
1777450668.063561,2188,0,0
1777450668.065365,1966,0,0
1777450668.068365,1877,0,0
1777450668.071372,2035,0,0
1777450668.076998,2209,0,0
1777450668.0781848,2187,0,0
1777450668.081197,2064,0,0
1777450668.083893,1905,0,0
1777450668.086443,1974,0,0
1777450668.0893939,2049,0,0
1777450668.0923688,2194,0,0
1777450668.096194,2139,0,0
1777450668.099508,1983,0,0
1777450668.102131,1952,0,0
1777450668.105346,1984,0,0
1777450668.1078908,2113,0,0
1777450668.110434,2127,0,0
1777450668.1133912,2070,0,0
1777450668.1163788,2041,0,0
1777450668.120119,1886,0,0
1777450668.122367,1993,0,0
1777450668.1256378,2136,0,0
1777450668.1283798,2152,0,0
1777450668.13141,2049,0,0
1777450668.1368692,1883,0,0
1777450668.1380649,1879,0,0
1777450668.140797,2040,0,0
1777450668.144833,2136,0,0
1777450668.146581,2101,0,0
1777450668.1493912,1980,0,0
1777450668.152384,1815,0,0
1777450668.157164,1969,0,0
1777450668.159392,2136,0,0
1777450668.16158,2180,0,0
1777450668.1651258,1958,0,0
1777450668.167891,1846,0,0
1777450668.170454,1974,0,0
1777450668.173409,2028,0,0
1777450668.177985,2107,0,0
1777450668.179892,2130,0,0
1777450668.1839428,1958,0,0
1777450668.185621,1874,0,0
1777450668.188417,1956,0,0
1777450668.191384,2118,0,0
1777450668.194409,2112,0,0
1777450668.198408,2024,0,0
1777450668.2003798,1896,0,0
1777450668.204349,1862,0,0
1777450668.207446,2012,0,0
1777450668.2100081,2169,0,0
1777450668.212565,2160,0,0
1777450668.215389,1963,0,0
1777450668.218949,1832,0,0
1777450668.222815,1881,0,0
1777450668.225259,2092,0,0
1777450668.228244,2181,0,0
1777450668.230807,2082,0,0
1777450668.233369,1880,0,0
1777450668.2394261,1831,0,0
1777450668.240074,2030,0,0
1777450668.242851,2158,0,0
1777450668.2470348,2145,0,0
1777450668.248645,2035,0,0
1777450668.2513978,1850,0,0
1777450668.254409,1906,0,0
1777450668.260055,2097,0,0
1777450668.2619689,2172,0,0
1777450668.263733,2137,0,0
1777450668.267648,1934,0,0
1777450668.2693849,1832,0,0
1777450668.272398,1996,0,0
1777450668.275866,2140,0,0
1777450668.280708,2144,0,0
1777450668.282115,2009,0,0
1777450668.2860951,1867,0,0
1777450668.287822,1881,0,0
1777450668.2905521,2103,0,0
1777450668.293375,2184,0,0
1777450668.3009741,2158,0,0
1777450668.301389,1939,0,0
1777450668.303896,1838,0,0
1777450668.30555,1984,0,0
1777450668.308442,2123,0,0
1777450668.311379,2161,0,0
1777450668.314378,2059,0,0
1777450668.317373,1900,0,0
1777450668.322645,1871,0,0
1777450668.324533,2077,0,0
1777450668.327126,2160,0,0
1777450668.330292,2146,0,0
1777450668.332852,1983,0,0
1777450668.335605,1844,0,0
1777450668.3383691,1945,0,0
1777450668.342598,2126,0,0
1777450668.344523,2153,0,0
1777450668.348507,2043,0,0
1777450668.350369,1832,0,0
1777450668.3534,1857,0,0
1777450668.356373,2072,0,0
1777450668.3593972,2174,0,0
1777450668.363482,2120,0,0
1777450668.366459,1988,0,0
1777450668.369417,1859,0,0
1777450668.371454,1923,0,0
1777450668.374389,2118,0,0
1777450668.377407,2151,0,0
1777450668.380451,2093,0,0
1777450668.3838348,1888,0,0
1777450668.387497,1830,0,0
1777450668.3918688,2017,0,0
1777450668.393597,2158,0,0
1777450668.395412,2136,0,0
1777450668.398392,2039,0,0
1777450668.401408,1873,0,0
1777450668.406123,1912,0,0
1777450668.4091918,2096,0,0
1777450668.411672,2187,0,0
1777450668.413447,2087,0,0
1777450668.416383,1954,0,0
1777450668.4193778,1826,0,0
1777450668.422404,1987,0,0
1777450668.426108,2199,0,0
1777450668.4296908,2167,0,0
1777450668.432256,2019,0,0
1777450668.435312,1856,0,0
1777450668.437881,1895,0,0
1777450668.4403698,2109,0,0
1777450668.446657,2212,0,0
1777450668.446767,2162,0,0
1777450668.450772,1967,0,0
1777450668.453332,1847,0,0
1777450668.456734,1960,0,0
1777450668.458378,2147,0,0
1777450668.461396,2200,0,0
1777450668.4675488,2059,0,0
1777450668.467925,1889,0,0
1777450668.47155,1869,0,0
1777450668.473962,2080,0,0
1777450668.4771059,2164,0,0
1777450668.479669,2145,0,0
1777450668.4823601,1966,0,0
1777450668.485368,1856,0,0
1777450668.488988,1947,0,0
1777450668.492376,2124,0,0
1777450668.495268,2165,0,0
1777450668.498593,2111,0,0
1777450668.500372,1890,0,0
1777450668.5033758,1809,0,0
1777450668.5063832,2047,0,0
1777450668.5104609,2169,0,0
1777450668.51341,2130,0,0
1777450668.516439,2023,0,0
1777450668.519497,1804,0,0
1777450668.522043,1855,0,0
1777450668.524597,2071,0,0
1777450668.5273778,2147,0,0
1777450668.531363,2068,0,0
1777450668.5344498,1940,0,0
1777450668.538753,1844,0,0
1777450668.5403578,2005,0,0
1777450668.542909,2107,0,0
1777450668.545465,2132,0,0
1777450668.55166,2002,0,0
1777450668.5522702,1844,0,0
1777450668.55499,1908,0,0
1777450668.559221,2081,0,0
1777450668.560928,2157,0,0
1777450668.5634692,2073,0,0
1777450668.56639,1925,0,0
1777450668.571668,1844,0,0
1777450668.573694,2010,0,0
1777450668.57553,2145,0,0
1777450668.5797062,2169,0,0
1777450668.581415,2063,0,0
1777450668.584387,1850,0,0
1777450668.588228,1890,0,0
1777450668.593528,2087,0,0
1777450668.593612,2140,0,0
1777450668.603067,2121,0,0
1777450668.603213,1954,0,0
1777450668.603284,1851,0,0
1777450668.6058528,1958,0,0
1777450668.608431,2123,0,0
1777450668.615744,2128,0,0
1777450668.6158028,2039,0,0
1777450668.61741,1869,0,0
1777450668.621671,1892,0,0
1777450668.623554,2088,0,0
1777450668.626535,2160,0,0
1777450668.6295302,2076,0,0
1777450668.632511,1981,0,0
1777450668.637205,1869,0,0
1777450668.6395772,1964,0,0
1777450668.642035,2129,0,0
1777450668.645678,2161,0,0
1777450668.647726,2056,0,0
1777450668.6505349,1888,0,0
1777450668.653499,1854,0,0
1777450668.659777,2054,0,0
1777450668.660204,2158,0,0
1777450668.662776,2125,0,0
1777450668.666867,1998,0,0
1777450668.668705,1848,0,0
1777450668.671527,1922,0,0
1777450668.6744928,2103,0,0
1777450668.6805398,2154,0,0
1777450668.68223,2049,0,0
1777450668.6841202,1910,0,0
1777450668.686574,1869,0,0
1777450668.6899898,2010,0,0
1777450668.692539,2131,0,0
1777450668.695509,2124,0,0
1777450668.7020211,2015,0,0
1777450668.702375,1839,0,0
1777450668.704929,1891,0,0
1777450668.7093608,2077,0,0
1777450668.711094,2147,0,0
1777450668.7136588,2084,0,0
1777450668.71651,1912,0,0
1777450668.719567,1838,0,0
1777450668.72658,1993,0,0
1777450668.728377,2109,0,0
1777450668.730502,2161,0,0
1777450668.733571,2071,0,0
1777450668.735392,1852,0,0
1777450668.738032,1857,0,0
1777450668.74064,2039,0,0
1777450668.743516,2184,0,0
1777450668.7482848,2155,0,0
1777450668.750496,1957,0,0
1777450668.752602,1829,0,0
1777450668.757028,1986,0,0
1777450668.758919,2110,0,0
1777450668.761577,2140,0,0
1777450668.764534,2062,0,0
1777450668.770997,1876,0,0
1777450668.77245,1856,0,0
1777450668.7737632,2111,0,0
1777450668.778186,2144,0,0
1777450668.780285,2087,0,0
1777450668.783112,1989,0,0
1777450668.785703,1840,0,0
1777450668.788522,1931,0,0
1777450668.795577,2067,0,0
1777450668.7968042,2150,0,0
1777450668.7992132,2072,0,0
1777450668.8034902,1868,0,0
1777450668.803819,1870,0,0
1777450668.806606,2051,0,0
1777450668.809551,2154,0,0
1777450668.812494,2156,0,0
1777450668.8204968,1982,0,0
1777450668.8207371,1835,0,0
1777450668.8223271,1959,0,0
1777450668.824924,2114,0,0
1777450668.8282518,2167,0,0
1777450668.83083,2023,0,0
1777450668.833505,1932,0,0
1777450668.8365319,1919,0,0
1777450668.841117,2055,0,0
1777450668.843085,2148,0,0
1777450668.846011,2147,0,0
1777450668.849531,2041,0,0
1777450668.851508,1865,0,0
1777450668.854517,1929,0,0
1777450668.857517,2121,0,0
1777450668.8605099,2174,0,0
1777450668.8681002,2098,0,0
1777450668.870145,1946,0,0
1777450668.872401,1868,0,0
1777450668.8739269,2002,0,0
1777450668.875925,2108,0,0
1777450668.879031,2126,0,0
1777450668.881655,2023,0,0
1777450668.884507,1878,0,0
1777450668.891476,1903,0,0
1777450668.893137,2069,0,0
1777450668.895939,2148,0,0
1777450668.896906,2106,0,0
1777450668.903832,1969,0,0
1777450668.903936,1850,0,0
1777450668.905532,1980,0,0
1777450668.912514,2146,0,0
1777450668.9139478,2152,0,0
1777450668.9155872,2060,0,0
1777450668.917881,1908,0,0
1777450668.920925,1883,0,0
1777450668.9238799,2126,0,0
1777450668.926641,2103,0,0
1777450668.930309,2081,0,0
1777450668.937629,2000,0,0
1777450668.938935,1859,0,0
1777450668.939313,1962,0,0
1777450668.946079,2087,0,0
1777450668.946454,2143,0,0
1777450668.948552,2079,0,0
1777450668.950645,1925,0,0
1777450668.957338,1842,0,0
1777450668.9595258,2030,0,0
1777450668.959889,2115,0,0
1777450668.9630919,2120,0,0
1777450668.967096,1993,0,0
1777450668.969476,1862,0,0
1777450668.972118,1916,0,0
1777450668.974512,2089,0,0
1777450668.977509,2128,0,0
1777450668.9827662,2110,0,0
1777450668.986946,1951,0,0
1777450668.989187,1909,0,0
1777450668.990437,2031,0,0
1777450668.9939342,2106,0,0
1777450668.9962912,2156,0,0
1777450668.998917,2018,0,0
1777450669.004677,1896,0,0
1777450669.005132,1965,0,0
1777450669.014697,2119,0,0
1777450669.015244,2171,0,0
1777450669.015677,2131,0,0
1777450669.018104,1977,0,0
1777450669.019548,1914,0,0
1777450669.022521,2056,0,0
1777450669.02553,2184,0,0
1777450669.032295,2182,0,0
1777450669.0337548,2059,0,0
1777450669.037327,1917,0,0
1777450669.038284,1964,0,0
1777450669.043166,2118,0,0
1777450669.043564,2206,0,0
1777450669.046499,2148,0,0
1777450669.053453,2015,0,0
1777450669.054623,1892,0,0
1777450669.058188,2008,0,0
1777450669.059414,2176,0,0
1777450669.061717,2198,0,0
1777450669.065876,2112,0,0
1777450669.0675058,1943,0,0
1777450669.0705101,1922,0,0
1777450669.073513,2110,0,0
1777450669.0792608,2205,0,0
1777450669.0819268,2158,0,0
1777450669.084855,2075,0,0
1777450669.086533,1904,0,0
1777450669.090292,2002,0,0
1777450669.0925188,2145,0,0
1777450669.095087,2187,0,0
1777450669.1019788,2105,0,0
1777450669.10364,1948,0,0
1777450669.103925,1945,0,0
1777450669.1115751,2081,0,0
1777450669.112084,2188,0,0
1777450669.114321,2198,0,0
1777450669.1157498,2054,0,0
1777450669.1185138,1894,0,0
1777450669.121513,1982,0,0
1777450669.129767,2161,0,0
1777450669.1316218,2176,0,0
1777450669.131903,2092,0,0
1777450669.134422,1984,0,0
1777450669.137791,1906,0,0
1777450669.140069,2045,0,0
1777450669.143085,2160,0,0
1777450669.145555,2175,0,0
1777450669.152948,2047,0,0
1777450669.153176,1905,0,0
1777450669.155922,1961,0,0
1777450669.161081,2103,0,0
1777450669.161288,2165,0,0
1777450669.163598,2107,0,0
1777450669.16652,1998,0,0
1777450669.169525,1910,0,0
1777450669.1725068,2044,0,0
1777450669.179163,2184,0,0
1777450669.1809049,2160,0,0
1777450669.1830988,2054,0,0
1777450669.184858,1919,0,0
1777450669.1887062,1952,0,0
1777450669.190999,2105,0,0
1777450669.1950788,2141,0,0
1777450669.1994848,2106,0,0
1777450669.2022662,1988,0,0
1777450669.2042172,1927,0,0
1777450669.2067578,1992,0,0
1777450669.21057,2101,0,0
1777450669.212784,2156,0,0
1777450669.214512,2076,0,0
1777450669.217524,1897,0,0
1777450669.22052,1862,0,0
1777450669.227474,2084,0,0
1777450669.228394,2107,0,0
1777450669.23121,2073,0,0
1777450669.232797,1995,0,0
1777450669.237321,1873,0,0
1777450669.239671,1962,0,0
1777450669.2415218,2050,0,0
1777450669.249436,2194,0,0
1777450669.25104,2077,0,0
1777450669.253639,1889,0,0
1777450669.254076,1875,0,0
1777450669.258873,2045,0,0
1777450669.260972,2141,0,0
1777450669.262517,2107,0,0
1777450669.2655292,1995,0,0
1777450669.2685142,1857,0,0
1777450669.275127,1935,0,0
1777450669.2756128,2115,0,0
1777450669.277985,2141,0,0
1777450669.280968,2064,0,0
1777450669.2851899,1964,0,0
1777450669.287282,1905,0,0
1777450669.289849,2033,0,0
1777450669.2957509,2160,0,0
1777450669.296146,2128,0,0
1777450669.299511,2053,0,0
1777450669.3017752,1906,0,0
1777450669.305082,1960,0,0
1777450669.307947,2142,0,0
1777450669.310529,2186,0,0
1777450669.3135428,2145,0,0
1777450669.319655,2010,0,0
1777450669.319743,1929,0,0
1777450669.323636,2020,0,0
1777450669.325888,2156,0,0
1777450669.329112,2170,0,0
1777450669.331904,2063,0,0
1777450669.334539,1900,0,0
1777450669.337528,1932,0,0
1777450669.343852,2057,0,0
1777450669.344925,2136,0,0
1777450669.347355,2116,0,0
1777450669.350601,1963,0,0
1777450669.352536,1848,0,0
1777450669.355534,1953,0,0
1777450669.358496,2107,0,0
1777450669.3615308,2177,0,0
1777450669.367361,2049,0,0
1777450669.368105,1885,0,0
1777450669.371857,1909,0,0
1777450669.374837,2069,0,0
1777450669.376724,2155,0,0
1777450669.379565,2088,0,0
1777450669.382474,1976,0,0
1777450669.385521,1856,0,0
1777450669.391146,1928,0,0
1777450669.391521,2096,0,0
1777450669.395606,2138,0,0
1777450669.398128,2053,0,0
1777450669.401382,1935,0,0
1777450669.4039428,1878,0,0
1777450669.406504,2044,0,0
1777450669.409492,2108,0,0
1777450669.4137511,2110,0,0
1777450669.415966,1985,0,0
1777450669.418666,1821,0,0
1777450669.422195,1925,0,0
1777450669.424902,2082,0,0
1777450669.427527,2170,0,0
1777450669.4305122,2089,0,0
1777450669.436117,1988,0,0
1777450669.436783,1894,0,0
1777450669.440585,2022,0,0
1777450669.4432871,2145,0,0
1777450669.4468548,2181,0,0
1777450669.448501,2060,0,0
1777450669.452139,1903,0,0
1777450669.454682,1942,0,0
1777450669.458943,2095,0,0
1777450669.461068,2163,0,0
1777450669.463865,2088,0,0
1777450669.467554,1969,0,0
1777450669.469495,1906,0,0
1777450669.4725251,1975,0,0
1777450669.476119,2078,0,0
1777450669.481717,2179,0,0
1777450669.482146,2041,0,0
1777450669.484962,1886,0,0
1777450669.4878259,1913,0,0
1777450669.4913778,2039,0,0
1777450669.493959,2128,0,0
1777450669.496531,2174,0,0
1777450669.499567,1985,0,0
1777450669.502732,1905,0,0
1777450669.506614,1934,0,0
1777450669.509295,2100,0,0
1777450669.51261,2026,0,0
1777450669.515181,1956,0,0
1777450669.517737,2091,0,0
1777450669.52052,2068,0,0
1777450669.52444,1806,0,0
1777450669.527829,2051,0,0
1777450669.530477,2399,0,0
1777450669.53359,2164,0,0
1777450669.536103,1903,0,0
1777450669.538647,1951,0,0
1777450669.5415308,2134,0,0
1777450669.546149,2142,0,0
1777450669.54789,2057,0,0
1777450669.553646,1952,0,0
1777450669.5539079,1760,0,0
1777450669.556546,1869,0,0
1777450669.559484,2128,0,0
1777450669.56252,2133,0,0
1777450669.567313,2075,0,0
1777450669.5695739,1872,0,0
1777450669.573856,1907,0,0
1777450669.5756001,2130,0,0
1777450669.577489,2137,0,0
1777450669.580479,2070,0,0
1777450669.583959,1943,0,0
1777450669.588497,1939,0,0
1777450669.5910861,1826,0,0
1777450669.592926,2151,0,0
1777450669.597273,2228,0,0
1777450669.599079,2075,0,0
1777450669.6016371,1930,0,0
1777450669.6052558,2006,0,0
1777450669.6079402,2076,0,0
1777450669.611676,1979,0,0
1777450669.613642,2164,0,0
1777450669.616715,2074,0,0
1777450669.6195168,1853,0,0
1777450669.622535,1983,0,0
1777450669.6258628,2127,0,0
1777450669.628525,2127,0,0
1777450669.634518,2109,0,0
1777450669.634888,1911,0,0
1777450669.637685,1901,0,0
1777450669.6423411,2192,0,0
1777450669.644075,2211,0,0
1777450669.646724,2065,0,0
1777450669.649525,2010,0,0
1777450669.6558511,1924,0,0
1777450669.6568801,1957,0,0
1777450669.659541,2145,0,0
1777450669.662621,2200,0,0
1777450669.665579,1988,0,0
1777450669.6681302,1887,0,0
1777450669.67067,1679,0,0
1777450669.673544,2058,0,0
1777450669.677003,2157,0,0
1777450669.6813161,2264,0,0
1777450669.683156,2136,0,0
1777450669.686378,1918,0,0
1777450669.68894,1959,0,0
1777450669.6914968,2218,0,0
1777450669.697487,2231,0,0
1777450669.69815,2166,0,0
1777450669.70152,1962,0,0
1777450669.703927,1847,0,0
1777450669.7071831,2025,0,0
1777450669.709742,2111,0,0
1777450669.712509,2162,0,0
1777450669.718573,2067,0,0
1777450669.719223,1955,0,0
1777450669.721573,1924,0,0
1777450669.725918,2082,0,0
1777450669.727689,2080,0,0
1777450669.730528,2058,0,0
1777450669.733505,1976,0,0
1777450669.738865,1926,0,0
1777450669.740633,2074,0,0
1777450669.743017,2203,0,0
1777450669.7464252,2146,0,0
1777450669.7490492,2091,0,0
1777450669.751599,1941,0,0
1777450669.754532,1950,0,0
1777450669.7597609,2072,0,0
1777450669.761354,2148,0,0
1777450669.765388,2054,0,0
1777450669.7670588,1953,0,0
1777450669.769676,1974,0,0
1777450669.7726521,2022,0,0
1777450669.775648,2132,0,0
1777450669.779739,2200,0,0
1777450669.781827,2111,0,0
1777450669.785898,1956,0,0
1777450669.787664,1962,0,0
1777450669.790658,2085,0,0
1777450669.793622,2174,0,0
1777450669.7966442,2125,0,0
1777450669.800211,1966,0,0
1777450669.803979,1860,0,0
1777450669.8065689,2021,0,0
1777450669.809582,2189,0,0
1777450669.812137,2250,0,0
1777450669.814697,2112,0,0
1777450669.817695,1900,0,0
1777450669.821001,1989,0,0
1777450669.8246489,2120,0,0
1777450669.8270578,2117,0,0
1777450669.830303,2139,0,0
1777450669.832862,2104,0,0
1777450669.835618,1942,0,0
1777450669.84155,1956,0,0
1777450669.842508,2116,0,0
1777450669.845581,2224,0,0
1777450669.848023,2084,0,0
1777450669.851285,1961,0,0
1777450669.853844,1926,0,0
1777450669.8566668,2037,0,0
1777450669.862098,2101,0,0
1777450669.862755,2120,0,0
1777450669.865696,2014,0,0
1777450669.8697758,1896,0,0
1777450669.871649,2034,0,0
1777450669.874614,2087,0,0
1777450669.877612,2161,0,0
1777450669.882765,2142,0,0
1777450669.8848178,1985,0,0
1777450669.886783,1910,0,0
1777450669.890826,1973,0,0
1777450669.89265,2126,0,0
1777450669.895643,2123,0,0
1777450669.898645,1995,0,0
1777450669.9045079,1913,0,0
1777450669.905478,1950,0,0
1777450669.90819,2114,0,0
1777450669.91225,2153,0,0
1777450669.913861,2110,0,0
1777450669.9166121,2003,0,0
1777450669.920235,1899,0,0
1777450669.924691,1987,0,0
1777450669.9265978,2101,0,0
1777450669.928682,2144,0,0
1777450669.932302,2055,0,0
1777450669.9351392,1907,0,0
1777450669.9377038,1896,0,0
1777450669.940638,2053,0,0
1777450669.9457011,2114,0,0
1777450669.948277,2113,0,0
1777450669.950737,2014,0,0
1777450669.953674,1889,0,0
1777450669.956219,1977,0,0
1777450669.958771,2102,0,0
1777450669.9616141,2173,0,0
1777450669.965687,2107,0,0
1777450669.968408,1940,0,0
1777450669.971137,1909,0,0
1777450669.974358,2081,0,0
1777450669.976908,2167,0,0
1777450669.97963,2145,0,0
1777450669.985173,2039,0,0
1777450669.9861178,1869,0,0
1777450669.988852,1973,0,0
1777450669.9932008,2104,0,0
1777450669.994782,2179,0,0
1777450669.997649,2102,0,0
1777450670.0006442,1951,0,0
1777450670.005719,1911,0,0
1777450670.007701,2017,0,0
1777450670.009724,2125,0,0
1777450670.013396,2190,0,0
1777450670.0161548,2044,0,0
1777450670.01882,1895,0,0
1777450670.021633,1940,0,0
1777450670.026926,2099,0,0
1777450670.029361,2186,0,0
1777450670.0308979,2091,0,0
1777450670.0336761,1962,0,0
1777450670.037062,1915,0,0
1777450670.0396202,2033,0,0
1777450670.0426319,2129,0,0
1777450670.048225,2113,0,0
1777450670.0495548,2074,0,0
1777450670.0538912,1929,0,0
1777450670.055676,1969,0,0
1777450670.058223,2153,0,0
1777450670.060777,2199,0,0
1777450670.0664861,2149,0,0
1777450670.067371,2060,0,0
1777450670.0696661,1964,0,0
1777450670.073917,2042,0,0
1777450670.075677,2172,0,0
1777450670.078645,2212,0,0
1777450670.0816178,2100,0,0
1777450670.0875,1960,0,0
1777450670.087841,1965,0,0
1777450670.091481,2132,0,0
1777450670.094635,2181,0,0
1777450670.097198,2176,0,0
1777450670.099618,2066,0,0
1777450670.1026292,1939,0,0
1777450670.1095319,1989,0,0
1777450670.110657,2114,0,0
1777450670.112171,2120,0,0
1777450670.11536,2130,0,0
1777450670.117959,1969,0,0
1777450670.120759,1913,0,0
1777450670.123629,2037,0,0
1777450670.129411,2135,0,0
1777450670.130027,2139,0,0
1777450670.133101,2040,0,0
1777450670.136566,1924,0,0
1777450670.138633,1980,0,0
1777450670.141629,2138,0,0
1777450670.144634,2169,0,0
1777450670.1486561,2116,0,0
1777450670.150778,2007,0,0
1777450670.154641,1922,0,0
1777450670.157939,2020,0,0
1777450670.15963,2119,0,0
1777450670.162611,2168,0,0
1777450670.165618,2071,0,0
1777450670.169663,1896,0,0
1777450670.171884,1929,0,0
1777450670.1758661,2099,0,0
1777450670.17765,2177,0,0
1777450670.180633,2126,0,0
1777450670.184182,2032,0,0
1777450670.1866581,1907,0,0
1777450670.190065,2007,0,0
1777450670.193407,2143,0,0
1777450670.197369,2170,0,0
1777450670.199069,2075,0,0
1777450670.20165,1943,0,0
1777450670.204638,1942,0,0
1777450670.2108312,2091,0,0
1777450670.2114198,2167,0,0
1777450670.213822,2101,0,0
1777450670.2228422,1972,0,0
1777450670.2231371,1901,0,0
1777450670.224917,1992,0,0
1777450670.2262468,2125,0,0
1777450670.232054,2168,0,0
1777450670.2321222,2052,0,0
1777450670.235418,1915,0,0
1777450670.239879,1934,0,0
1777450670.241534,2059,0,0
1777450670.244093,2148,0,0
1777450670.246648,2144,0,0
1777450670.249632,2005,0,0
1777450670.252995,1901,0,0
1777450670.2561762,1916,0,0
1777450670.2587252,2087,0,0
1777450670.2619112,2201,0,0
1777450670.2647092,2112,0,0
1777450670.267621,1917,0,0
1777450670.27337,1892,0,0
1777450670.2742689,1992,0,0
1777450670.276942,2145,0,0
1777450670.280828,2129,0,0
1777450670.282629,2020,0,0
1777450670.2855968,1928,0,0
1777450670.2886279,1925,0,0
1777450670.2941608,2121,0,0
1777450670.295972,2202,0,0
1777450670.297718,2092,0,0
1777450670.301701,1958,0,0
1777450670.30361,1926,0,0
1777450670.306624,2020,0,0
1777450670.3095071,2119,0,0
1777450670.314608,2141,0,0
1777450670.3160691,2019,0,0
1777450670.3189251,1873,0,0
1777450670.3217468,1950,0,0
1777450670.324519,2053,0,0
1777450670.3275719,2196,0,0
1777450670.3305259,2067,0,0
1777450670.334644,1971,0,0
1777450670.3375921,1883,0,0
1777450670.340428,1999,0,0
1777450670.343667,2123,0,0
1777450670.3462138,2134,0,0
1777450670.348759,2006,0,0
1777450670.3545809,1830,0,0
1777450670.355249,1947,0,0
1777450670.358397,2097,0,0
1777450670.36071,2103,0,0
1777450670.3638651,2089,0,0
1777450670.366509,1967,0,0
1777450670.370246,1869,0,0
1777450670.374809,1962,0,0
1777450670.377067,2103,0,0
1777450670.378714,2150,0,0
1777450670.3825622,2079,0,0
1777450670.3844988,1951,0,0
1777450670.387511,1915,0,0
1777450670.390501,2037,0,0
1777450670.395314,2155,0,0
1777450670.3973582,2153,0,0
1777450670.400312,2031,0,0
1777450670.4031,1914,0,0
1777450670.405849,1930,0,0
1777450670.408586,2096,0,0
1777450670.411523,2148,0,0
1777450670.41636,2101,0,0
1777450670.418488,1980,0,0
1777450670.421437,1883,0,0
1777450670.424047,2030,0,0
1777450670.426631,2116,0,0
1777450670.429663,2172,0,0
1777450670.4325209,2008,0,0
1777450670.4380631,1857,0,0
1777450670.438856,1908,0,0
1777450670.4429681,2059,0,0
1777450670.446686,2159,0,0
1777450670.448676,2131,0,0
1777450670.451275,1920,0,0
1777450670.453847,1887,0,0
1777450670.456646,1987,0,0
1777450670.460525,2164,0,0
1777450670.465961,2158,0,0
1777450670.467681,2070,0,0
1777450670.469614,1898,0,0
1777450670.4715688,1930,0,0
1777450670.474508,2084,0,0
1777450670.477504,2181,0,0
1777450670.48451,2104,0,0
1777450670.48685,1985,0,0
1777450670.48846,1879,0,0
1777450670.491601,1972,0,0
1777450670.493461,2138,0,0
1777450670.496234,2120,0,0
1777450670.4988549,2056,0,0
1777450670.501539,1905,0,0
1777450670.5082948,1910,0,0
1777450670.512396,2057,0,0
1777450670.513749,2154,0,0
1777450670.5153978,2103,0,0
1777450670.517323,2000,0,0
1777450670.519634,1892,0,0
1777450670.5226262,1964,0,0
1777450670.526311,2103,0,0
1777450670.5323148,2139,0,0
1777450670.534119,2082,0,0
1777450670.536233,1928,0,0
1777450670.538961,1925,0,0
1777450670.5406542,2034,0,0
1777450670.5439339,2155,0,0
1777450670.546624,2124,0,0
1777450670.5496309,1996,0,0
1777450670.555443,1884,0,0
1777450670.5566301,1978,0,0
1777450670.5607848,2112,0,0
1777450670.563298,2147,0,0
1777450670.5653682,2093,0,0
1777450670.568237,1931,0,0
1777450670.570786,1870,0,0
1777450670.573641,2022,0,0
1777450670.5810611,2166,0,0
1777450670.5820632,2117,0,0
1777450670.5837948,2071,0,0
1777450670.5867488,1915,0,0
1777450670.589061,1953,0,0
1777450670.59287,2096,0,0
1777450670.594615,2165,0,0
1777450670.603495,2112,0,0
1777450670.605217,1976,0,0
1777450670.606315,1881,0,0
1777450670.611019,2025,0,0
1777450670.6113012,2164,0,0
1777450670.6135979,2113,0,0
1777450670.616319,2040,0,0
1777450670.618902,1908,0,0
1777450670.6216152,1902,0,0
1777450670.6276999,2101,0,0
1777450670.6290061,2151,0,0
1777450670.631686,2110,0,0
1777450670.635467,1953,0,0
1777450670.637481,1886,0,0
1777450670.639916,1981,0,0
1777450670.642633,2122,0,0
1777450670.650641,2167,0,0
1777450670.650923,2064,0,0
1777450670.6529531,1937,0,0
1777450670.656096,1911,0,0
1777450670.658247,2058,0,0
1777450670.6612082,2154,0,0
1777450670.663705,2117,0,0
1777450670.666631,2018,0,0
1777450670.673132,1925,0,0
1777450670.673589,1997,0,0
1777450670.6758862,2133,0,0
1777450670.679075,2168,0,0
1777450670.6827881,2095,0,0
1777450670.684887,1950,0,0
1777450670.6876101,1928,0,0
1777450670.690649,2062,0,0
1777450670.693664,2153,0,0
1777450670.698313,2134,0,0
1777450670.700375,2021,0,0
1777450670.703344,1924,0,0
1777450670.7072608,1952,0,0
1777450670.709447,2102,0,0
1777450670.7120142,2159,0,0
1777450670.7146182,2084,0,0
1777450670.717644,1951,0,0
1777450670.7224588,1891,0,0
1777450670.7251241,2037,0,0
1777450670.727233,2114,0,0
1777450670.7317371,2131,0,0
1777450670.7338061,2035,0,0
1777450670.735614,1909,0,0
1777450670.738652,1964,0,0
1777450670.741645,2114,0,0
1777450670.747475,2159,0,0
1777450670.7481868,2107,0,0
1777450670.751764,1993,0,0
1777450670.754766,1908,0,0
1777450670.757189,2030,0,0
1777450670.76014,2169,0,0
1777450670.762701,2177,0,0
1777450670.767853,2025,0,0
1777450670.770648,1936,0,0
1777450670.776078,1928,0,0
1777450670.77618,2112,0,0
1777450670.7782478,2148,0,0
1777450670.7806132,2102,0,0
1777450670.783638,2022,0,0
1777450670.786604,1901,0,0
1777450670.789598,1993,0,0
1777450670.797621,2137,0,0
1777450670.7992089,2183,0,0
1777450670.8011131,2058,0,0
1777450670.802288,1922,0,0
1777450670.8050728,1914,0,0
1777450670.807636,2086,0,0
1777450670.810814,2178,0,0
1777450670.813617,2116,0,0
1777450670.818169,2014,0,0
1777450670.8205462,1906,0,0
1777450670.823274,1958,0,0
1777450670.827905,2139,0,0
1777450670.829779,2169,0,0
1777450670.8316538,2067,0,0
1777450670.834649,1945,0,0
1777450670.8376288,1903,0,0
1777450670.8442051,2064,0,0
1777450670.844718,2159,0,0
1777450670.847283,2176,0,0
1777450670.850975,2051,0,0
1777450670.854864,1873,0,0
1777450670.856949,1972,0,0
1777450670.858615,2117,0,0
1777450670.8654761,2151,0,0
1777450670.866704,2088,0,0
1777450670.873583,1983,0,0
1777450670.877675,1923,0,0
1777450670.878282,2064,0,0
1777450670.8783429,2146,0,0
1777450670.879721,2136,0,0
1777450670.882635,2053,0,0
1777450670.885678,1927,0,0
1777450670.8933911,1960,0,0
1777450670.893898,2081,0,0
1777450670.895807,2168,0,0
1777450670.89785,2108,0,0
1777450670.9034429,1972,0,0
1777450670.90378,1927,0,0
1777450670.906624,2005,0,0
1777450670.909774,2145,0,0
1777450670.914624,2142,0,0
1777450670.916727,2047,0,0
1777450670.918752,1911,0,0
1777450670.924135,1932,0,0
1777450670.924696,2110,0,0
1777450670.927634,2151,0,0
1777450670.930627,2120,0,0
1777450670.933629,2033,0,0
1777450670.940916,1914,0,0
1777450670.942129,2004,0,0
1777450670.943454,2133,0,0
1777450670.9471722,2173,0,0
1777450670.951061,2078,0,0
1777450670.953284,1942,0,0
1777450670.9548218,1945,0,0
1777450670.9576519,2073,0,0
1777450670.964232,2173,0,0
1777450670.964414,2116,0,0
1777450670.967977,2001,0,0
1777450670.971921,1883,0,0
1777450670.974185,1971,0,0
1777450670.975845,2136,0,0
1777450670.978631,2154,0,0
1777450670.981645,2069,0,0
1777450670.989054,1936,0,0
1777450670.990895,1917,0,0
1777450670.991127,2095,0,0
1777450670.994345,2190,0,0
1777450670.998389,2165,0,0
1777450671.00058,2070,0,0
1777450671.0031512,1933,0,0
1777450671.009223,1994,0,0
1777450671.009624,2151,0,0
1777450671.0125499,2222,0,0
1777450671.0159428,2161,0,0
1777450671.0180779,2015,0,0
1777450671.020894,1986,0,0
1777450671.0236359,2027,0,0
1777450671.026634,2197,0,0
1777450671.033275,2228,0,0
1777450671.03374,2099,0,0
1777450671.0358698,1939,0,0
1777450671.038899,1962,0,0
1777450671.0426722,2107,0,0
1777450671.0446951,2168,0,0
1777450671.047625,2109,0,0
1777450671.0506308,1981,0,0
1777450671.053607,1903,0,0
1777450671.057915,2013,0,0
1777450671.060374,2121,0,0
1777450671.063209,2147,0,0
1777450671.0668218,2048,0,0
1777450671.068816,1919,0,0
1777450671.071629,1941,0,0
1777450671.074632,2059,0,0
1777450671.081248,2133,0,0
1777450671.081365,2105,0,0
1777450671.083654,1967,0,0
1777450671.087213,1907,0,0
1777450671.090218,2000,0,0
1777450671.092862,2140,0,0
1777450671.095644,2120,0,0
1777450671.098647,2065,0,0
1777450671.1048908,1916,0,0
1777450671.105262,1905,0,0
1777450671.108329,2059,0,0
1777450671.1120489,2165,0,0
1777450671.113929,2088,0,0
1777450671.1167061,1997,0,0
1777450671.1196392,1932,0,0
1777450671.122647,1995,0,0
1777450671.12818,2116,0,0
1777450671.128889,2184,0,0
1777450671.1318212,2085,0,0
1777450671.135131,1960,0,0
1777450671.138817,1916,0,0
1777450671.1406069,2050,0,0
1777450671.143656,2150,0,0
1777450671.1466072,2137,0,0
1777450671.1516852,2025,0,0
1777450671.1540549,1904,0,0
1777450671.156047,1949,0,0
1777450671.1601741,2098,0,0
1777450671.161979,2163,0,0
1777450671.1646452,2123,0,0
1777450671.167642,1979,0,0
1777450671.1740959,1934,0,0
1777450671.1744928,1997,0,0
1777450671.177632,2123,0,0
1777450671.1804988,2169,0,0
1777450671.184031,2032,0,0
1777450671.185612,1926,0,0
1777450671.188606,1940,0,0
1777450671.191618,2074,0,0
1777450671.196463,2149,0,0
1777450671.1994932,2087,0,0
1777450671.201529,1997,0,0
1777450671.204452,1917,0,0
1777450671.207205,2003,0,0
1777450671.209753,2148,0,0
1777450671.212644,2144,0,0
1777450671.218045,2057,0,0
1777450671.218771,1928,0,0
1777450671.222244,1908,0,0
1777450671.226453,2054,0,0
1777450671.227926,2164,0,0
1777450671.230641,2115,0,0
1777450671.233612,1975,0,0
1777450671.239771,1926,0,0
1777450671.240442,1984,0,0
1777450671.243728,2101,0,0
1777450671.245891,2160,0,0
1777450671.248694,2139,0,0
1777450671.2516491,1950,0,0
1777450671.254643,1916,0,0
1777450671.257637,2081,0,0
1777450671.26288,2128,0,0
1777450671.26449,2101,0,0
1777450671.2671978,1989,0,0
1777450671.270522,1918,0,0
1777450671.273698,1954,0,0
1777450671.2762501,2071,0,0
1777450671.278799,2150,0,0
1777450671.2846668,2089,0,0
1777450671.285048,1954,0,0
1777450671.287833,1928,0,0
1777450671.292088,2031,0,0
1777450671.2939022,2169,0,0
1777450671.296642,2179,0,0
1777450671.299613,2026,0,0
1777450671.3054552,1901,0,0
1777450671.306409,1960,0,0
1777450671.309186,2087,0,0
1777450671.3131158,2167,0,0
1777450671.314882,2081,0,0
1777450671.317636,1968,0,0
1777450671.320642,1946,0,0
1777450671.32688,1982,0,0
1777450671.3284092,2166,0,0
1777450671.330305,2190,0,0
1777450671.3327491,2072,0,0
1777450671.336343,1891,0,0
1777450671.338911,1945,0,0
1777450671.3417401,2110,0,0
1777450671.344756,2170,0,0
1777450671.348733,2111,0,0
1777450671.3508039,1957,0,0
1777450671.353842,1948,0,0
1777450671.3569689,1965,0,0
1777450671.3597498,2132,0,0
1777450671.3627598,2174,0,0
1777450671.365736,2125,0,0
1777450671.3698812,1881,0,0
1777450671.3724911,1954,0,0
1777450671.375529,2079,0,0
1777450671.378291,2113,0,0
1777450671.381004,2062,0,0
1777450671.383731,2109,0,0
1777450671.387339,1867,0,0
1777450671.391378,1919,0,0
1777450671.3937159,2168,0,0
1777450671.398168,2231,0,0
1777450671.3999271,1975,0,0
1777450671.401758,1950,0,0
1777450671.4047658,1923,0,0
1777450671.407765,2083,0,0
1777450671.413298,2175,0,0
1777450671.4139369,2105,0,0
1777450671.417119,2006,0,0
1777450671.419818,1904,0,0
1777450671.4228458,1966,0,0
1777450671.4257338,2039,0,0
1777450671.4287622,2165,0,0
1777450671.43436,2075,0,0
1777450671.435054,2015,0,0
1777450671.438537,1869,0,0
1777450671.440896,2059,0,0
1777450671.4441411,2166,0,0
1777450671.446856,2117,0,0
1777450671.449754,2105,0,0
1777450671.454955,1930,0,0
1777450671.457175,1992,0,0
1777450671.459622,2092,0,0
1777450671.463082,2107,0,0
1777450671.464899,2044,0,0
1777450671.467751,1948,0,0
1777450671.470725,1935,0,0
1777450671.47628,2096,0,0
1777450671.4768798,2121,0,0
1777450671.479875,2155,0,0
1777450671.522958,2048,0,0
1777450671.523,1907,0,0
1777450671.523154,1906,0,0
1777450671.523246,2100,0,0
1777450671.523375,2083,0,0
1777450671.523503,2061,0,0
1777450671.523617,2025,0,0
1777450671.523731,1813,0,0
1777450671.5237918,1907,0,0
1777450671.5238242,2201,0,0
1777450671.5238478,2244,0,0
1777450671.523872,2167,0,0
1777450671.5238929,1986,0,0
1777450671.523933,1869,0,0
1777450671.525237,2175,0,0
1777450671.5279539,2223,0,0
1777450671.5307882,2169,0,0
1777450671.5337331,1980,0,0
1777450671.53673,1884,0,0
1777450671.5397482,1992,0,0
1777450671.5428119,2136,0,0
1777450671.5465999,2181,0,0
1777450671.5488808,2077,0,0
1777450671.552041,1861,0,0
1777450671.5550709,1914,0,0
1777450671.557801,2054,0,0
1777450671.5607328,2148,0,0
1777450671.563762,2125,0,0
1777450671.5696268,2030,0,0
1777450671.570024,1910,0,0
1777450671.573338,1983,0,0
1777450671.577655,2093,0,0
1777450671.5794659,2193,0,0
1777450671.5820138,2112,0,0
1777450671.584765,1991,0,0
1777450671.5908558,1902,0,0
1777450671.591809,2036,0,0
1777450671.594603,2170,0,0
1777450671.598954,2171,0,0
1777450671.600744,2045,0,0
1777450671.603293,1899,0,0
1777450671.6058471,1935,0,0
1777450671.611785,2070,0,0
1777450671.612166,2176,0,0
1777450671.615723,2120,0,0
1777450671.618094,1985,0,0
1777450671.621311,1929,0,0
1777450671.623869,2041,0,0
1777450671.626764,2121,0,0
1777450671.632381,2293,0,0
1777450671.633292,2110,0,0
1777450671.636251,1951,0,0
1777450671.6403131,1887,0,0
1777450671.6420128,2070,0,0
1777450671.644723,2256,0,0
1777450671.647742,2188,0,0
1777450671.654212,2089,0,0
1777450671.654627,1919,0,0
1777450671.657774,2125,0,0
1777450671.661798,2179,0,0
1777450671.6636941,2166,0,0
1777450671.666244,2096,0,0
1777450671.668791,1935,0,0
1777450671.675099,1887,0,0
1777450671.6760058,2144,0,0
1777450671.678255,2146,0,0
1777450671.681086,2123,0,0
1777450671.6840131,1945,0,0
1777450671.686762,1873,0,0
1777450671.689746,1992,0,0
1777450671.696239,2081,0,0
1777450671.696331,2133,0,0
1777450671.699771,2012,0,0
1777450671.701903,1885,0,0
1777450671.7048352,1921,0,0
1777450671.707737,2064,0,0
1777450671.7107682,2126,0,0
1777450671.716844,2159,0,0
1777450671.716921,2041,0,0
1777450671.7206452,1897,0,0
1777450671.724891,1966,0,0
1777450671.726583,2066,0,0
1777450671.72897,2130,0,0
1777450671.7317388,2051,0,0
1777450671.734878,1950,0,0
1777450671.7385511,1909,0,0
1777450671.741966,2017,0,0
1777450671.74458,2148,0,0
1777450671.747917,2080,0,0
1777450671.7497249,1973,0,0
1777450671.752737,1861,0,0
1777450671.755739,1919,0,0
1777450671.7596622,2056,0,0
1777450671.761738,2141,0,0
1777450671.7658172,2094,0,0
1777450671.769118,1921,0,0
1777450671.770768,1874,0,0
1777450671.7737422,1990,0,0
1777450671.776735,2117,0,0
1777450671.781727,2112,0,0
1777450671.785164,1997,0,0
1777450671.7858188,1919,0,0
1777450671.7897222,1923,0,0
1777450671.792352,2079,0,0
1777450671.7949052,2161,0,0
1777450671.79776,2112,0,0
1777450671.803617,1976,0,0
1777450671.804002,1906,0,0
1777450671.807212,2004,0,0
1777450671.811417,2103,0,0
1777450671.81282,2162,0,0
1777450671.815729,2064,0,0
1777450671.818767,1957,0,0
1777450671.8217258,1925,0,0
1777450671.825444,2110,0,0
1777450671.828483,2184,0,0
1777450671.8331552,2157,0,0
1777450671.834972,2032,0,0
1777450671.836726,1857,0,0
1777450671.8397639,1971,0,0
1777450671.842737,2183,0,0
1777450671.846806,2187,0,0
1777450671.849814,2055,0,0
1777450671.8526661,1962,0,0
1777450671.855584,1918,0,0
1777450671.857922,2054,0,0
1777450671.860729,2159,0,0
1777450671.863734,2163,0,0
1777450671.868004,2051,0,0
1777450671.8698912,1902,0,0
1777450671.874154,1978,0,0
1777450671.877527,2103,0,0
1777450671.8788328,2141,0,0
1777450671.881734,2157,0,0
1777450671.8847349,1982,0,0
1777450671.88918,1912,0,0
1777450671.8911722,2053,0,0
1777450671.8942258,2181,0,0
1777450671.89697,2135,0,0
1777450671.89974,2039,0,0
1777450671.902755,1906,0,0
1777450671.905751,1919,0,0
1777450671.911753,2125,0,0
1777450671.912726,2168,0,0
1777450671.9151628,2087,0,0
1777450671.9193568,1967,0,0
1777450671.920778,1898,0,0
1777450671.9240918,1995,0,0
1777450671.9267478,2136,0,0
1777450671.929736,2147,0,0
1777450671.9338088,2053,0,0
1777450671.9365911,1922,0,0
1777450671.9393952,1927,0,0
1777450671.9422662,2095,0,0
1777450671.94483,2144,0,0
1777450671.947733,2124,0,0
1777450671.950735,1992,0,0
1777450671.954582,1914,0,0
1777450671.956797,2015,0,0
1777450671.960873,2122,0,0
1777450671.963864,2163,0,0
1777450671.966424,2082,0,0
1777450671.96898,1930,0,0
1777450671.97176,1932,0,0
1777450671.9762812,2115,0,0
1777450671.978123,2158,0,0
1777450671.980953,2175,0,0
1777450671.9839811,2042,0,0
1777450671.986757,1937,0,0
1777450671.989863,1991,0,0
1777450671.992866,2132,0,0
1777450671.997201,2185,0,0
1777450671.999416,2120,0,0
1777450672.002034,1969,0,0
1777450672.005308,1922,0,0
1777450672.007924,2068,0,0
1777450672.010852,2174,0,0
1777450672.013886,2132,0,0
1777450672.018734,2019,0,0
1777450672.020925,1909,0,0
1777450672.0231419,1978,0,0
1777450672.026779,2106,0,0
1777450672.029386,2145,0,0
1777450672.031939,2119,0,0
1777450672.034869,1971,0,0
1777450672.0403771,1918,0,0
1777450672.041054,2037,0,0
1777450672.044009,2145,0,0
1777450672.047894,2183,0,0
1777450672.049875,2059,0,0
1777450672.052864,1928,0,0
1777450672.0558872,1939,0,0
1777450672.0618129,2113,0,0
1777450672.062876,2183,0,0
1777450672.065664,2114,0,0
1777450672.0695732,1972,0,0
1777450672.0713642,1910,0,0
1777450672.073919,2034,0,0
1777450672.07686,2146,0,0
1777450672.079862,2182,0,0
1777450672.084138,2037,0,0
1777450672.085888,1893,0,0
1777450672.0897942,1920,0,0
1777450672.0926158,2104,0,0
1777450672.0951848,2165,0,0
1777450672.097888,2137,0,0
1777450672.1008909,1962,0,0
1777450672.104461,1846,0,0
1777450672.107595,1973,0,0
1777450672.111577,2120,0,0
1777450672.11328,2192,0,0
1777450672.1158662,2089,0,0
1777450672.118848,1901,0,0
1777450672.124759,1893,0,0
1777450672.1251462,2141,0,0
1777450672.128255,2152,0,0
1777450672.132305,2137,0,0
1777450672.133895,2009,0,0
1777450672.136872,1930,0,0
1777450672.139871,1979,0,0
1777450672.1452758,2073,0,0
1777450672.146179,2146,0,0
1777450672.149033,2069,0,0
1777450672.1530108,1945,0,0
1777450672.154874,1996,0,0
1777450672.1578681,2044,0,0
1777450672.160844,2219,0,0
1777450672.166534,2094,0,0
1777450672.167423,1966,0,0
1777450672.170065,1884,0,0
1777450672.174032,1947,0,0
1777450672.175862,2112,0,0
1777450672.178849,2153,0,0
1777450672.181854,2060,0,0
1777450672.187668,1973,0,0
1777450672.1880379,1891,0,0
1777450672.191604,2070,0,0
1777450672.1940129,2189,0,0
1777450672.197323,2216,0,0
1777450672.1998668,2067,0,0
1777450672.2028549,1859,0,0
1777450672.208915,1904,0,0
1777450672.210127,2082,0,0
1777450672.212538,2166,0,0
1777450672.216631,2128,0,0
1777450672.218366,2005,0,0
1777450672.220916,1880,0,0
1777450672.223861,1986,0,0
1777450672.229713,2142,0,0
1777450672.230108,2221,0,0
1777450672.233591,2084,0,0
1777450672.237845,1897,0,0
1777450672.2392151,1909,0,0
1777450672.241857,2109,0,0
1777450672.244854,2180,0,0
1777450672.251014,2114,0,0
1777450672.251957,2020,0,0
1777450672.254381,1877,0,0
1777450672.258602,1972,0,0
1777450672.260046,2131,0,0
1777450672.262859,2168,0,0
1777450672.265853,2045,0,0
1777450672.2688699,1914,0,0
1777450672.27348,1927,0,0
1777450672.2755451,2089,0,0
1777450672.27823,2154,0,0
1777450672.281527,2107,0,0
1777450672.2844942,2020,0,0
1777450672.287057,1869,0,0
1777450672.289885,1934,0,0
1777450672.296126,2118,0,0
1777450672.2965639,2150,0,0
1777450672.299649,2069,0,0
1777450672.302065,1957,0,0
1777450672.3050601,1873,0,0
1777450672.307936,2091,0,0
1777450672.310861,2091,0,0
1777450672.313986,2152,0,0
1777450672.318126,2081,0,0
1777450672.320228,1893,0,0
1777450672.3244312,1962,0,0
1777450672.3261728,2119,0,0
1777450672.3288782,2175,0,0
1777450672.331867,2104,0,0
1777450672.334857,1954,0,0
1777450672.339374,1880,0,0
1777450672.341503,2012,0,0
1777450672.347291,2171,0,0
1777450672.347591,2173,0,0
1777450672.3503842,2010,0,0
1777450672.353028,1881,0,0
1777450672.355843,1937,0,0
1777450672.361568,2128,0,0
1777450672.362189,2203,0,0
1777450672.3648582,2073,0,0
1777450672.3689039,1947,0,0
1777450672.370857,1868,0,0
1777450672.3738601,2003,0,0
1777450672.376885,2138,0,0
1777450672.382899,2104,0,0
1777450672.383306,2034,0,0
1777450672.3867571,1897,0,0
1777450672.3896372,1909,0,0
1777450672.393264,2078,0,0
1777450672.3949199,2134,0,0
1777450672.3978748,2095,0,0
1777450672.4008698,1970,0,0
1777450672.4070258,1865,0,0
1777450672.40939,1956,0,0
1777450672.411385,2107,0,0
1777450672.4167428,2142,0,0
1777450672.417068,2053,0,0
1777450672.419054,1881,0,0
1777450672.4218931,1867,0,0
1777450672.4298282,2046,0,0
1777450672.4300401,2152,0,0
1777450672.432341,2079,0,0
1777450672.4380732,1983,0,0
1777450672.4386828,1876,0,0
1777450672.4400902,1942,0,0
1777450672.44287,2103,0,0
1777450672.445864,2171,0,0
1777450672.454149,2072,0,0
1777450672.4567308,1932,0,0
1777450672.458231,1896,0,0
1777450672.4617531,2034,0,0
1777450672.4621701,2168,0,0
1777450672.463994,2155,0,0
1777450672.46688,2016,0,0
1777450672.472518,1883,0,0
1777450672.473072,1956,0,0
1777450672.476604,2087,0,0
1777450672.479733,2156,0,0
1777450672.4830809,2108,0,0
1777450672.484885,1927,0,0
1777450672.4878871,1883,0,0
1777450672.490879,2036,0,0
1777450672.495921,2133,0,0
1777450672.4982028,2180,0,0
1777450672.500234,2034,0,0
1777450672.5030458,1900,0,0
1777450672.5067232,1984,0,0
1777450672.509281,2130,0,0
1777450672.511874,2143,0,0
1777450672.514851,2113,0,0
1777450672.519455,1945,0,0
1777450672.5217988,1897,0,0
1777450672.5252569,2025,0,0
1777450672.528385,2131,0,0
1777450672.5300338,2165,0,0
1777450672.532871,2081,0,0
1777450672.535844,1921,0,0
1777450672.5388732,1921,0,0
1777450672.544317,2106,0,0
1777450672.5480142,2190,0,0
1777450672.548749,2132,0,0
1777450672.5519118,1976,0,0
1777450672.553918,1886,0,0
1777450672.556895,1989,0,0
1777450672.5598478,2161,0,0
1777450672.563741,2200,0,0
1777450672.570102,2092,0,0
1777450672.572055,1929,0,0
1777450672.5721788,1931,0,0
1777450672.575347,2108,0,0
1777450672.5787258,2170,0,0
1777450672.580841,2160,0,0
1777450672.584181,2048,0,0
1777450672.5869062,1908,0,0
1777450672.5898519,2002,0,0
1777450672.59586,2161,0,0
1777450672.597167,2223,0,0
1777450672.598939,2127,0,0
1777450672.601943,1984,0,0
1777450672.60567,1935,0,0
1777450672.608275,2075,0,0
1777450672.610971,2191,0,0
1777450672.6139631,2212,0,0
1777450672.620159,2065,0,0
1777450672.622049,1947,0,0
1777450672.623997,2005,0,0
1777450672.6271749,2170,0,0
1777450672.629195,2237,0,0
1777450672.6319911,2173,0,0
1777450672.634999,2002,0,0
1777450672.637998,1922,0,0
1777450672.6446002,2078,0,0
1777450672.645936,2181,0,0
1777450672.648005,2191,0,0
1777450672.6502368,2097,0,0
1777450672.655104,1955,0,0
1777450672.657233,1971,0,0
1777450672.6589901,2150,0,0
1777450672.665549,2230,0,0
1777450672.6683,2163,0,0
1777450672.668444,2043,0,0
1777450672.6719098,1967,0,0
1777450672.6756768,2059,0,0
1777450672.678089,2213,0,0
1777450672.679992,2212,0,0
1777450672.682996,2120,0,0
1777450672.6861272,1938,0,0
1777450672.693526,1948,0,0
1777450672.695874,2105,0,0
1777450672.697738,2179,0,0
1777450672.698726,2137,0,0
1777450672.70383,2014,0,0
1777450672.7040918,1886,0,0
1777450672.706998,1999,0,0
1777450672.7101948,2163,0,0
1777450672.715256,2184,0,0
1777450672.719841,2090,0,0
1777450672.720907,1956,0,0
1777450672.722805,1913,0,0
1777450672.725125,2072,0,0
1777450672.728124,2170,0,0
1777450672.7310212,2118,0,0
1777450672.733991,2049,0,0
1777450672.736991,1890,0,0
1777450672.741964,1950,0,0
1777450672.7445362,2114,0,0
1777450672.7469718,2173,0,0
1777450672.750147,2091,0,0
1777450672.754487,1927,0,0
1777450672.754982,1890,0,0
1777450672.757982,1997,0,0
1777450672.763826,2177,0,0
1777450672.765724,2150,0,0
1777450672.768568,2041,0,0
1777450672.773379,1908,0,0
1777450672.77364,1916,0,0
1777450672.775986,2126,0,0
1777450672.7789881,2179,0,0
1777450672.7819788,2123,0,0
1777450672.784993,1963,0,0
1777450672.790256,1880,0,0
1777450672.792906,2036,0,0
1777450672.795441,2150,0,0
1777450672.7970612,2160,0,0
1777450672.8007,2062,0,0
1777450672.803709,1915,0,0
1777450672.806381,1924,0,0
1777450672.8115041,2102,0,0
1777450672.814191,2179,0,0
1777450672.8165052,2138,0,0
1777450672.821596,1994,0,0
1777450672.821831,1895,0,0
1777450672.8241138,2036,0,0
1777450672.826992,2177,0,0
1777450672.8300009,2181,0,0
1777450672.832991,2092,0,0
1777450672.838345,1916,0,0
1777450672.8399491,1932,0,0
1777450672.8444679,2083,0,0
1777450672.8454342,2175,0,0
1777450672.8488529,2138,0,0
1777450672.8511941,1997,0,0
1777450672.854006,1878,0,0
1777450672.860489,1983,0,0
1777450672.860947,2151,0,0
1777450672.864036,2174,0,0
1777450672.867397,2095,0,0
1777450672.8695612,1920,0,0
1777450672.8723059,1900,0,0
1777450672.8749921,2086,0,0
1777450672.8780448,2197,0,0
1777450672.884907,2169,0,0
1777450672.8866,2021,0,0
1777450672.888375,1854,0,0
1777450672.890624,1964,0,0
1777450672.894368,2149,0,0
1777450672.898767,2190,0,0
1777450672.898997,2062,0,0
1777450672.901985,1953,0,0
1777450672.9078069,1869,0,0
1777450672.910511,2023,0,0
1777450672.9130392,2173,0,0
1777450672.9148622,2166,0,0
1777450672.918628,2021,0,0
1777450672.920432,1858,0,0
1777450672.922988,1923,0,0
1777450672.9259799,2108,0,0
1777450672.9289658,2132,0,0
1777450672.93484,2106,0,0
1777450672.935266,1921,0,0
1777450672.9387488,1889,0,0
1777450672.9440598,2020,0,0
1777450672.9442508,2127,0,0
1777450672.9472609,2125,0,0
1777450672.949982,2028,0,0
1777450672.95359,1899,0,0
1777450672.959244,1895,0,0
1777450672.9604611,2081,0,0
1777450672.963866,2119,0,0
1777450672.966105,2114,0,0
1777450672.969753,1976,0,0
1777450672.971435,1897,0,0
1777450672.974375,1977,0,0
1777450672.979745,2149,0,0
1777450672.980226,2167,0,0
1777450672.984022,2050,0,0
1777450672.98778,1878,0,0
1777450672.989815,1904,0,0
1777450672.992728,2062,0,0
1777450672.995283,2157,0,0
1777450672.998037,2125,0,0
1777450673.001008,2008,0,0
1777450673.005446,1909,0,0
1777450673.007788,1978,0,0
1777450673.01106,2123,0,0
1777450673.013061,2187,0,0
1777450673.016913,2112,0,0
1777450673.0194829,1914,0,0
1777450673.022069,1912,0,0
1777450673.024998,2073,0,0
1777450673.030802,2186,0,0
1777450673.031957,2121,0,0
1777450673.0350158,2001,0,0
1777450673.038244,1893,0,0
1777450673.0401862,1941,0,0
1777450673.043631,2127,0,0
1777450673.046369,2207,0,0
1777450673.052623,2117,0,0
1777450673.054206,1983,0,0
1777450673.056534,1937,0,0
1777450673.058911,2102,0,0
1777450673.0622091,2228,0,0
1777450673.064773,2200,0,0
1777450673.067383,2098,0,0
1777450673.0701041,1954,0,0
1777450673.0730948,2024,0,0
1777450673.078227,2148,0,0
1777450673.0802839,2197,0,0
1777450673.083102,2221,0,0
1777450673.0878122,2014,0,0
1777450673.088202,1907,0,0
1777450673.091174,2034,0,0
1777450673.09411,2193,0,0
1777450673.1005251,2176,0,0
1777450673.1022348,2092,0,0
1777450673.10422,1845,0,0
1777450673.1076312,1955,0,0
1777450673.109872,2143,0,0
1777450673.112158,2237,0,0
1777450673.115094,2099,0,0
1777450673.1181,1986,0,0
1777450673.1211479,1866,0,0
1777450673.126762,2064,0,0
1777450673.127213,2090,0,0
1777450673.1312718,2129,0,0
1777450673.135591,2072,0,0
1777450673.13809,1933,0,0
1777450673.139339,1964,0,0
1777450673.142292,1969,0,0
1777450673.147336,2158,0,0
1777450673.152235,2244,0,0
1777450673.154009,2058,0,0
1777450673.157571,1870,0,0
1777450673.158384,1938,0,0
1777450673.1605089,2118,0,0
1777450673.163167,2200,0,0
1777450673.166115,2155,0,0
1777450673.169129,2066,0,0
1777450673.1763499,1871,0,0
1777450673.178058,1954,0,0
1777450673.178383,2169,0,0
1777450673.1815512,2210,0,0
1777450673.186103,1963,0,0
1777450673.1884081,1894,0,0
1777450673.1901262,1984,0,0
1777450673.1932118,2124,0,0
1777450673.198205,2144,0,0
1777450673.200407,2079,0,0
1777450673.202411,1905,0,0
1777450673.205636,1930,0,0
1777450673.2092748,2130,0,0
1777450673.211756,2178,0,0
1777450673.214317,2126,0,0
1777450673.217128,2067,0,0
1777450673.222639,1941,0,0
1777450673.2233222,1959,0,0
1777450673.226607,2163,0,0
1777450673.229585,2122,0,0
1777450673.2329879,2095,0,0
1777450673.235565,1926,0,0
1777450673.238133,1874,0,0
1777450673.2410932,2036,0,0
1777450673.24641,2168,0,0
1777450673.248699,2152,0,0
1777450673.2502348,2111,0,0
1777450673.2534819,2012,0,0
1777450673.256877,1943,0,0
1777450673.259448,2089,0,0
1777450673.26213,2130,0,0
1777450673.2651,2127,0,0
1777450673.270087,1918,0,0
1777450673.27204,1925,0,0
1777450673.27531,1994,0,0
1777450673.27872,2071,0,0
1777450673.2803998,2183,0,0
1777450673.283134,2040,0,0
1777450673.286114,2042,0,0
1777450673.289133,1972,0,0
1777450673.293308,2054,0,0
1777450673.295468,2033,0,0
1777450673.298704,2234,0,0
1777450673.302197,2164,0,0
1777450673.304176,1935,0,0
1777450673.307125,1999,0,0
1777450673.3101282,2079,0,0
1777450673.3165,2218,0,0
1777450673.317206,2138,0,0
1777450673.320555,1960,0,0
1777450673.323683,1845,0,0
1777450673.32565,2026,0,0
1777450673.328502,2169,0,0
1777450673.3311381,2179,0,0
1777450673.334095,2079,0,0
1777450673.340296,1918,0,0
1777450673.340699,2013,0,0
1777450673.3431392,2231,0,0
1777450673.346411,2153,0,0
1777450673.349568,2113,0,0
1777450673.352138,2018,0,0
1777450673.3551319,2011,0,0
1777450673.358146,1996,0,0
1777450673.361877,2135,0,0
1777450673.3650181,2148,0,0
1777450673.3682141,2092,0,0
1777450673.371454,1936,0,0
1777450673.373155,1970,0,0
1777450673.376253,2081,0,0
1777450673.3792372,2134,0,0
1777450673.383808,2093,0,0
1777450673.3859131,1961,0,0
1777450673.389366,1980,0,0
1777450673.392321,2109,0,0
1777450673.3942552,2140,0,0
1777450673.397244,2180,0,0
1777450673.400813,2004,0,0
1777450673.405549,1927,0,0
1777450673.406917,1958,0,0
1777450673.409447,2053,0,0
1777450673.413824,2215,0,0
1777450673.415769,2143,0,0
1777450673.418329,2007,0,0
1777450673.4212658,1834,0,0
1777450673.424234,1956,0,0
1777450673.42866,2291,0,0
1777450673.431305,2311,0,0
1777450673.434417,2052,0,0
1777450673.436335,1929,0,0
1777450673.4392262,1933,0,0
1777450673.442256,2038,0,0
1777450673.445228,2122,0,0
1777450673.4502861,2079,0,0
1777450673.4519029,1997,0,0
1777450673.456574,1905,0,0
1777450673.4583528,2030,0,0
1777450673.4602518,2158,0,0
1777450673.463219,2146,0,0
1777450673.466254,2081,0,0
1777450673.471824,2009,0,0
1777450673.472246,1929,0,0
1777450673.475272,2139,0,0
1777450673.479682,2111,0,0
1777450673.481375,2142,0,0
1777450673.484246,1988,0,0
1777450673.487254,1820,0,0
1777450673.493185,1937,0,0
1777450673.494833,2165,0,0
1777450673.497044,2141,0,0
1777450673.4994402,2060,0,0
1777450673.502966,1957,0,0
1777450673.50552,1896,0,0
1777450673.508234,2055,0,0
1777450673.5145311,2141,0,0
1777450673.5155158,2128,0,0
1777450673.518143,2053,0,0
1777450673.522742,1901,0,0
1777450673.52428,1932,0,0
1777450673.526842,2131,0,0
1777450673.529247,2153,0,0
1777450673.532243,2085,0,0
1777450673.536426,1966,0,0
1777450673.538473,1925,0,0
1777450673.541458,2032,0,0
1777450673.544534,2196,0,0
1777450673.547245,2183,0,0
1777450673.5502179,2056,0,0
1777450673.553216,1920,0,0
1777450673.558259,1955,0,0
1777450673.5599942,2079,0,0
1777450673.5627022,2094,0,0
1777450673.566158,2106,0,0
1777450673.5688372,2011,0,0
1777450673.5713909,1931,0,0
1777450673.5742478,1996,0,0
1777450673.579547,2114,0,0
1777450673.581627,2134,0,0
1777450673.583499,2088,0,0
1777450673.587609,1947,0,0
1777450673.589459,1929,0,0
1777450673.592252,2097,0,0
1777450673.595254,2190,0,0
1777450673.6012,2095,0,0
1777450673.601873,1992,0,0
1777450673.6050339,1935,0,0
1777450673.607757,1978,0,0
1777450673.610773,2075,0,0
1777450673.61333,2183,0,0
1777450673.616221,2192,0,0
1777450673.622752,1953,0,0
1777450673.6235032,1840,0,0
1777450673.6263099,2100,0,0
1777450673.6289432,2152,0,0
1777450673.632131,2112,0,0
1777450673.63469,1999,0,0
1777450673.637247,1903,0,0
1777450673.64022,1987,0,0
1777450673.644406,2151,0,0
1777450673.6463811,2103,0,0
1777450673.649459,2107,0,0
1777450673.652276,1944,0,0
1777450673.655209,1996,0,0
1777450673.6582148,2060,0,0
1777450673.661202,1985,0,0
1777450673.665463,2137,0,0
1777450673.667458,2075,0,0
1777450673.670242,1880,0,0
1777450673.6733031,1960,0,0
1777450673.676221,2114,0,0
1777450673.6792052,2151,0,0
1777450673.6822212,2122,0,0
1777450673.6860218,2010,0,0
1777450673.6895092,1930,0,0
1777450673.693702,2013,0,0
1777450673.695157,2117,0,0
1777450673.6972039,2152,0,0
1777450673.700829,2017,0,0
1777450673.707075,1916,0,0
1777450673.7074392,1974,0,0
1777450673.7102091,2122,0,0
1777450673.714416,2150,0,0
1777450673.716181,2104,0,0
1777450673.718744,1980,0,0
1777450673.721359,1916,0,0
1777450673.727663,2025,0,0
1777450673.728299,2136,0,0
1777450673.730985,2147,0,0
1777450673.73525,2077,0,0
1777450673.737029,1979,0,0
1777450673.73959,1975,0,0
1777450673.7423801,2085,0,0
1777450673.748283,2173,0,0
1777450673.7491899,2162,0,0
1777450673.7515929,2033,0,0
1777450673.7558951,1943,0,0
1777450673.757698,1996,0,0
1777450673.760361,2124,0,0
1777450673.763359,2160,0,0
1777450673.769435,2092,0,0
1777450673.769776,1948,0,0
1777450673.7726789,1945,0,0
1777450673.7763379,2093,0,0
1777450673.778381,2135,0,0
1777450673.7813702,2118,0,0
1777450673.784367,2036,0,0
1777450673.78966,1931,0,0
1777450673.7914329,1986,0,0
1777450673.793728,2115,0,0
1777450673.79733,2141,0,0
1777450673.7999191,2060,0,0
1777450673.8024142,1952,0,0
1777450673.805376,1911,0,0
1777450673.810049,2063,0,0
1777450673.812024,2170,0,0
1777450673.816043,2077,0,0
1777450673.817885,2032,0,0
1777450673.820723,1939,0,0
1777450673.823475,1977,0,0
1777450673.826376,2098,0,0
1777450673.830485,2149,0,0
1777450673.832497,2127,0,0
1777450673.838027,1974,0,0
1777450673.838359,1930,0,0
1777450673.8413692,2034,0,0
1777450673.844983,2152,0,0
1777450673.847531,2146,0,0
1777450673.8513868,2076,0,0
1777450673.8541288,1954,0,0
1777450673.857022,1974,0,0
1777450673.8598862,2112,0,0
1777450673.8623629,2167,0,0
1777450673.865373,2139,0,0
1777450673.8715038,1998,0,0
1777450673.8722088,1906,0,0
1777450673.874885,2024,0,0
1777450673.879053,2133,0,0
1777450673.8808372,2141,0,0
1777450673.8834481,2088,0,0
1777450673.8863811,1946,0,0
1777450673.8921869,1939,0,0
1777450673.892593,2117,0,0
1777450673.895852,2156,0,0
1777450673.899938,2074,0,0
1777450673.901682,2022,0,0
1777450673.9043741,1917,0,0
1777450673.907375,2030,0,0
1777450673.913708,2117,0,0
1777450673.914064,2140,0,0
1777450673.916807,2114,0,0
1777450673.921085,1929,0,0
1777450673.9227939,1955,0,0
1777450673.925376,2077,0,0
1777450673.9284322,2124,0,0
1777450673.9338481,2136,0,0
1777450673.934871,2074,0,0
1777450673.9379041,1883,0,0
1777450673.942081,1988,0,0
1777450673.943732,2104,0,0
1777450673.9463801,2149,0,0
1777450673.9493709,2140,0,0
1777450673.954804,2006,0,0
1777450673.955442,1875,0,0
1777450673.958702,2049,0,0
1777450673.962983,2113,0,0
1777450673.964436,2085,0,0
1777450673.967371,2107,0,0
1777450673.9703732,1938,0,0
1777450673.975755,1952,0,0
1777450673.9767292,2093,0,0
1777450673.97991,2136,0,0
1777450673.9838238,2098,0,0
1777450673.985666,1970,0,0
1777450673.9883788,1914,0,0
1777450673.991364,2000,0,0
1777450673.997288,2142,0,0
1777450673.998274,2132,0,0
1777450674.000524,2001,0,0
1777450674.004931,1828,0,0
1777450674.006651,1965,0,0
1777450674.009365,2089,0,0
1777450674.012372,2050,0,0
1777450674.018056,1995,0,0
1777450674.018744,1882,0,0
1777450674.021396,1857,0,0
1777450674.025585,1953,0,0
1777450674.027431,2110,0,0
1777450674.0303721,2093,0,0
1777450674.0333471,1987,0,0
1777450674.039095,1910,0,0
1777450674.039781,1897,0,0
1777450674.0425432,2080,0,0
1777450674.046645,2133,0,0
1777450674.048479,2054,0,0
1777450674.051378,1908,0,0
1777450674.054395,1852,0,0
1777450674.06064,1937,0,0
1777450674.0609899,2084,0,0
1777450674.063414,2097,0,0
1777450674.0678048,2036,0,0
1777450674.069696,1840,0,0
1777450674.0723698,1874,0,0
1777450674.075368,2066,0,0
1777450674.0809119,2158,0,0
1777450674.081889,2088,0,0
1777450674.090594,1920,0,0
1777450674.090982,1906,0,0
1777450674.091161,1995,0,0
1777450674.093716,2139,0,0
1777450674.096392,2134,0,0
1777450674.102239,2086,0,0
1777450674.1025941,2008,0,0
1777450674.106883,1930,0,0
1777450674.1091242,2090,0,0
1777450674.112333,2133,0,0
1777450674.114893,2113,0,0
1777450674.117447,2034,0,0
1777450674.120358,1949,0,0
1777450674.124009,1960,0,0
1777450674.1272728,2115,0,0
1777450674.130305,2154,0,0
1777450674.1332989,2097,0,0
1777450674.135707,1993,0,0
1777450674.138386,1982,0,0
1777450674.1414,2053,0,0
1777450674.145558,2136,0,0
1777450674.1482182,2139,0,0
1777450674.152473,2053,0,0
1777450674.154351,1937,0,0
1777450674.156907,1938,0,0
1777450674.15945,2113,0,0
1777450674.162341,2150,0,0
1777450674.1673129,2148,0,0
1777450674.169504,2053,0,0
1777450674.171604,1940,0,0
1777450674.175432,2031,0,0
1777450674.177382,2120,0,0
1777450674.180369,2166,0,0
1777450674.183379,2106,0,0
1777450674.189614,1976,0,0
1777450674.190607,2016,0,0
1777450674.193408,2078,0,0
1777450674.198117,2114,0,0
1777450674.19855,2119,0,0
1777450674.201356,2022,0,0
1777450674.204399,1924,0,0
1777450674.207345,1999,0,0
1777450674.2146409,2081,0,0
1777450674.217141,2208,0,0
1777450674.2215161,2068,0,0
1777450674.221868,2006,0,0
1777450674.223796,1934,0,0
1777450674.225373,2062,0,0
1777450674.22838,2268,0,0
1777450674.231355,2120,0,0
1777450674.2397099,1998,0,0
1777450674.241257,1905,0,0
1777450674.241995,1980,0,0
1777450674.2456162,2106,0,0
1777450674.247591,2140,0,0
1777450674.249372,2097,0,0
1777450674.252369,1980,0,0
1777450674.255357,1943,0,0
1777450674.261434,2069,0,0
1777450674.262697,2146,0,0
1777450674.267636,2127,0,0
1777450674.267796,2043,0,0
1777450674.271497,1920,0,0
1777450674.2741408,1973,0,0
1777450674.27674,2113,0,0
1777450674.279367,2168,0,0
1777450674.285841,2108,0,0
1777450674.287189,2008,0,0
1777450674.288718,1928,0,0
1777450674.2921731,2052,0,0
1777450674.2944598,2182,0,0
1777450674.2975,2147,0,0
1777450674.300354,2068,0,0
1777450674.303349,1951,0,0
1777450674.310772,1956,0,0
1777450674.31412,2125,0,0
1777450674.314655,2159,0,0
1777450674.3191922,2115,0,0
1777450674.319344,2003,0,0
1777450674.321549,1944,0,0
1777450674.324502,2012,0,0
1777450674.33025,2148,0,0
1777450674.332633,2164,0,0
1777450674.334804,2082,0,0
1777450674.336758,1948,0,0
1777450674.340225,1953,0,0
1777450674.342485,2082,0,0
1777450674.345474,2150,0,0
1777450674.348474,2164,0,0
1777450674.351618,2023,0,0
1777450674.358243,1880,0,0
1777450674.358581,2015,0,0
1777450674.3621418,2131,0,0
1777450674.364001,2151,0,0
1777450674.3677928,2117,0,0
1777450674.369502,1967,0,0
1777450674.376436,1948,0,0
1777450674.3765178,2057,0,0
1777450674.3787289,2136,0,0
1777450674.3856692,2162,0,0
1777450674.386285,2031,0,0
1777450674.388258,1927,0,0
1777450674.390935,1966,0,0
1777450674.393533,2162,0,0
1777450674.3964732,2205,0,0
1777450674.401333,2089,0,0
1777450674.40397,2000,0,0
1777450674.4063091,1922,0,0
1777450674.409647,2066,0,0
1777450674.411757,2183,0,0
1777450674.41468,2154,0,0
1777450674.417501,2054,0,0
1777450674.422436,1922,0,0
1777450674.424586,1952,0,0
1777450674.426765,2148,0,0
1777450674.429695,2177,0,0
1777450674.433645,2105,0,0
1777450674.435464,1993,0,0
1777450674.4385018,1911,0,0
1777450674.44147,2018,0,0
1777450674.448072,2160,0,0
1777450674.450063,2167,0,0
1777450674.451957,2081,0,0
1777450674.4540632,1938,0,0
1777450674.457484,1945,0,0
1777450674.4596071,2112,0,0
1777450674.462466,2174,0,0
1777450674.467346,2130,0,0
1777450674.468999,2001,0,0
1777450674.471891,1898,0,0
1777450674.475011,1965,0,0
1777450674.478626,2130,0,0
1777450674.480493,2191,0,0
1777450674.483465,2071,0,0
1777450674.486471,1909,0,0
1777450674.493026,1916,0,0
1777450674.493557,2026,0,0
1777450674.495488,2148,0,0
1777450674.4987981,2131,0,0
1777450674.502481,1997,0,0
1777450674.504537,1857,0,0
1777450674.507467,1980,0,0
1777450674.51325,2091,0,0
1777450674.514,2143,0,0
1777450674.517282,2090,0,0
1777450674.5203881,1944,0,0
1777450674.522488,1867,0,0
1777450674.525493,2070,0,0
1777450674.528469,2131,0,0
1777450674.53147,2095,0,0
1777450674.538316,2003,0,0
1777450674.539095,1919,0,0
1777450674.540555,1952,0,0
1777450674.543831,2068,0,0
1777450674.547647,2136,0,0
1777450674.549842,2078,0,0
1777450674.552588,1966,0,0
1777450674.55547,1915,0,0
1777450674.558475,2035,0,0
1777450674.564577,2142,0,0
1777450674.5661812,2146,0,0
1777450674.56779,2051,0,0
1777450674.571254,1947,0,0
1777450674.5735831,1951,0,0
1777450674.5764768,2133,0,0
1777450674.579515,2182,0,0
1777450674.58672,2121,0,0
1777450674.586869,2014,0,0
1777450674.588564,1940,0,0
1777450674.594378,2049,0,0
1777450674.594709,2140,0,0
1777450674.597655,2157,0,0
1777450674.600488,2083,0,0
1777450674.6034849,1917,0,0
1777450674.606482,1952,0,0
1777450674.613266,2079,0,0
1777450674.613421,2158,0,0
1777450674.617087,2132,0,0
1777450674.622985,2017,0,0
1777450674.6233652,1932,0,0
1777450674.625483,2020,0,0
1777450674.628119,2109,0,0
1777450674.635385,2140,0,0
1777450674.636715,2047,0,0
1777450674.6390452,1946,0,0
1777450674.640005,1920,0,0
1777450674.644904,2069,0,0
1777450674.647329,2163,0,0
1777450674.648607,2152,0,0
1777450674.651493,2045,0,0
1777450674.6544828,1916,0,0
1777450674.657587,1990,0,0
1777450674.663061,2147,0,0
1777450674.6647098,2144,0,0
1777450674.66704,2097,0,0
1777450674.670207,1984,0,0
1777450674.6726458,1919,0,0
1777450674.675483,2066,0,0
1777450674.678476,2174,0,0
1777450674.683438,2138,0,0
1777450674.687328,2047,0,0
1777450674.688149,1924,0,0
1777450674.691724,1980,0,0
1777450674.693608,2130,0,0
1777450674.69667,2148,0,0
1777450674.6994822,2079,0,0
1777450674.7024808,1968,0,0
1777450674.7107651,1897,0,0
1777450674.711199,2049,0,0
1777450674.712675,2158,0,0
1777450674.715314,2145,0,0
1777450674.718587,2033,0,0
1777450674.720843,1896,0,0
1777450674.7240052,1948,0,0
1777450674.726698,2115,0,0
1777450674.732706,2164,0,0
1777450674.735198,2115,0,0
1777450674.737967,1996,0,0
1777450674.7388968,1919,0,0
1777450674.74344,1994,0,0
1777450674.74535,2150,0,0
1777450674.748231,2144,0,0
1777450674.750783,2055,0,0
1777450674.75362,1934,0,0
1777450674.7598011,1940,0,0
1777450674.760202,2085,0,0
1777450674.7639701,2170,0,0
1777450674.765918,2126,0,0
1777450674.769086,1986,0,0
1777450674.771957,1876,0,0
1777450674.774623,1963,0,0
1777450674.7776158,2142,0,0
1777450674.7807622,2156,0,0
1777450674.7853708,2028,0,0
1777450674.7872052,1897,0,0
1777450674.790179,1906,0,0
1777450674.793969,2057,0,0
1777450674.795968,2100,0,0
1777450674.7985978,2124,0,0
1777450674.801588,2010,0,0
1777450674.804616,1860,0,0
1777450674.809862,1953,0,0
1777450674.812268,2102,0,0
1777450674.813832,2119,0,0
1777450674.8175528,2048,0,0
1777450674.819602,1926,0,0
1777450674.822633,1904,0,0
1777450674.8255858,2067,0,0
1777450674.828619,2134,0,0
1777450674.83461,2135,0,0
1777450674.835768,2011,0,0
1777450674.838799,1927,0,0
1777450674.840739,1987,0,0
1777450674.8443022,2110,0,0
1777450674.847133,2179,0,0
1777450674.849623,2117,0,0
1777450674.8526132,1970,0,0
1777450674.859982,1886,0,0
1777450674.861242,2049,0,0
1777450674.862716,2161,0,0
1777450674.865898,2128,0,0
1777450674.867708,2040,0,0
1777450674.870593,1914,0,0
1777450674.873583,1926,0,0
1777450674.87659,2111,0,0
1777450674.8817332,2177,0,0
1777450674.88527,2109,0,0
1777450674.8858922,1931,0,0
1777450674.88902,2004,0,0
1777450674.8926342,1989,0,0
1777450674.895193,2092,0,0
1777450674.897755,2151,0,0
1777450674.900631,2043,0,0
1777450674.90607,1907,0,0
1777450674.9068632,1932,0,0
1777450674.909772,2105,0,0
1777450674.91459,2182,0,0
1777450674.9166222,2082,0,0
1777450674.919002,2030,0,0
1777450674.92163,1929,0,0
1777450674.9246259,2039,0,0
1777450674.9289029,2073,0,0
1777450674.931162,2109,0,0
1777450674.934019,2049,0,0
1777450674.937578,1917,0,0
1777450674.939616,1916,0,0
1777450674.942637,2050,0,0
1777450674.945617,2116,0,0
1777450674.951713,2137,0,0
1777450674.95211,2000,0,0
1777450674.9561431,1886,0,0
1777450674.9577029,1952,0,0
1777450674.9609542,2085,0,0
1777450674.963757,2108,0,0
1777450674.9666219,2095,0,0
1777450674.9696121,1903,0,0
1777450674.974891,1933,0,0
1777450674.97718,2038,0,0
1777450674.97948,2105,0,0
1777450674.981834,2129,0,0
1777450674.985259,2046,0,0
1777450674.987817,1859,0,0
1777450674.990619,1933,0,0
1777450674.9936159,2007,0,0
1777450674.99774,2095,0,0
1777450674.999888,2186,0,0
1777450675.002809,2007,0,0
1777450675.006189,1919,0,0
1777450675.00894,2062,0,0
1777450675.011607,2154,0,0
1777450675.0146098,2187,0,0
1777450675.020154,2019,0,0
1777450675.0211751,1850,0,0
1777450675.023799,1688,0,0
1777450675.026788,1745,0,0
1777450675.030271,2089,0,0
1777450675.0328262,2358,0,0
1777450675.0358331,2102,0,0
1777450675.038653,2180,0,0
1777450675.0416682,2111,0,0
1777450675.045706,1806,0,0
1777450675.0479832,2259,0,0
1777450675.051258,2407,0,0
1777450675.054409,1997,0,0
1777450675.057225,1880,0,0
1777450675.059783,1990,0,0
1777450675.0626,1974,0,0
1777450675.068172,2027,0,0
1777450675.0694962,1869,0,0
1777450675.0726311,2048,0,0
1777450675.075587,2149,0,0
1777450675.077622,2146,0,0
1777450675.080618,2081,0,0
1777450675.083616,2030,0,0
1777450675.0866182,1911,0,0
1777450675.092093,1921,0,0
1777450675.0931,2139,0,0
1777450675.096307,2173,0,0
1777450675.1003,2097,0,0
1777450675.102144,2044,0,0
1777450675.104699,1891,0,0
1777450675.107615,1912,0,0
1777450675.114302,2053,0,0
1777450675.114403,2122,0,0
1777450675.117803,2174,0,0
1777450675.1198962,2008,0,0
1777450675.122758,1979,0,0
1777450675.1255832,2119,0,0
1777450675.128618,2195,0,0
1777450675.131586,2167,0,0
1777450675.136637,2055,0,0
1777450675.138443,1972,0,0
1777450675.141658,2034,0,0
1777450675.1444821,2214,0,0
1777450675.1470761,2191,0,0
1777450675.149636,2124,0,0
1777450675.152617,2090,0,0
1777450675.157443,2031,0,0
1777450675.159518,2081,0,0
1777450675.1621451,2207,0,0
1777450675.1653152,2138,0,0
1777450675.167872,2114,0,0
1777450675.170625,1935,0,0
1777450675.173629,1986,0,0
1777450675.179313,2054,0,0
1777450675.180595,2200,0,0
1777450675.183535,1869,0,0
1777450675.186506,2014,0,0
1777450675.189215,2053,0,0
1777450675.1917691,2143,0,0
1777450675.194587,2289,0,0
1777450675.199931,2195,0,0
1777450675.203093,2058,0,0
1777450675.2039628,1998,0,0
1777450675.207946,2000,0,0
1777450675.209812,2140,0,0
1777450675.212758,2095,0,0
1777450675.215751,1917,0,0
1777450675.2225971,1991,0,0
1777450675.223317,1905,0,0
1777450675.225878,1940,0,0
1777450675.227817,2145,0,0
1777450675.230804,2186,0,0
1777450675.2337081,2137,0,0
1777450675.2367492,1927,0,0
1777450675.239739,1955,0,0
1777450675.244305,2045,0,0
1777450675.246498,2094,0,0
1777450675.2493892,2151,0,0
1777450675.252361,2050,0,0
1777450675.2550468,1961,0,0
1777450675.2577221,2007,0,0
1777450675.2607412,2159,0,0
1777450675.266412,2179,0,0
1777450675.26706,2074,0,0
1777450675.269727,1992,0,0
1777450675.272758,1922,0,0
1777450675.2760398,1958,0,0
1777450675.278782,2096,0,0
1777450675.281742,2231,0,0
1777450675.28786,2094,0,0
1777450675.2881851,2009,0,0
1777450675.291272,2016,0,0
1777450675.2956328,2190,0,0
1777450675.297444,2204,0,0
1777450675.300002,2146,0,0
1777450675.302769,1954,0,0
1777450675.309126,1923,0,0
1777450675.311372,2045,0,0
1777450675.312741,2126,0,0
1777450675.315753,2171,0,0
1777450675.318908,2045,0,0
1777450675.320742,1955,0,0
1777450675.323715,1996,0,0
1777450675.3267531,2188,0,0
1777450675.3316102,2222,0,0
1777450675.333317,2033,0,0
1777450675.3362849,1987,0,0
1777450675.339284,2064,0,0
1777450675.3419662,2170,0,0
1777450675.3446999,2138,0,0
1777450675.347741,2225,0,0
1777450675.352502,2095,0,0
1777450675.354746,1929,0,0
1777450675.356819,2038,0,0
1777450675.360641,2097,0,0
1777450675.36342,2153,0,0
1777450675.366394,2139,0,0
1777450675.368982,2081,0,0
1777450675.3751118,1953,0,0
1777450675.375478,2029,0,0
1777450675.3787332,2185,0,0
1777450675.381799,2184,0,0
1777450675.3848581,2024,0,0
1777450675.386747,1904,0,0
1777450675.3897421,1999,0,0
1777450675.392753,2094,0,0
1777450675.3975942,2068,0,0
1777450675.400044,2065,0,0
1777450675.4030359,2087,0,0
1777450675.404785,1923,0,0
1777450675.4077382,1954,0,0
1777450675.4107058,2061,0,0
1777450675.41374,2099,0,0
1777450675.417832,2042,0,0
1777450675.419934,1923,0,0
1777450675.424067,1918,0,0
1777450675.4258518,2072,0,0
1777450675.428739,2094,0,0
1777450675.4317389,2114,0,0
1777450675.435193,2049,0,0
1777450675.439114,1929,0,0
1777450675.4425752,1956,0,0
1777450675.4441202,2083,0,0
1777450675.4470882,2103,0,0
1777450675.449745,2090,0,0
1777450675.452716,1998,0,0
1777450675.455734,1951,0,0
1777450675.459742,2090,0,0
1777450675.4619572,2128,0,0
1777450675.464946,2107,0,0
1777450675.4677372,2040,0,0
1777450675.470747,1897,0,0
1777450675.473717,1945,0,0
1777450675.476734,2090,0,0
1777450675.481427,2123,0,0
1777450675.483178,2079,0,0
1777450675.4873018,2023,0,0
1777450675.488957,1959,0,0
1777450675.4917388,2029,0,0
1777450675.494698,2116,0,0
1777450675.4977422,2132,0,0
1777450675.502518,2063,0,0
1777450675.505375,1919,0,0
1777450675.506922,1933,0,0
1777450675.51091,2089,0,0
1777450675.512735,2159,0,0
1777450675.515703,2135,0,0
1777450675.518736,1998,0,0
1777450675.5224051,1921,0,0
1777450675.525878,1991,0,0
1777450675.528455,2055,0,0
1777450675.531731,2169,0,0
1777450675.534164,2093,0,0
1777450675.5367239,1969,0,0
1777450675.543336,1970,0,0
1777450675.543995,2078,0,0
1777450675.5468092,2127,0,0
1777450675.5494459,2162,0,0
1777450675.552772,2080,0,0
1777450675.5553238,1960,0,0
1777450675.557867,1983,0,0
1777450675.563667,2048,0,0
1777450675.564955,2128,0,0
1777450675.5676212,2099,0,0
1777450675.571841,1980,0,0
1777450675.573268,1884,0,0
1777450675.575813,2014,0,0
1777450675.5787158,2137,0,0
1777450675.584471,2170,0,0
1777450675.584809,2084,0,0
1777450675.588505,1927,0,0
1777450675.592569,1959,0,0
1777450675.5942981,2062,0,0
1777450675.596952,2135,0,0
1777450675.599751,2137,0,0
1777450675.6056058,2018,0,0
1777450675.606281,1959,0,0
1777450675.6095371,2027,0,0
1777450675.611965,2123,0,0
1777450675.6148942,2117,0,0
1777450675.617704,2076,0,0
1777450675.620737,1963,0,0
1777450675.626376,1976,0,0
1777450675.6273038,2107,0,0
1777450675.630028,2130,0,0
1777450675.634321,2071,0,0
1777450675.635995,1992,0,0
1777450675.638743,1939,0,0
1777450675.641751,2057,0,0
1777450675.647326,2140,0,0
1777450675.648024,2159,0,0
1777450675.650909,2042,0,0
1777450675.654732,1974,0,0
1777450675.659791,2002,0,0
1777450675.663598,2110,0,0
1777450675.663638,2157,0,0
1777450675.669919,2095,0,0
1777450675.670953,2035,0,0
1777450675.6728709,1947,0,0
1777450675.675413,2009,0,0
1777450675.679181,2117,0,0
1777450675.6806872,2130,0,0
1777450675.68369,2058,0,0
1777450675.687354,1983,0,0
1777450675.6917892,1996,0,0
1777450675.693507,2079,0,0
1777450675.696624,2153,0,0
1777450675.699643,2119,0,0
1777450675.7022989,2040,0,0
1777450675.704847,1932,0,0
1777450675.707722,1965,0,0
1777450675.7126,2123,0,0
1777450675.714668,2176,0,0
1777450675.71874,2110,0,0
1777450675.720392,1968,0,0
1777450675.7232819,1916,0,0
1777450675.725835,2069,0,0
1777450675.728726,2153,0,0
1777450675.734113,2148,0,0
1777450675.7356632,2039,0,0
1777450675.738506,1897,0,0
1777450675.741508,1984,0,0
1777450675.7441611,2105,0,0
1777450675.74684,2168,0,0
1777450675.749745,2098,0,0
1777450675.75407,1993,0,0
1777450675.756372,1904,0,0
1777450675.759475,2057,0,0
1777450675.76217,2135,0,0
1777450675.764747,2163,0,0
1777450675.767731,2044,0,0
1777450675.7707,1937,0,0
1777450675.775954,1975,0,0
1777450675.7784479,2119,0,0
1777450675.7810318,2136,0,0
1777450675.78285,2123,0,0
1777450675.7857401,1996,0,0
1777450675.788832,1930,0,0
1777450675.791849,2057,0,0
1777450675.7963068,2116,0,0
1777450675.799305,2139,0,0
1777450675.8035042,2065,0,0
1777450675.8038661,1930,0,0
1777450675.806823,1962,0,0
1777450675.8098428,2073,0,0
1777450675.813023,2157,0,0
1777450675.816267,2113,0,0
1777450675.8201668,2000,0,0
1777450675.8240068,1939,0,0
1777450675.8257768,2053,0,0
1777450675.828335,2108,0,0
1777450675.830879,2154,0,0
1777450675.833861,2090,0,0
1777450675.837096,1953,0,0
1777450675.840848,1955,0,0
1777450675.8432682,2145,0,0
1777450675.846453,2105,0,0
1777450675.849008,2156,0,0
1777450675.851864,2051,0,0
1777450675.857289,1957,0,0
1777450675.857898,2009,0,0
1777450675.861183,2126,0,0
1777450675.865056,2142,0,0
1777450675.866863,2055,0,0
1777450675.86983,1991,0,0
1777450675.87286,1900,0,0
1777450675.8783748,2066,0,0
1777450675.878999,2145,0,0
1777450675.88319,2137,0,0
1777450675.8858821,2020,0,0
1777450675.888671,1933,0,0
1777450675.891278,1957,0,0
1777450675.893926,2096,0,0
1777450675.8992472,2120,0,0
1777450675.899946,2036,0,0
1777450675.9035861,1994,0,0
1777450675.90725,1930,0,0
1777450675.9089868,2039,0,0
1777450675.9118621,2107,0,0
1777450675.9148412,2122,0,0
1777450675.921249,2046,0,0
1777450675.92257,1891,0,0
1777450675.924099,1923,0,0
1777450675.928342,2034,0,0
1777450675.930049,2113,0,0
1777450675.932864,2110,0,0
1777450675.935827,1990,0,0
1777450675.941858,1901,0,0
1777450675.942218,1998,0,0
1777450675.9450712,2126,0,0
1777450675.948952,2154,0,0
1777450675.950855,2039,0,0
1777450675.95386,1917,0,0
1777450675.956852,1920,0,0
1777450675.961791,2102,0,0
1777450675.963524,2168,0,0
1777450675.9675012,2099,0,0
1777450675.969184,2016,0,0
1777450675.9718552,1940,0,0
1777450675.974823,2032,0,0
1777450675.977844,2140,0,0
1777450675.982916,2166,0,0
1777450675.985596,2087,0,0
1777450675.987193,1972,0,0
1777450675.98986,1924,0,0
1777450675.992842,2047,0,0
1777450675.995821,2146,0,0
1777450675.998843,2133,0,0
1777450676.003032,2037,0,0
1777450676.004899,1916,0,0
1777450676.0080562,1984,0,0
1777450676.010871,2098,0,0
1777450676.013818,2161,0,0
1777450676.016841,2095,0,0
1777450676.019819,1990,0,0
1777450676.023765,1952,0,0
1777450676.027012,2061,0,0
1777450676.0297978,2146,0,0
1777450676.033042,2132,0,0
1777450676.034841,2055,0,0
1777450676.037867,1927,0,0
1777450676.0408509,1977,0,0
1777450676.0454211,2087,0,0
1777450676.047573,2166,0,0
1777450676.051876,2090,0,0
1777450676.05374,1988,0,0
1777450676.0558279,1898,0,0
1777450676.058826,2024,0,0
1777450676.061852,2146,0,0
1777450676.0679119,2133,0,0
1777450676.068989,2063,0,0
1777450676.071869,1930,0,0
1777450676.0760791,1939,0,0
1777450676.077885,2114,0,0
1777450676.080544,2160,0,0
1777450676.082912,2122,0,0
1777450676.085831,1983,0,0
1777450676.092455,1923,0,0
1777450676.093843,2030,0,0
1777450676.097444,2132,0,0
1777450676.098995,2166,0,0
1777450676.1010718,2092,0,0
1777450676.103879,1930,0,0
1777450676.106857,1934,0,0
1777450676.1098418,2072,0,0
1777450676.115545,2165,0,0
1777450676.117152,2140,0,0
1777450676.120044,2031,0,0
1777450676.12325,1945,0,0
1777450676.125174,1970,0,0
1777450676.127895,2126,0,0
1777450676.130846,2224,0,0
1777450676.133856,2127,0,0
1777450676.1393769,1974,0,0
1777450676.140548,1935,0,0
1777450676.145039,2074,0,0
1777450676.146851,2169,0,0
1777450676.148902,2176,0,0
1777450676.151973,2076,0,0
1777450676.1548522,1951,0,0
1777450676.15786,1979,0,0
1777450676.1659148,2136,0,0
1777450676.1661088,2199,0,0
1777450676.168328,2144,0,0
1777450676.173273,1988,0,0
1777450676.17524,1967,0,0
1777450676.1758668,2095,0,0
1777450676.178859,2203,0,0
1777450676.181837,2185,0,0
1777450676.189274,2106,0,0
1777450676.1903841,1976,0,0
1777450676.191621,2001,0,0
1777450676.196568,2139,0,0
1777450676.1986198,2194,0,0
1777450676.20083,2158,0,0
1777450676.203485,2027,0,0
1777450676.209756,1942,0,0
1777450676.2109509,2030,0,0
1777450676.2123892,2190,0,0
1777450676.215938,2212,0,0
1777450676.219859,2107,0,0
1777450676.2221282,1962,0,0
1777450676.223844,1990,0,0
1777450676.226845,2153,0,0
1777450676.22985,2168,0,0
1777450676.2380521,2171,0,0
1777450676.239406,2039,0,0
1777450676.2417762,1943,0,0
1777450676.243111,2041,0,0
1777450676.2451909,2169,0,0
1777450676.249244,2189,0,0
1777450676.250848,2121,0,0
1777450676.25726,1954,0,0
1777450676.258102,1955,0,0
1777450676.260533,2073,0,0
1777450676.2644532,2176,0,0
1777450676.2676961,2166,0,0
1777450676.269793,2075,0,0
1777450676.272301,1905,0,0
1777450676.274915,1992,0,0
1777450676.277859,2131,0,0
1777450676.283919,2130,0,0
1777450676.285177,2069,0,0
1777450676.2881658,1946,0,0
1777450676.290299,1869,0,0
1777450676.29373,2008,0,0
1777450676.295842,2110,0,0
1777450676.299798,2082,0,0
1777450676.3038468,2005,0,0
1777450676.306476,1885,0,0
1777450676.308476,1934,0,0
1777450676.311559,2077,0,0
1777450676.315232,2124,0,0
1777450676.316834,2048,0,0
1777450676.31983,1989,0,0
1777450676.3235042,1906,0,0
1777450676.3298619,1992,0,0
1777450676.332038,2101,0,0
1777450676.3321579,2085,0,0
1777450676.335895,1978,0,0
1777450676.3393579,1906,0,0
1777450676.341525,1942,0,0
1777450676.3440971,2069,0,0
1777450676.3500621,2133,0,0
1777450676.35126,2082,0,0
1777450676.354229,1984,0,0
1777450676.35639,1931,0,0
1777450676.359767,1990,0,0
1777450676.361957,2164,0,0
1777450676.364952,2155,0,0
1777450676.367949,2037,0,0
1777450676.370949,1951,0,0
1777450676.375461,1921,0,0
1777450676.3781388,2073,0,0
1777450676.380785,2166,0,0
1777450676.3852422,2135,0,0
1777450676.387425,2017,0,0
1777450676.3889868,1894,0,0
1777450676.391993,2029,0,0
1777450676.394986,2179,0,0
1777450676.4010549,2161,0,0
1777450676.401935,2089,0,0
1777450676.405677,1942,0,0
1777450676.4076002,1958,0,0
1777450676.4108942,2096,0,0
1777450676.41302,2162,0,0
1777450676.4159832,2147,0,0
1777450676.418955,2012,0,0
1777450676.421961,1909,0,0
1777450676.426611,1975,0,0
1777450676.4290612,2132,0,0
1777450676.431042,2167,0,0
1777450676.4343271,2106,0,0
1777450676.43819,2000,0,0
1777450676.439952,1934,0,0
1777450676.442993,2061,0,0
1777450676.445962,2093,0,0
1777450676.453572,2092,0,0
1777450676.4552581,2057,0,0
1777450676.455453,1887,0,0
1777450676.459201,1948,0,0
1777450676.461223,2081,0,0
1777450676.465523,2108,0,0
1777450676.466967,2095,0,0
1777450676.473551,1973,0,0
1777450676.47515,1837,0,0
1777450676.4769778,1983,0,0
1777450676.479827,2192,0,0
1777450676.484939,2137,0,0
1777450676.4921632,2002,0,0
1777450676.49256,1894,0,0
1777450676.5189881,1969,0,0
1777450676.519329,2054,0,0
1777450676.519373,2110,0,0
1777450676.533138,2137,0,0
1777450676.535348,1962,0,0
1777450676.5355752,1873,0,0
1777450676.5356421,1961,0,0
1777450676.535722,2126,0,0
1777450676.5357518,2150,0,0
1777450676.535807,2061,0,0
1777450676.535882,1902,0,0
1777450676.535928,1938,0,0
1777450676.535975,2107,0,0
1777450676.536,2166,0,0
1777450676.5360441,2128,0,0
1777450676.5361059,2007,0,0
1777450676.5389729,1922,0,0
1777450676.5419729,1981,0,0
1777450676.5449688,2141,0,0
1777450676.551925,2130,0,0
1777450676.5521238,2086,0,0
1777450676.5546749,1964,0,0
1777450676.5598562,1899,0,0
1777450676.560228,2037,0,0
1777450676.5629592,2167,0,0
1777450676.565964,2155,0,0
1777450676.5713038,2047,0,0
1777450676.573993,1923,0,0
1777450676.576751,1963,0,0
1777450676.579509,2111,0,0
1777450676.5817442,2156,0,0
1777450676.583979,2082,0,0
1777450676.586972,1949,0,0
1777450676.589975,1910,0,0
1777450676.592986,2042,0,0
1777450676.601692,2155,0,0
1777450676.604042,2133,0,0
1777450676.604238,2051,0,0
1777450676.6063879,1933,0,0
1777450676.608063,1973,0,0
1777450676.6123881,2141,0,0
1777450676.6139672,2175,0,0
1777450676.621152,2105,0,0
1777450676.622829,1976,0,0
1777450676.6246028,1887,0,0
1777450676.626684,2035,0,0
1777450676.630147,2155,0,0
1777450676.632308,2159,0,0
1777450676.635416,2053,0,0
1777450676.6380658,1901,0,0
1777450676.6409652,1951,0,0
1777450676.644097,2103,0,0
1777450676.650343,2193,0,0
1777450676.652216,2125,0,0
1777450676.6540039,1973,0,0
1777450676.655991,1919,0,0
1777450676.660368,1988,0,0
1777450676.6628811,2135,0,0
1777450676.6656032,2157,0,0
1777450676.671131,2052,0,0
1777450676.672363,1919,0,0
1777450676.674509,1924,0,0
1777450676.6774862,2077,0,0
1777450676.6800058,2163,0,0
1777450676.6839921,2118,0,0
1777450676.6865659,2010,0,0
1777450676.689122,1913,0,0
1777450676.6921442,1995,0,0
1777450676.6979,2087,0,0
1777450676.698744,2130,0,0
1777450676.7019572,2066,0,0
1777450676.7054908,1942,0,0
1777450676.707306,1898,0,0
1777450676.7102048,2080,0,0
1777450676.713121,2173,0,0
1777450676.716127,2121,0,0
1777450676.722941,2033,0,0
1777450676.723618,1930,0,0
1777450676.726613,1998,0,0
1777450676.7285702,2120,0,0
1777450676.7316852,2172,0,0
1777450676.73457,2102,0,0
1777450676.7371352,1941,0,0
1777450676.740083,1886,0,0
1777450676.747096,2063,0,0
1777450676.7475488,2141,0,0
1777450676.7493188,2124,0,0
1777450676.753029,2002,0,0
1777450676.756191,1926,0,0
1777450676.7582111,1988,0,0
1777450676.76111,2105,0,0
1777450676.76411,2136,0,0
1777450676.767095,2114,0,0
1777450676.771445,1969,0,0
1777450676.773675,1936,0,0
1777450676.776764,2021,0,0
1777450676.780617,2119,0,0
1777450676.782583,2140,0,0
1777450676.785169,2041,0,0
1777450676.788091,1931,0,0
1777450676.791084,1974,0,0
1777450676.7957602,2104,0,0
1777450676.7976792,2167,0,0
1777450676.801125,2111,0,0
1777450676.804039,2000,0,0
1777450676.806109,1931,0,0
1777450676.809112,2002,0,0
1777450676.81212,2128,0,0
1777450676.818553,2122,0,0
1777450676.818945,2065,0,0
1777450676.822013,1945,0,0
1777450676.8243551,1959,0,0
1777450676.8271942,2087,0,0
1777450676.830085,2126,0,0
1777450676.834089,2089,0,0
1777450676.836562,2052,0,0
1777450676.83923,1931,0,0
1777450676.844664,1982,0,0
1777450676.8456378,2132,0,0
1777450676.8491871,2151,0,0
1777450676.85135,2057,0,0
1777450676.8544168,1933,0,0
1777450676.857407,1945,0,0
1777450676.8601432,2101,0,0
1777450676.863084,2165,0,0
1777450676.87055,2094,0,0
1777450676.871393,1995,0,0
1777450676.874937,1909,0,0
1777450676.879929,1984,0,0
1777450676.880189,2128,0,0
1777450676.8821151,2153,0,0
1777450676.8846688,2060,0,0
1777450676.889983,1953,0,0
1777450676.8907368,1935,0,0
1777450676.89413,2074,0,0
1777450676.897063,2173,0,0
1777450676.9006982,2131,0,0
1777450676.902109,2034,0,0
1777450676.9051251,1915,0,0
1777450676.908113,1971,0,0
1777450676.9143019,2108,0,0
1777450676.91502,2172,0,0
1777450676.917771,2062,0,0
1777450676.922891,1989,0,0
1777450676.923211,1918,0,0
1777450676.926114,2025,0,0
1777450676.929088,2129,0,0
1777450676.932099,2132,0,0
1777450676.9382331,2046,0,0
1777450676.938658,1901,0,0
1777450676.941772,1943,0,0
1777450676.945029,2061,0,0
1777450676.947118,2136,0,0
1777450676.950101,2085,0,0
1777450676.953105,1983,0,0
1777450676.956696,1936,0,0
1777450676.962446,2020,0,0
1777450676.963839,2129,0,0
1777450676.96573,2135,0,0
1777450676.968769,2061,0,0
1777450676.97227,1939,0,0
1777450676.974831,1957,0,0
1777450676.9773881,2100,0,0
1777450676.980095,2123,0,0
1777450676.984551,2106,0,0
1777450676.986871,2020,0,0
1777450676.9900959,1916,0,0
1777450676.9933062,2011,0,0
1777450676.9952419,2116,0,0
1777450676.998106,2161,0,0
1777450677.0011141,2081,0,0
1777450677.0048,1967,0,0
1777450677.009239,1942,0,0
1777450677.0109,2097,0,0
1777450677.013558,2135,0,0
1777450677.0170538,2103,0,0
1777450677.019802,2009,0,0
1777450677.022351,1903,0,0
1777450677.0252118,1975,0,0
1777450677.028208,2112,0,0
1777450677.031188,2149,0,0
1777450677.035699,2080,0,0
1777450677.0379038,1945,0,0
1777450677.040558,1928,0,0
1777450677.044047,2080,0,0
1777450677.047044,2172,0,0
1777450677.049609,2099,0,0
1777450677.0522282,2027,0,0
1777450677.055291,1930,0,0
1777450677.062042,1946,0,0
1777450677.062811,2103,0,0
1777450677.0644841,2139,0,0
1777450677.068924,2090,0,0
1777450677.0707068,1963,0,0
1777450677.07339,1914,0,0
1777450677.0761971,2038,0,0
1777450677.079233,2122,0,0
1777450677.0822039,2109,0,0
1777450677.087528,2065,0,0
1777450677.089254,1971,0,0
1777450677.091389,1956,0,0
1777450677.0955799,2089,0,0
1777450677.097481,2137,0,0
1777450677.1002371,2097,0,0
1777450677.1032379,1997,0,0
1777450677.1062112,1946,0,0
1777450677.109301,2015,0,0
1777450677.112809,2105,0,0
1777450677.116085,2137,0,0
1777450677.121312,2036,0,0
1777450677.12147,1945,0,0
1777450677.1242461,1977,0,0
1777450677.1281679,2093,0,0
1777450677.1307268,2165,0,0
1777450677.133287,2123,0,0
1777450677.1362188,2025,0,0
1777450677.139832,1944,0,0
1777450677.143761,2002,0,0
1777450677.145499,2140,0,0
1777450677.148375,2159,0,0
1777450677.151225,2054,0,0
1777450677.154193,1942,0,0
1777450677.157232,1938,0,0
1777450677.160227,2057,0,0
1777450677.166382,2145,0,0
1777450677.1673942,2098,0,0
1777450677.169395,2022,0,0
1777450677.1735969,1932,0,0
1777450677.175306,1994,0,0
1777450677.178219,2121,0,0
