timestamp,ch1,ch2,label
1777451252.6012402,1782,0,10
1777451252.601521,1671,0,10
1777451252.605973,2056,0,10
1777451252.612614,2347,0,10
1777451252.614982,2365,0,10
1777451252.615058,2055,0,10
1777451252.6164548,1664,0,10
1777451252.6194189,1808,0,10
1777451252.622398,2208,0,10
1777451252.6256242,2377,0,10
1777451252.6305768,2278,0,10
1777451252.634718,1815,0,10
1777451252.636084,1645,0,10
1777451252.6396239,2031,0,10
1777451252.642068,2334,0,10
1777451252.643429,2369,0,10
1777451252.646367,2120,0,10
1777451252.649343,1686,0,10
1777451252.656367,1750,0,10
1777451252.656918,2173,0,10
1777451252.65875,2407,0,10
1777451252.664132,2325,0,10
1777451252.6651468,1852,0,10
1777451252.6677802,1622,0,10
1777451252.6704252,1981,0,10
1777451252.6762502,2307,0,10
1777451252.6771631,2388,0,10
1777451252.6794891,2159,0,10
1777451252.684011,1672,0,10
1777451252.6856818,1739,0,10
1777451252.6890619,2166,0,10
1777451252.691754,2380,0,10
1777451252.6942961,2296,0,10
1777451252.697356,1954,0,10
1777451252.7092962,1640,0,10
1777451252.710788,1916,0,10
1777451252.711791,2255,0,10
1777451252.716904,2389,0,10
1777451252.7170298,2200,0,10
1777451252.71724,1716,0,10
1777451252.718573,1690,0,10
1777451252.721281,2101,0,10
1777451252.730526,2370,0,10
1777451252.737238,2329,0,10
1777451252.738889,1993,0,10
1777451252.739226,1622,0,10
1777451252.741479,1851,0,10
1777451252.741594,2220,0,10
1777451252.742225,2369,0,10
1777451252.7452319,2229,0,10
1777451252.74896,1800,0,10
1777451252.757355,1657,0,10
1777451252.758775,2045,0,10
1777451252.758902,2341,0,10
1777451252.76057,2337,0,10
1777451252.7647429,2037,0,10
1777451252.767978,1652,0,10
1777451252.769366,1784,0,10
1777451252.7722208,2151,0,10
1777451252.7769191,2357,0,10
1777451252.782494,2251,0,10
1777451252.783502,1804,0,10
1777451252.785888,1641,0,10
1777451252.789245,2001,0,10
1777451252.790665,2300,0,10
1777451252.793298,2356,0,10
1777451252.7961779,2105,0,10
1777451252.7991638,1670,0,10
1777451252.807831,1752,0,10
1777451252.808148,2145,0,10
1777451252.8082502,2370,0,10
1777451252.81197,2274,0,10
1777451252.8144362,1907,0,10
1777451252.81791,1650,0,10
1777451252.820601,1966,0,10
1777451252.8272178,2286,0,10
1777451252.828186,2363,0,10
1777451252.832155,2148,0,10
1777451252.8330848,1708,0,10
1777451252.835999,1740,0,10
1777451252.8396559,2123,0,10
1777451252.841125,2367,0,10
1777451252.844123,2296,0,10
1777451252.847127,1950,0,10
1777451252.8545868,1641,0,10
1777451252.855558,1932,0,10
1777451252.8577018,2249,0,10
1777451252.860332,2388,0,10
1777451252.863727,2188,0,10
1777451252.865461,1731,0,10
1777451252.868481,1699,0,10
1777451252.871222,2099,0,10
1777451252.8796768,2364,0,10
1777451252.880071,2330,0,10
1777451252.8803751,2006,0,10
1777451252.88428,1663,0,10
1777451252.8861709,1856,0,10
1777451252.889531,2226,0,10
1777451252.892225,2388,0,10
1777451252.894967,2235,0,10
1777451252.897962,1791,0,10
1777451252.903924,1679,0,10
1777451252.904377,2075,0,10
1777451252.908422,2335,0,10
1777451252.910235,2359,0,10
1777451252.91347,2048,0,10
1777451252.916318,1660,0,10
1777451252.918936,1818,0,10
1777451252.921908,2170,0,10
1777451252.924937,2371,0,10
1777451252.930102,2251,0,10
1777451252.93232,1843,0,10
1777451252.9343731,1649,0,10
1777451252.937856,2027,0,10
1777451252.9412339,2318,0,10
1777451252.9429219,2372,0,10
1777451252.945899,2118,0,10
1777451252.948907,1712,0,10
1777451252.9549499,1788,0,10
1777451252.955345,2147,0,10
1777451252.9588559,2380,0,10
1777451252.961146,2272,0,10
1777451252.963906,1899,0,10
1777451252.966845,1673,0,10
1777451252.969883,1977,0,10
1777451252.972847,2278,0,10
1777451252.9759092,2354,0,10
1777451252.979937,2144,0,10
1777451252.9824011,1718,0,10
1777451252.986026,1719,0,10
1777451252.9886029,2145,0,10
1777451252.9908679,2349,0,10
1777451252.993844,2321,0,10
1777451252.9968529,1986,0,10
1777451252.9998982,1669,0,10
1777451253.004246,1903,0,10
1777451253.006282,2248,0,10
1777451253.010179,2378,0,10
1777451253.013023,2252,0,10
1777451253.015198,1741,0,10
1777451253.017809,1690,0,10
1777451253.0207841,2138,0,10
1777451253.023783,2363,0,10
1777451253.030438,2329,0,10
1777451253.030533,1996,0,10
1777451253.033472,1653,0,10
1777451253.036618,1848,0,10
1777451253.040385,2254,0,10
1777451253.041777,2395,0,10
1777451253.044769,2214,0,10
1777451253.047761,1779,0,10
1777451253.054421,1687,0,10
1777451253.055253,2044,0,10
1777451253.058333,2352,0,10
1777451253.06027,2356,0,10
1777451253.063182,2083,0,10
1777451253.066174,1649,0,10
1777451253.068786,1782,0,10
1777451253.071616,2168,0,10
1777451253.080457,2394,0,10
1777451253.080943,2294,0,10
1777451253.081364,1839,0,10
1777451253.08445,1655,0,10
1777451253.087731,2010,0,10
1777451253.090962,2281,0,10
1777451253.0925949,2374,0,10
1777451253.0955908,2130,0,10
1777451253.099104,1701,0,10
1777451253.104445,1765,0,10
1777451253.1049159,2169,0,10
1777451253.10834,2381,0,10
1777451253.1118982,2341,0,10
1777451253.113596,1902,0,10
1777451253.116564,1618,0,10
1777451253.1195362,1967,0,10
1777451253.122592,2304,0,10
1777451253.12955,2369,0,10
1777451253.1303282,2185,0,10
1777451253.1333508,1746,0,10
1777451253.13522,1729,0,10
1777451253.1380281,2131,0,10
1777451253.140918,2371,0,10
1777451253.14355,2318,0,10
1777451253.146503,1970,0,10
1777451253.153653,1651,0,10
1777451253.153743,1888,0,10
1777451253.155906,2261,0,10
1777451253.158716,2390,0,10
1777451253.161904,2219,0,10
1777451253.164732,1777,0,10
1777451253.16749,1697,0,10
1777451253.170482,2128,0,10
1777451253.177237,2338,0,10
1777451253.177322,2293,0,10
1777451253.180355,2017,0,10
1777451253.183915,1654,0,10
1777451253.185555,1802,0,10
1777451253.188494,2189,0,10
1777451253.191498,2466,0,10
1777451253.1944761,2260,0,10
1777451253.2000482,1797,0,10
1777451253.201092,1653,0,10
1777451253.203889,2039,0,10
1777451253.2073028,2399,0,10
1777451253.210617,2403,0,10
1777451253.212435,2065,0,10
1777451253.215436,1651,0,10
1777451253.2184489,1761,0,10
1777451253.22449,2149,0,10
1777451253.224875,2434,0,10
1777451253.2316082,2310,0,10
1777451253.23579,1803,0,10
1777451253.236066,1610,0,10
1777451253.236459,2024,0,10
1777451253.239415,2160,0,10
1777451253.244771,2282,0,10
1777451253.246857,2219,0,10
1777451253.248588,1699,0,10
1777451253.253215,1787,0,10
1777451253.2552772,2155,0,10
1777451253.257827,2433,0,10
1777451253.260376,2330,0,10
1777451253.263409,1937,0,10
1777451253.2689989,1524,0,10
1777451253.269708,1971,0,10
1777451253.272827,2290,0,10
1777451253.275769,2369,0,10
1777451253.2794518,2170,0,10
1777451253.281234,1604,0,10
1777451253.2842581,1668,0,10
1777451253.2872279,2147,0,10
1777451253.293445,2616,0,10
1777451253.29381,2379,0,10
1777451253.297477,1948,0,10
1777451253.300239,1676,0,10
1777451253.3022249,2032,0,10
1777451253.305231,2255,0,10
1777451253.308793,2453,0,10
1777451253.311372,2248,0,10
1777451253.317217,1754,0,10
1777451253.317923,1620,0,10
1777451253.321693,2054,0,10
1777451253.324023,2400,0,10
1777451253.3277152,2362,0,10
1777451253.329207,1708,0,10
1777451253.332202,1817,0,10
1777451253.335198,1928,0,10
1777451253.34082,2338,0,10
1777451253.341161,2567,0,10
1777451253.344794,2166,0,10
1777451253.349025,1901,0,10
1777451253.3509812,1719,0,10
1777451253.353536,2060,0,10
1777451253.356174,2302,0,10
1777451253.359141,2333,0,10
1777451253.364584,2102,0,10
1777451253.3652449,1717,0,10
1777451253.369094,1845,0,10
1777451253.3724868,2191,0,10
1777451253.3743832,2387,0,10
1777451253.37715,2330,0,10
1777451253.3801432,1862,0,10
1777451253.387699,1619,0,10
1777451253.387838,2046,0,10
1777451253.3895822,2135,0,10
1777451253.392517,2366,0,10
1777451253.396123,2208,0,10
1777451253.39813,1641,0,10
1777451253.401155,1441,0,10
1777451253.40412,1878,0,10
1777451253.407116,2532,0,10
1777451253.411019,2732,0,10
1777451253.413301,1536,0,10
1777451253.4164789,1627,0,10
1777451253.4197109,1988,0,10
1777451253.42239,2435,0,10
1777451253.4250932,2592,0,10
1777451253.428061,2222,0,10
1777451253.43431,1518,0,10
1777451253.4349802,1872,0,10
1777451253.4384089,2067,0,10
1777451253.441015,2271,0,10
1777451253.442967,2352,0,10
1777451253.445943,1945,0,10
1777451253.4489532,1605,0,10
1777451253.451937,1824,0,10
1777451253.456934,2257,0,10
1777451253.459191,2334,0,10
1777451253.4612029,1825,0,10
1777451253.465751,1852,0,10
1777451253.467592,1852,0,10
1777451253.47012,1848,0,10
1777451253.4729338,1727,0,10
1777451253.475911,2558,0,10
1777451253.480574,2563,0,10
1777451253.482765,1530,0,10
1777451253.4859269,1465,0,10
1777451253.489075,2607,0,10
1777451253.491143,2668,0,10
1777451253.4938939,1758,0,10
1777451253.496854,1617,0,10
1777451253.503399,1714,0,10
1777451253.503474,2120,0,10
1777451253.506366,2630,0,10
1777451253.5096252,2265,0,10
1777451253.512928,1921,0,10
1777451253.5154839,1649,0,10
1777451253.518346,2193,0,10
1777451253.520897,2342,0,10
1777451253.5260942,1974,0,10
1777451253.52822,2069,0,10
1777451253.530219,2311,0,10
1777451253.532885,1959,0,10
1777451253.5365078,1993,0,10
1777451253.539063,2161,0,10
1777451253.541835,2415,0,10
1777451253.548518,2189,0,10
1777451253.548876,1656,0,10
1777451253.552133,1745,0,10
1777451253.553979,1965,0,10
1777451253.556971,2489,0,10
1777451253.559784,2268,0,10
1777451253.5634282,2003,0,10
1777451253.565971,1582,0,10
1777451253.5708768,1944,0,10
1777451253.5728068,2465,0,10
1777451253.5755541,2535,0,10
1777451253.579231,2179,0,10
1777451253.581008,1688,0,10
1777451253.5837839,1411,0,10
1777451253.586806,1825,0,10
1777451253.589847,2495,0,10
1777451253.593639,2414,0,10
1777451253.59673,2008,0,10
1777451253.598806,1738,0,10
1777451253.601944,1963,0,10
1777451253.604738,2355,0,10
1777451253.607763,2415,0,10
1777451253.6107259,2218,0,10
1777451253.6168709,1688,0,10
1777451253.616956,1721,0,10
1777451253.620192,2121,0,10
1777451253.622993,2307,0,10
1777451253.6268532,2341,0,10
1777451253.628581,1894,0,10
1777451253.632204,1655,0,10
1777451253.634743,1856,0,10
1777451253.639157,2179,0,10
1777451253.6425211,2426,0,10
1777451253.644473,2264,0,10
1777451253.648009,1836,0,10
1777451253.649802,1597,0,10
1777451253.652582,2058,0,10
1777451253.655555,2365,0,10
1777451253.661255,2292,0,10
1777451253.6616168,2260,0,10
1777451253.665065,1809,0,10
1777451253.668064,1791,0,10
1777451253.6718779,2188,0,10
1777451253.6735349,2427,0,10
1777451253.6765518,2329,0,10
1777451253.6795251,1829,0,10
1777451253.684064,1511,0,10
1777451253.685924,1974,0,10
1777451253.6886568,2226,0,10
1777451253.692497,2175,0,10
1777451253.6945431,2170,0,10
1777451253.697664,1974,0,10
1777451253.700503,1739,0,10
1777451253.703535,2023,0,10
1777451253.7080178,2501,0,10
1777451253.709915,2399,0,10
1777451253.712949,2017,0,10
1777451253.716435,1607,0,10
1777451253.718509,1797,0,10
1777451253.721523,2285,0,10
1777451253.724509,2378,0,10
1777451253.731253,2158,0,10
1777451253.731345,1613,0,10
1777451253.7345972,1695,0,10
1777451253.737476,2207,0,10
1777451253.73967,2294,0,10
1777451253.7424781,2335,0,10
1777451253.7454982,1923,0,10
1777451253.748457,1707,0,10
1777451253.75373,1798,0,10
1777451253.755863,2170,0,10
1777451253.757792,2087,0,10
1777451253.762419,2366,0,10
1777451253.7643,1953,0,10
1777451253.766847,1614,0,10
1777451253.7694342,2078,0,10
1777451253.7724319,2330,0,10
1777451253.776494,2376,0,10
1777451253.778775,2103,0,10
1777451253.781777,1612,0,10
1777451253.7875772,1825,0,10
1777451253.788554,2225,0,10
1777451253.791109,2244,0,10
1777451253.794137,2204,0,10
1777451253.7964811,1862,0,10
1777451253.806019,1741,0,10
1777451253.807868,1934,0,10
1777451253.80959,2333,0,10
1777451253.812264,2449,0,10
1777451253.8142562,2165,0,10
1777451253.814547,1669,0,10
1777451253.817577,1682,0,10
1777451253.8267589,2087,0,10
1777451253.826866,2383,0,10
1777451253.827693,2287,0,10
1777451253.830009,1757,0,10
1777451253.832324,1737,0,10
1777451253.8354821,2009,0,10
1777451253.838259,2299,0,10
1777451253.841244,2431,0,10
1777451253.846518,2084,0,10
1777451253.8491368,1669,0,10
1777451253.850877,1837,0,10
1777451253.853943,2051,0,10
1777451253.856265,2357,0,10
1777451253.859212,2396,0,10
1777451253.8622139,1703,0,10
1777451253.865207,1670,0,10
1777451253.871079,1885,0,10
1777451253.874007,2143,0,10
1777451253.874644,2548,0,10
1777451253.87952,2470,0,10
1777451253.881053,1828,0,10
1777451253.883609,1729,0,10
1777451253.8861902,2104,0,10
1777451253.889191,2197,0,10
1777451253.89436,2310,0,10
1777451253.8965771,2162,0,10
1777451253.898425,1651,0,10
1777451253.901458,1755,0,10
1777451253.904207,2045,0,10
1777451253.9071949,2391,0,10
1777451253.910178,2315,0,10
1777451253.913193,1859,0,10
1777451253.9161391,1587,0,10
1777451253.9201548,1991,0,10
1777451253.923705,2299,0,10
1777451253.92562,2156,0,10
1777451253.930136,2129,0,10
1777451253.932276,1780,0,10
1777451253.934164,1816,0,10
1777451253.9371688,2183,0,10
1777451253.940136,2348,0,10
1777451253.944963,2313,0,10
1777451253.946861,1898,0,10
1777451253.949953,1648,0,10
1777451253.9537091,1829,0,10
1777451253.955555,2038,0,10
1777451253.95813,2328,0,10
1777451253.961112,2359,0,10
1777451253.964161,1810,0,10
1777451253.968663,1746,0,10
1777451253.971273,2160,0,10
1777451253.973126,2426,0,10
1777451253.977133,2324,0,10
1777451253.979787,1921,0,10
1777451253.98227,1635,0,10
1777451253.985117,1883,0,10
1777451253.991717,2184,0,10
1777451253.992457,2312,0,10
1777451253.995065,2129,0,10
1777451254.000215,1715,0,10
1777451254.000306,1783,0,10
1777451254.003062,2151,0,10
1777451254.0060859,2362,0,10
1777451254.009078,2263,0,10
1777451254.0143979,1948,0,10
1777451254.0163908,1682,0,10
1777451254.018739,1893,0,10
1777451254.023545,2191,0,10
1777451254.025423,2389,0,10
1777451254.027052,2240,0,10
1777451254.030022,1764,0,10
1777451254.033041,1729,0,10
1777451254.037305,2097,0,10
1777451254.039525,2337,0,10
1777451254.042609,2292,0,10
1777451254.0466838,2042,0,10
1777451254.048539,1693,0,10
1777451254.051095,1843,0,10
1777451254.05388,2241,0,10
1777451254.056923,2401,0,10
1777451254.060381,2224,0,10
1777451254.063988,1770,0,10
1777451254.065953,1711,0,10
1777451254.069628,2095,0,10
1777451254.072373,2384,0,10
1777451254.074921,2389,0,10
1777451254.077872,2082,0,10
1777451254.083055,1689,0,10
1777451254.0852401,1791,0,10
1777451254.086981,2186,0,10
1777451254.0898838,2396,0,10
1777451254.0938802,2308,0,10
1777451254.096448,1815,0,10
1777451254.099018,1589,0,10
1777451254.1018538,2012,0,10
1777451254.1063821,2244,0,10
1777451254.108365,2433,0,10
1777451254.112704,2159,0,10
1777451254.115394,1709,0,10
1777451254.116875,1759,0,10
1777451254.119827,2120,0,10
1777451254.122831,2344,0,10
1777451254.129032,2271,0,10
1777451254.129143,1919,0,10
1777451254.132598,1618,0,10
1777451254.135849,1940,0,10
1777451254.138459,2275,0,10
1777451254.1415622,2353,0,10
1777451254.14411,2137,0,10
1777451254.146861,1738,0,10
1777451254.152871,1758,0,10
1777451254.154208,2132,0,10
1777451254.156946,2374,0,10
1777451254.158891,2315,0,10
1777451254.1626308,1906,0,10
1777451254.164753,1644,0,10
1777451254.167784,1926,0,10
1777451254.170754,2230,0,10
1777451254.176663,2414,0,10
1777451254.177032,2282,0,10
1777451254.180814,1818,0,10
1777451254.1833541,1706,0,10
1777451254.185987,2098,0,10
1777451254.1887512,2342,0,10
1777451254.191765,2395,0,10
1777451254.19473,1980,0,10
1777451254.200383,1672,0,10
1777451254.200774,1827,0,10
1777451254.203927,2220,0,10
1777451254.2092822,2354,0,10
1777451254.21088,2261,0,10
1777451254.212747,1837,0,10
1777451254.215744,1685,0,10
1777451254.2187362,2017,0,10
1777451254.225317,2310,0,10
1777451254.2254488,2367,0,10
1777451254.2286599,2086,0,10
1777451254.232376,1691,0,10
1777451254.234367,1781,0,10
1777451254.23674,2208,0,10
1777451254.2397099,2422,0,10
1777451254.242833,2252,0,10
1777451254.246928,1876,0,10
1777451254.249845,1661,0,10
1777451254.251963,2009,0,10
1777451254.2559092,2328,0,10
1777451254.2577212,2326,0,10
1777451254.2606971,2114,0,10
1777451254.2636669,1710,0,10
1777451254.269801,1726,0,10
1777451254.270147,2187,0,10
1777451254.273076,2340,0,10
1777451254.2764359,2288,0,10
1777451254.27901,1883,0,10
1777451254.281632,1677,0,10
1777451254.284544,1963,0,10
1777451254.287518,2305,0,10
1777451254.292809,2368,0,10
1777451254.294998,2193,0,10
1777451254.296663,1692,0,10
1777451254.299635,1724,0,10
1777451254.3037398,2102,0,10
1777451254.306337,2377,0,10
1777451254.308885,2308,0,10
1777451254.31158,1963,0,10
1777451254.3164868,1640,0,10
1777451254.3187358,1859,0,10
1777451254.321385,2284,0,10
1777451254.325993,2426,0,10
1777451254.327581,2207,0,10
1777451254.330143,1747,0,10
1777451254.3326988,1674,0,10
1777451254.335516,2059,0,10
1777451254.340155,2342,0,10
1777451254.342324,2338,0,10
1777451254.345056,2031,0,10
1777451254.3491578,1646,0,10
1777451254.3510232,1806,0,10
1777451254.353585,2217,0,10
1777451254.35646,2395,0,10
1777451254.362932,2261,0,10
1777451254.36356,1801,0,10
1777451254.3660958,1668,0,10
1777451254.368991,2036,0,10
1777451254.371642,2357,0,10
1777451254.374442,2380,0,10
1777451254.377425,2130,0,10
1777451254.380436,1675,0,10
1777451254.3847492,1813,0,10
1777451254.388144,2174,0,10
1777451254.391281,2418,0,10
1777451254.393781,2261,0,10
1777451254.395485,1889,0,10
1777451254.398429,1638,0,10
1777451254.4014342,1946,0,10
1777451254.406851,2295,0,10
1777451254.407726,2343,0,10
1777451254.410699,2184,0,10
1777451254.41592,1711,0,10
1777451254.417651,1744,0,10
1777451254.419368,2127,0,10
1777451254.423003,2385,0,10
1777451254.425546,2311,0,10
1777451254.4293451,1920,0,10
1777451254.431547,1645,0,10
1777451254.4345028,1904,0,10
1777451254.4383519,2232,0,10
1777451254.4403782,2371,0,10
1777451254.443381,2112,0,10
1777451254.446371,1723,0,10
1777451254.4517472,1716,0,10
1777451254.452697,2108,0,10
1777451254.4555452,2343,0,10
1777451254.460306,2303,0,10
1777451254.462075,1979,0,10
1777451254.464629,1645,0,10
1777451254.467385,1860,0,10
1777451254.47151,2221,0,10
1777451254.4738822,2353,0,10
1777451254.477182,2230,0,10
1777451254.480342,1771,0,10
1777451254.4829361,1667,0,10
1777451254.4859462,2114,0,10
1777451254.48834,2369,0,10
1777451254.4911711,2360,0,10
1777451254.496541,2067,0,10
1777451254.498689,1698,0,10
1777451254.5003,1867,0,10
1777451254.5054321,2193,0,10
1777451254.507235,2369,0,10
1777451254.509886,2263,0,10
1777451254.512427,1810,0,10
1777451254.5151339,1640,0,10
1777451254.519258,2015,0,10
1777451254.521354,2337,0,10
1777451254.5246022,2353,0,10
1777451254.528219,2102,0,10
1777451254.530145,1662,0,10
1777451254.533171,1797,0,10
1777451254.536126,2185,0,10
1777451254.541655,2371,0,10
1777451254.542641,2295,0,10
1777451254.545428,1880,0,10
1777451254.550689,1680,0,10
1777451254.552199,2009,0,10
1777451254.5540962,2300,0,10
1777451254.557096,2395,0,10
1777451254.560126,2126,0,10
1777451254.5646138,1697,0,10
1777451254.5667992,1733,0,10
1777451254.569812,2139,0,10
1777451254.573399,2349,0,10
1777451254.575208,2299,0,10
1777451254.5781,1919,0,10
1777451254.5811021,1637,0,10
1777451254.586435,1931,0,10
1777451254.587177,2285,0,10
1777451254.590451,2374,0,10
1777451254.595448,2146,0,10
1777451254.597323,1719,0,10
1777451254.5990882,1733,0,10
1777451254.6020732,2112,0,10
1777451254.605074,2332,0,10
1777451254.6098182,2306,0,10
1777451254.61135,2000,0,10
1777451254.614651,1667,0,10
1777451254.618301,1895,0,10
1777451254.62009,2233,0,10
1777451254.62306,2391,0,10
1777451254.626055,2232,0,10
1777451254.631664,1777,0,10
1777451254.632381,1679,0,10
1777451254.635458,2074,0,10
1777451254.640275,2332,0,10
1777451254.642072,2338,0,10
1777451254.644622,2030,0,10
1777451254.647181,1652,0,10
1777451254.650054,1803,0,10
1777451254.654473,2187,0,10
1777451254.657061,2360,0,10
1777451254.660018,2263,0,10
1777451254.664165,1815,0,10
1777451254.665456,1647,0,10
1777451254.668103,2026,0,10
1777451254.671005,2329,0,10
1777451254.677,2338,0,10
1777451254.677351,2113,0,10
1777451254.6802502,1685,0,10
1777451254.68509,1762,0,10
1777451254.686988,2137,0,10
1777451254.6895292,2381,0,10
1777451254.692091,2290,0,10
1777451254.698495,1883,0,10
1777451254.699481,1633,0,10
1777451254.702226,1986,0,10
1777451254.707076,2296,0,10
1777451254.707223,2345,0,10
1777451254.7101262,2145,0,10
1777451254.7129679,1707,0,10
1777451254.7159638,1735,0,10
1777451254.720429,2134,0,10
1777451254.722599,2374,0,10
1777451254.726957,2282,0,10
1777451254.729488,1907,0,10
1777451254.7309859,1627,0,10
1777451254.733948,1911,0,10
1777451254.736931,2272,0,10
1777451254.743076,2387,0,10
1777451254.7434938,2198,0,10
1777451254.746912,1702,0,10
1777451254.751776,1685,0,10
1777451254.7518551,2107,0,10
1777451254.754816,2362,0,10
1777451254.757758,2336,0,10
1777451254.761573,1983,0,10
1777451254.764879,1648,0,10
1777451254.7671528,1866,0,10
1777451254.771622,2228,0,10
1777451254.774111,2389,0,10
1777451254.7761002,2219,0,10
1777451254.778771,1773,0,10
1777451254.781769,1661,0,10
1777451254.789702,2077,0,10
1777451254.7898219,2312,0,10
1777451254.791637,2350,0,10
1777451254.796573,2052,0,10
1777451254.796813,1643,0,10
1777451254.799753,1797,0,10
1777451254.8027189,2217,0,10
1777451254.805745,2391,0,10
1777451254.810207,2256,0,10
1777451254.812427,1811,0,10
1777451254.816583,1663,0,10
1777451254.819079,2027,0,10
1777451254.820857,2314,0,10
1777451254.823723,2363,0,10
1777451254.826696,2106,0,10
1777451254.832968,1667,0,10
1777451254.833596,1770,0,10
1777451254.836801,2181,0,10
1777451254.839527,2391,0,10
1777451254.842133,2276,0,10
1777451254.8447502,1892,0,10
1777451254.847672,1627,0,10
1777451254.850702,1998,0,10
1777451254.8563972,2299,0,10
1777451254.857028,2369,0,10
1777451254.859754,2150,0,10
1777451254.86496,1688,0,10
1777451254.866412,1735,0,10
1777451254.869204,2149,0,10
1777451254.871756,2346,0,10
1777451254.8746712,2284,0,10
1777451254.87862,1919,0,10
1777451254.8817978,1658,0,10
1777451254.884851,1908,0,10
1777451254.88747,2300,0,10
1777451254.8902678,2397,0,10
1777451254.892815,2161,0,10
1777451254.895659,1729,0,10
1777451254.901056,1732,0,10
1777451254.9017699,2085,0,10
1777451254.9048471,2360,0,10
1777451254.909871,2326,0,10
1777451254.9116359,1985,0,10
1777451254.9141572,1627,0,10
1777451254.916639,1854,0,10
1777451254.919607,2293,0,10
1777451254.923668,2406,0,10
1777451254.926996,2257,0,10
1777451254.92978,1824,0,10
1777451254.9323971,1721,0,10
1777451254.934999,2095,0,10
1777451254.937622,2376,0,10
1777451254.940576,2377,0,10
1777451254.945832,2067,0,10
1777451254.947665,1652,0,10
1777451254.9497862,1748,0,10
1777451254.954518,2228,0,10
1777451254.956384,2399,0,10
1777451254.958936,2278,0,10
1777451254.96159,1810,0,10
1777451254.967944,1622,0,10
1777451254.968302,2024,0,10
1777451254.971395,2374,0,10
1777451254.9740858,2422,0,10
1777451254.9766521,2059,0,10
1777451254.979417,1708,0,10
1777451254.98245,1795,0,10
1777451254.985417,2213,0,10
1777451254.9896262,2387,0,10
1777451254.991623,2316,0,10
1777451254.9957702,1909,0,10
1777451254.998204,1648,0,10
1777451255.000886,1987,0,10
1777451255.003432,2282,0,10
1777451255.007002,2381,0,10
1777451255.0127401,2188,0,10
1777451255.0128,1749,0,10
1777451255.016844,1676,0,10
1777451255.019657,2154,0,10
1777451255.0223382,2368,0,10
1777451255.024392,2341,0,10
1777451255.027395,1975,0,10
1777451255.030379,1655,0,10
1777451255.036971,1923,0,10
1777451255.039535,2314,0,10
1777451255.040975,2354,0,10
1777451255.0474,2226,0,10
1777451255.049571,1781,0,10
1777451255.0498571,1713,0,10
1777451255.051372,2095,0,10
1777451255.057746,2392,0,10
1777451255.060666,2360,0,10
1777451255.062896,2005,0,10
1777451255.063819,1750,0,10
1777451255.06933,1775,0,10
1777451255.0696251,2230,0,10
1777451255.072736,2421,0,10
1777451255.075358,2267,0,10
1777451255.078323,1809,0,10
1777451255.087142,1675,0,10
1777451255.08729,2049,0,10
1777451255.0888178,2345,0,10
1777451255.091499,2396,0,10
1777451255.094329,2044,0,10
1777451255.0993211,1641,0,10
1777451255.099404,1851,0,10
1777451255.102308,2178,0,10
1777451255.108042,2287,0,10
1777451255.10909,2230,0,10
1777451255.1128662,1848,0,10
1777451255.1163468,1737,0,10
1777451255.119189,2011,0,10
1777451255.121464,2326,0,10
1777451255.123293,2349,0,10
1777451255.126289,2224,0,10
1777451255.129281,1799,0,10
1777451255.135555,1866,0,10
1777451255.135694,2164,0,10
1777451255.140251,2311,0,10
1777451255.1464,2273,0,10
1777451255.146741,1988,0,10
1777451255.1484532,1700,0,10
1777451255.150265,1977,0,10
1777451255.1574469,2254,0,10
1777451255.157642,2308,0,10
1777451255.159899,2151,0,10
1777451255.1638882,1322,0,10
1777451255.1653829,1765,0,10
1777451255.168407,2398,0,10
1777451255.171406,2271,0,10
1777451255.174111,2460,0,10
1777451255.177865,2133,0,10
1777451255.18491,1666,0,10
1777451255.187474,1858,0,10
1777451255.187639,2430,0,10
1777451255.1896021,2555,0,10
1777451255.1958349,2195,0,10
1777451255.196141,1678,0,10
1777451255.198379,1566,0,10
1777451255.201087,2063,0,10
1777451255.208074,2349,0,10
1777451255.2199008,2322,0,10
1777451255.2199419,2046,0,10
1777451255.219997,1645,0,10
1777451255.220026,1804,0,10
1777451255.220053,2151,0,10
1777451255.222103,2388,0,10
1777451255.225698,2232,0,10
1777451255.228523,1780,0,10
1777451255.235629,1645,0,10
1777451255.237186,2045,0,10
1777451255.2388601,2234,0,10
1777451255.241579,2447,0,10
1777451255.2462,2123,0,10
1777451255.2466161,1415,0,10
1777451255.249105,1813,0,10
1777451255.252037,2276,0,10
1777451255.258862,2236,0,10
1777451255.261288,2268,0,10
1777451255.2614882,1964,0,10
1777451255.264789,1491,0,10
1777451255.267186,1961,0,10
1777451255.270554,2244,0,10
1777451255.2730932,2368,0,10
1777451255.276012,2160,0,10
1777451255.279011,1645,0,10
1777451255.282013,1564,0,10
1777451255.290037,2229,0,10
1777451255.291904,2533,0,10
1777451255.292207,2706,0,10
1777451255.295199,1843,0,10
1777451255.30191,1663,0,10
1777451255.302331,1896,0,10
1777451255.3049521,2380,0,10
1777451255.306386,2472,0,10
1777451255.309097,2269,0,10
1777451255.315136,1809,0,10
1777451255.3177369,1743,0,10
1777451255.3203342,2063,0,10
1777451255.32164,2308,0,10
1777451255.3273118,2294,0,10
1777451255.3275461,1969,0,10
1777451255.33072,1683,0,10
1777451255.3333561,1530,0,10
1777451255.3360572,1815,0,10
1777451255.3389518,2550,0,10
1777451255.34465,2486,0,10
1777451255.3452091,1768,0,10
1777451255.349503,1455,0,10
1777451255.351525,2215,0,10
1777451255.357078,2236,0,10
1777451255.357343,2444,0,10
1777451255.360461,1842,0,10
1777451255.3630772,1755,0,10
1777451255.369749,1981,0,10
1777451255.3721979,2098,0,10
1777451255.3724349,2302,0,10
1777451255.37619,1827,0,10
1777451255.378946,2050,0,10
1777451255.3823402,1907,0,10
1777451255.384992,1970,0,10
1777451255.3876119,2272,0,10
1777451255.3902268,2323,0,10
1777451255.392807,1922,0,10
1777451255.395804,1603,0,10
1777451255.400695,1646,0,10
1777451255.4037042,2395,0,10
1777451255.406327,2508,0,10
1777451255.4077802,2356,0,10
1777451255.413258,1889,0,10
1777451255.415495,1569,0,10
1777451255.416943,1897,0,10
1777451255.41972,2282,0,10
1777451255.424722,2410,0,10
1777451255.4275122,2211,0,10
1777451255.429769,1558,0,10
1777451255.432113,1929,0,10
1777451255.436851,2196,0,10
1777451255.439413,2264,0,10
1777451255.440727,2383,0,10
1777451255.443698,2086,0,10
1777451255.446721,1678,0,10
1777451255.449686,1852,0,10
1777451255.455424,2310,0,10
1777451255.455984,2316,0,10
1777451255.4605591,2447,0,10
1777451255.462582,1728,0,10
1777451255.467391,1578,0,10
1777451255.467764,2097,0,10
1777451255.470819,2411,0,10
1777451255.473666,2393,0,10
1777451255.478676,1928,0,10
1777451255.4810529,1630,0,10
1777451255.485077,1759,0,10
1777451255.4898582,2075,0,10
1777451255.490106,2406,0,10
1777451255.492604,2283,0,10
1777451255.495219,1861,0,10
1777451255.497899,1715,0,10
1777451255.5006678,1776,0,10
1777451255.507933,2208,0,10
1777451255.509584,2736,0,10
1777451255.5110898,2267,0,10
1777451255.5129821,1636,0,10
1777451255.5176451,1741,0,10
1777451255.521218,2259,0,10
1777451255.521704,2370,0,10
1777451255.524887,2314,0,10
1777451255.5276558,1829,0,10
1777451255.534301,1913,0,10
1777451255.5353029,1973,0,10
1777451255.536912,2230,0,10
1777451255.540561,2247,0,10
1777451255.54353,2045,0,10
1777451255.546901,1823,0,10
1777451255.549355,1978,0,10
1777451255.551969,2155,0,10
1777451255.554632,2447,0,10
1777451255.557627,2393,0,10
1777451255.5606039,1816,0,10
1777451255.5669088,1727,0,10
1777451255.567418,1990,0,10
1777451255.571062,2300,0,10
1777451255.5732229,2426,0,10
1777451255.578868,2180,0,10
1777451255.579028,1635,0,10
1777451255.5815969,1726,0,10
1777451255.584474,2028,0,10
1777451255.591816,2293,0,10
1777451255.592747,2303,0,10
1777451255.5944588,1807,0,10
1777451255.597002,1437,0,10
1777451255.6011899,2110,0,10
1777451255.604867,2380,0,10
1777451255.6056068,2345,0,10
1777451255.608737,2107,0,10
1777451255.611435,1707,0,10
1777451255.6144168,1864,0,10
1777451255.617415,2121,0,10
1777451255.624267,2336,0,10
1777451255.625369,2393,0,10
1777451255.628547,2051,0,10
1777451255.6309152,1630,0,10
1777451255.6337862,1732,0,10
1777451255.637543,2200,0,10
1777451255.6401448,2029,0,10
1777451255.641548,2232,0,10
1777451255.644394,1758,0,10
1777451255.649826,1960,0,10
1777451255.651552,2141,0,10
1777451255.654953,2487,0,10
1777451255.656944,2296,0,10
1777451255.659509,2089,0,10
1777451255.6633248,1783,0,10
1777451255.665642,1948,0,10
1777451255.669625,2218,0,10
1777451255.6728902,2271,0,10
1777451255.67434,2217,0,10
1777451255.677361,1739,0,10
1777451255.683541,1607,0,10
1777451255.6841521,1878,0,10
1777451255.687534,2343,0,10
1777451255.689622,2423,0,10
1777451255.695157,2089,0,10
1777451255.6954439,1697,0,10
1777451255.6989582,1844,0,10
1777451255.701526,2148,0,10
1777451255.707277,2039,0,10
1777451255.7085671,2315,0,10
1777451255.710418,2049,0,10
1777451255.7139342,1724,0,10
1777451255.7191129,1961,0,10
1777451255.719475,2268,0,10
1777451255.7224488,2368,0,10
1777451255.725284,2135,0,10
1777451255.728329,1717,0,10
1777451255.731453,1655,0,10
1777451255.7359118,2051,0,10
1777451255.7380438,2290,0,10
1777451255.7414021,2269,0,10
1777451255.743524,1964,0,10
1777451255.746627,1725,0,10
1777451255.749751,1969,0,10
1777451255.752359,2178,0,10
1777451255.7644422,2371,0,10
1777451255.766079,2340,0,10
1777451255.769547,1858,0,10
1777451255.771761,1501,0,10
1777451255.771796,1925,0,10
1777451255.7718241,2592,0,10
1777451255.773227,2377,0,10
1777451255.776542,2007,0,10
1777451255.779144,1648,0,10
1777451255.782109,1917,0,10
1777451255.788189,2265,0,10
1777451255.796203,2366,0,10
1777451255.799445,2257,0,10
1777451255.799886,1802,0,10
1777451255.802059,1448,0,10
1777451255.802387,1830,0,10
1777451255.8036962,2380,0,10
1777451255.806386,2484,0,10
1777451255.812282,2175,0,10
1777451255.813656,1687,0,10
1777451255.815252,1881,0,10
1777451255.819299,2208,0,10
1777451255.8238149,2388,0,10
1777451255.8264818,2236,0,10
1777451255.8270988,1813,0,10
1777451255.830706,1609,0,10
1777451255.83335,2007,0,10
1777451255.836085,2237,0,10
1777451255.8470762,2317,0,10
1777451255.848394,1971,0,10
1777451255.8576598,1714,0,10
1777451255.857825,1903,0,10
1777451255.857897,2145,0,10
1777451255.857944,2329,0,10
1777451255.857992,2282,0,10
1777451255.861608,1911,0,10
1777451255.880878,1742,0,10
1777451255.887708,2050,0,10
1777451255.8878772,2336,0,10
1777451255.887946,2374,0,10
1777451255.8879979,2054,0,10
1777451255.8880472,1708,0,10
1777451255.888103,1717,0,10
1777451255.88817,2142,0,10
1777451255.888211,2447,0,10
1777451255.890097,2396,0,10
1777451255.894439,2010,0,10
1777451255.896914,1765,0,10
1777451255.909333,1996,0,10
1777451255.914977,2289,0,10
1777451255.917328,2458,0,10
1777451255.9176059,2244,0,10
1777451255.917703,1721,0,10
1777451255.9178371,1720,0,10
1777451255.9179788,2100,0,10
1777451255.920597,2339,0,10
1777451255.929442,2376,0,10
1777451255.932297,2076,0,10
1777451255.93328,1724,0,10
1777451255.933692,1907,0,10
1777451255.9390059,2238,0,10
1777451255.941491,2403,0,10
1777451255.941708,2219,0,10
1777451255.944417,1817,0,10
1777451255.947648,1720,0,10
1777451255.950464,1983,0,10
1777451255.9769769,2374,0,10
1777451255.977479,2401,0,10
1777451255.977516,2076,0,10
1777451255.977546,1676,0,10
1777451255.977576,1835,0,10
1777451255.977605,2180,0,10
1777451255.982483,2393,0,10
1777451255.983775,2306,0,10
1777451255.990955,1869,0,10
1777451255.999205,1661,0,10
1777451255.999289,2052,0,10
1777451255.999342,2345,0,10
1777451255.999392,2344,0,10
1777451255.999441,2125,0,10
1777451255.9994931,1722,0,10
1777451255.999541,1830,0,10
1777451256.000905,2193,0,10
1777451256.003805,2399,0,10
1777451256.006906,2286,0,10
1777451256.010894,1918,0,10
1777451256.0282261,1692,0,10
1777451256.030928,1991,0,10
1777451256.031623,2288,0,10
1777451256.0316951,2383,0,10
1777451256.031765,2160,0,10
1777451256.031817,1719,0,10
1777451256.031905,1755,0,10
1777451256.033758,2143,0,10
1777451256.0407,2400,0,10
1777451256.041127,2288,0,10
1777451256.042963,1953,0,10
1777451256.0472,1687,0,10
1777451256.048776,1953,0,10
1777451256.051917,2260,0,10
1777451256.054736,2403,0,10
1777451256.057755,2200,0,10
1777451256.060721,1770,0,10
1777451256.063742,1679,0,10
1777451256.068634,2151,0,10
1777451256.0719302,2364,0,10
1777451256.074383,2352,0,10
1777451256.0761971,2055,0,10
1777451256.0808342,1708,0,10
1777451256.083173,1861,0,10
1777451256.084706,2318,0,10
1777451256.091149,2424,0,10
1777451256.0924318,2271,0,10
1777451256.094072,1837,0,10
1777451256.097319,1712,0,10
1777451256.099835,2126,0,10
1777451256.1032069,2411,0,10
1777451256.106254,2424,0,10
1777451256.1088011,2127,0,10
1777451256.111695,1712,0,10
1777451256.1146922,1828,0,10
1777451256.120619,2270,0,10
1777451256.121098,2433,0,10
1777451256.1255732,2323,0,10
1777451256.1275032,1888,0,10
1777451256.132308,1686,0,10
1777451256.134774,2043,0,10
1777451256.136174,2362,0,10
1777451256.1388412,2428,0,10
1777451256.1457841,2144,0,10
1777451256.146764,1681,0,10
1777451256.151248,1802,0,10
1777451256.15136,2176,0,10
1777451256.154279,2398,0,10
1777451256.1577952,2283,0,10
1777451256.159824,1899,0,10
1777451256.1625369,1672,0,10
1777451256.1655118,1994,0,10
1777451256.168531,2293,0,10
1777451256.1751199,2382,0,10
1777451256.1752572,2165,0,10
1777451256.1791492,1732,0,10
1777451256.180943,1733,0,10
1777451256.186252,2125,0,10
1777451256.18653,2357,0,10
1777451256.189527,2307,0,10
1777451256.1924758,1961,0,10
1777451256.1973782,1680,0,10
1777451256.1998138,1891,0,10
1777451256.201775,2252,0,10
1777451256.208429,2439,0,10
1777451256.2088928,2237,0,10
1777451256.211061,1739,0,10
1777451256.213853,1689,0,10
1777451256.216469,2107,0,10
1777451256.219445,2339,0,10
1777451256.2266319,2293,0,10
1777451256.227756,2038,0,10
1777451256.2309089,1654,0,10
1777451256.2316742,1839,0,10
1777451256.237686,2208,0,10
1777451256.2380118,2393,0,10
1777451256.2410681,2239,0,10
1777451256.243637,1811,0,10
1777451256.249023,1703,0,10
1777451256.2503622,2096,0,10
1777451256.2563992,2371,0,10
1777451256.256853,2284,0,10
1777451256.261434,2038,0,10
1777451256.261823,1707,0,10
1777451256.2647731,1816,0,10
1777451256.267468,2197,0,10
1777451256.270437,2378,0,10
1777451256.273443,2222,0,10
1777451256.278806,1792,0,10
1777451256.2814221,1752,0,10
1777451256.284249,1984,0,10
1777451256.290617,2316,0,10
1777451256.2913,2372,0,10
1777451256.2934232,2101,0,10
1777451256.2947562,1711,0,10
1777451256.297428,1800,0,10
1777451256.303118,2162,0,10
1777451256.303654,2330,0,10
1777451256.307543,2302,0,10
1777451256.3110971,1919,0,10
1777451256.3144379,1640,0,10
1777451256.316857,1941,0,10
1777451256.3183959,2265,0,10
1777451256.3213801,2423,0,10
1777451256.324406,2156,0,10
1777451256.331879,1677,0,10
1777451256.332343,1754,0,10
1777451256.3354769,2156,0,10
1777451256.337408,2389,0,10
1777451256.3400981,2238,0,10
1777451256.345821,1970,0,10
1777451256.345859,1678,0,10
1777451256.34846,1925,0,10
1777451256.359694,2214,0,10
1777451256.361263,2389,0,10
1777451256.363292,2163,0,10
1777451256.365143,1804,0,10
1777451256.3704069,1684,0,10
1777451256.370632,2052,0,10
1777451256.371115,2353,0,10
1777451256.372524,2326,0,10
1777451256.3752,1976,0,10
1777451256.378191,1711,0,10
1777451256.3811798,1860,0,10
1777451256.389222,2173,0,10
1777451256.393596,2389,0,10
1777451256.401084,2238,0,10
1777451256.401176,1784,0,10
1777451256.401311,1635,0,10
1777451256.401406,2027,0,10
1777451256.402823,2352,0,10
1777451256.405561,2344,0,10
1777451256.4098618,2066,0,10
1777451256.412499,1680,0,10
1777451256.4143171,1804,0,10
1777451256.418294,2186,0,10
1777451256.421414,2426,0,10
1777451256.423892,2326,0,10
1777451256.426497,1781,0,10
1777451256.429161,1609,0,10
1777451256.432124,1968,0,10
1777451256.43776,2340,0,10
1777451256.438263,2355,0,10
1777451256.442485,2101,0,10
1777451256.444355,1674,0,10
1777451256.449159,1736,0,10
1777451256.4516459,2151,0,10
1777451256.453176,2380,0,10
1777451256.456258,2292,0,10
1777451256.4613938,1898,0,10
1777451256.463476,1640,0,10
1777451256.465468,1945,0,10
1777451256.468811,2280,0,10
1777451256.47431,2394,0,10
1777451256.474383,2178,0,10
1777451256.477099,1719,0,10
1777451256.4801128,1710,0,10
1777451256.48311,2080,0,10
1777451256.49452,2366,0,10
1777451256.496345,2291,0,10
1777451256.49844,1970,0,10
1777451256.50213,1654,0,10
1777451256.504224,1892,0,10
1777451256.504916,2227,0,10
1777451256.505207,2353,0,10
1777451256.507051,2196,0,10
1777451256.517143,1748,0,10
1777451256.5199602,1665,0,10
1777451256.522251,2064,0,10
1777451256.5224352,2313,0,10
1777451256.524522,2290,0,10
1777451256.5281322,1949,0,10
1777451256.530381,1640,0,10
1777451256.53105,1799,0,10
1777451256.5340428,2156,0,10
1777451256.537031,2337,0,10
1777451256.54005,2192,0,10
1777451256.546169,1737,0,10
1777451256.5469341,1610,0,10
1777451256.5507789,1980,0,10
1777451256.5552828,2263,0,10
1777451256.558822,2298,0,10
1777451256.559241,2043,0,10
1777451256.561766,1644,0,10
1777451256.564533,1713,0,10
1777451256.571254,2142,0,10
1777451256.572625,2323,0,10
1777451256.5741189,2243,0,10
1777451256.57626,1814,0,10
1777451256.580013,1583,0,10
1777451256.58345,1964,0,10
1777451256.585856,2291,0,10
1777451256.588754,2338,0,10
1777451256.591497,2108,0,10
1777451256.5941062,1661,0,10
1777451256.596864,1702,0,10
1777451256.6036859,2127,0,10
1777451256.60553,2350,0,10
1777451256.608038,2248,0,10
1777451256.610166,1898,0,10
1777451256.6122072,1585,0,10
1777451256.615623,1929,0,10
1777451256.618312,2237,0,10
1777451256.620953,2362,0,10
1777451256.6296792,2177,0,10
1777451256.6320949,1733,0,10
1777451256.633579,1736,0,10
1777451256.6347551,2083,0,10
1777451256.640309,2368,0,10
1777451256.640646,2323,0,10
1777451256.64289,1953,0,10
1777451256.6455722,1633,0,10
1777451256.6482172,1893,0,10
1777451256.650933,2207,0,10
1777451256.657983,2393,0,10
1777451256.6594508,2192,0,10
1777451256.661293,1782,0,10
1777451256.665791,1680,0,10
1777451256.667577,2076,0,10
1777451256.6734002,2358,0,10
1777451256.673721,2327,0,10
1777451256.6751392,2022,0,10
1777451256.677783,1661,0,10
1777451256.684169,1833,0,10
1777451256.685886,2204,0,10
1777451256.6883478,2394,0,10
1777451256.698146,2245,0,10
1777451256.6987362,1790,0,10
1777451256.702111,1686,0,10
1777451256.703041,2035,0,10
1777451256.703564,2319,0,10
1777451256.7059042,2345,0,10
1777451256.707767,2073,0,10
1777451256.710839,1680,0,10
1777451256.736219,1796,0,10
1777451256.736436,2192,0,10
1777451256.7365172,2363,0,10
1777451256.736575,2261,0,10
1777451256.736632,1846,0,10
1777451256.736819,1683,0,10
1777451256.736894,1990,0,10
1777451256.736938,2285,0,10
1777451256.738378,2350,0,10
1777451256.7410262,2093,0,10
1777451256.743979,1703,0,10
1777451256.7467651,1815,0,10
1777451256.74988,2157,0,10
1777451256.752713,2330,0,10
1777451256.7603898,2282,0,10
1777451256.762153,1934,0,10
1777451256.763496,1677,0,10
1777451256.7652988,1960,0,10
1777451256.769218,2280,0,10
1777451256.772435,2378,0,10
1777451256.7747252,2151,0,10
1777451256.777289,1737,0,10
1777451256.782969,1719,0,10
1777451256.783472,2093,0,10
1777451256.785696,2332,0,10
1777451256.789361,2357,0,10
1777451256.7940009,1952,0,10
1777451256.7961411,1632,0,10
1777451256.7976909,1867,0,10
1777451256.8007119,2235,0,10
1777451256.8036869,2395,0,10
1777451256.810156,2225,0,10
1777451256.810267,1801,0,10
1777451256.815021,1715,0,10
1777451256.816868,2039,0,10
1777451256.818827,2344,0,10
1777451256.8219788,2350,0,10
1777451256.825017,2029,0,10
1777451256.8275788,1640,0,10
1777451256.833251,1845,0,10
1777451256.8341172,2177,0,10
1777451256.8373818,2375,0,10
1777451256.8411899,2223,0,10
1777451256.8443441,1797,0,10
1777451256.8466492,1686,0,10
1777451256.848512,2045,0,10
1777451256.8515,2311,0,10
1777451256.8545358,2315,0,10
1777451256.861156,2077,0,10
1777451256.8654752,1665,0,10
1777451256.8670678,1779,0,10
1777451256.8676438,2179,0,10
1777451256.872996,2349,0,10
1777451256.87326,2226,0,10
1777451256.875582,1847,0,10
1777451256.8785112,1680,0,10
1777451256.8847518,1999,0,10
1777451256.885256,2325,0,10
1777451256.8888881,2326,0,10
1777451256.890625,2122,0,10
1777451256.895805,1688,0,10
1777451256.898051,1724,0,10
1777451256.899486,2154,0,10
1777451256.902452,2368,0,10
1777451256.905497,2309,0,10
1777451256.912073,1933,0,10
1777451256.912618,1634,0,10
1777451256.914915,1937,0,10
1777451256.917948,2276,0,10
1777451256.9227278,2371,0,10
1777451256.924822,2196,0,10
1777451256.926476,1692,0,10
1777451256.9331698,1728,0,10
1777451256.933546,2095,0,10
1777451256.935452,2313,0,10
1777451256.9390311,2390,0,10
1777451256.9431071,1897,0,10
1777451256.945086,1639,0,10
1777451256.947646,1875,0,10
1777451256.950454,2258,0,10
1777451256.9534452,2389,0,10
1777451256.958148,2194,0,10
1777451256.960723,1768,0,10
1777451256.962461,1695,0,10
1777451256.9656909,2098,0,10
1777451256.9685278,2312,0,10
1777451256.971405,2367,0,10
1777451256.974394,2032,0,10
1777451256.977412,1643,0,10
1777451256.984159,1838,0,10
1777451256.984836,2191,0,10
1777451256.9864151,2377,0,10
1777451256.989419,2269,0,10
1777451256.994175,1802,0,10
1777451256.9962182,1674,0,10
1777451256.9987772,2054,0,10
1777451257.003783,2330,0,10
1777451257.004847,2375,0,10
1777451257.0081,2090,0,10
1777451257.01125,1655,0,10
1777451257.014154,1794,0,10
1777451257.016371,2165,0,10
1777451257.019362,2402,0,10
1777451257.0223649,2313,0,10
1777451257.0254521,1878,0,10
1777451257.029526,1676,0,10
1777451257.031626,1988,0,10
1777451257.034533,2273,0,10
1777451257.0391512,2391,0,10
1777451257.041253,2138,0,10
1777451257.043811,1718,0,10
1777451257.046365,1756,0,10
1777451257.0493429,2147,0,10
1777451257.0547268,2371,0,10
1777451257.055913,2311,0,10
1777451257.0589042,1928,0,10
1777451257.062017,1658,0,10
1777451257.064805,1933,0,10
1777451257.067745,2230,0,10
1777451257.070341,2365,0,10
1777451257.0742779,2161,0,10
1777451257.076588,1714,0,10
1777451257.0797172,1631,0,10
1777451257.083775,2178,0,10
1777451257.085703,2443,0,10
1777451257.088268,2343,0,10
1777451257.09116,2021,0,10
1777451257.094193,1708,0,10
1777451257.098523,1949,0,10
1777451257.1007638,2200,0,10
1777451257.104201,2240,0,10
1777451257.1081831,2276,0,10
1777451257.110008,1911,0,10
1777451257.112544,1734,0,10
1777451257.1151412,2100,0,10
1777451257.118176,2398,0,10
1777451257.122744,2312,0,10
1777451257.12508,2152,0,10
1777451257.1279428,1634,0,10
1777451257.132392,1807,0,10
1777451257.13435,2147,0,10
1777451257.136149,2152,0,10
1777451257.139147,2282,0,10
1777451257.1421509,1816,0,10
1777451257.147049,1625,0,10
1777451257.149046,2027,0,10
1777451257.151834,2381,0,10
1777451257.15628,2319,0,10
1777451257.158158,2241,0,10
1777451257.1607091,1764,0,10
1777451257.1632771,1656,0,10
1777451257.166121,2165,0,10
1777451257.1709409,2495,0,10
1777451257.173301,2193,0,10
1777451257.175345,1920,0,10
1777451257.180711,1823,0,10
1777451257.1823711,2041,0,10
1777451257.184095,2268,0,10
1777451257.187074,2388,0,10
1777451257.190065,2100,0,10
1777451257.1952,1658,0,10
1777451257.197566,1494,0,10
1777451257.1992562,2259,0,10
1777451257.2022872,2526,0,10
1777451257.205085,2394,0,10
1777451257.2081122,1944,0,10
1777451257.211073,1640,0,10
1777451257.21404,2034,0,10
1777451257.2201002,2075,0,10
1777451257.22052,2624,0,10
1777451257.223876,2150,0,10
1777451257.227183,1355,0,10
1777451257.229942,1903,0,10
1777451257.2320561,2291,0,10
1777451257.235051,2406,0,10
1777451257.2380428,2403,0,10
1777451257.2446048,1947,0,10
1777451257.245388,1622,0,10
1777451257.247457,1530,0,10
1777451257.2506628,2470,0,10
1777451257.254818,2523,0,10
1777451257.256829,1977,0,10
1777451257.259391,1665,0,10
1777451257.262007,1788,0,10
1777451257.265019,1852,0,10
1777451257.2706099,2632,0,10
1777451257.271826,2409,0,10
1777451257.275233,1957,0,10
1777451257.2781498,1537,0,10
1777451257.282985,1963,0,10
1777451257.283115,2311,0,10
1777451257.28598,2392,0,10
1777451257.29198,2283,0,10
1777451257.2920802,1865,0,10
1777451257.3024378,1631,0,10
1777451257.304737,2087,0,10
1777451257.304789,2296,0,10
1777451257.304823,2252,0,10
1777451257.3074272,1984,0,10
1777451257.310018,1621,0,10
1777451257.312951,1668,0,10
1777451257.320516,2032,0,10
1777451257.321677,2138,0,10
1777451257.3228002,2458,0,10
1777451257.326528,1965,0,10
1777451257.3307142,1650,0,10
1777451257.332578,2174,0,10
1777451257.333945,2191,0,10
1777451257.3403609,2439,0,10
1777451257.3407922,2157,0,10
1777451257.344785,1844,0,10
1777451257.348526,1801,0,10
1777451257.351198,1979,0,10
1777451257.353333,2332,0,10
1777451257.3549068,2357,0,10
1777451257.35796,1735,0,10
1777451257.360908,1567,0,10
1777451257.367742,1911,0,10
1777451257.367834,2652,0,10
1777451257.372719,2313,0,10
1777451257.379002,2362,0,10
1777451257.379342,1941,0,10
1777451257.381283,1572,0,10
1777451257.382638,2062,0,10
1777451257.385553,2451,0,10
1777451257.3913898,2195,0,10
1777451257.392694,1747,0,10
1777451257.394596,1719,0,10
1777451257.4010382,1813,0,10
1777451257.4011679,2194,0,10
1777451257.404643,2422,0,10
1777451257.406882,2151,0,10
1777451257.409638,1789,0,10
1777451257.4122722,1589,0,10
1777451257.421275,1974,0,10
1777451257.421437,2455,0,10
1777451257.421665,2457,0,10
1777451257.4307961,1887,0,10
1777451257.431265,1675,0,10
1777451257.432938,2018,0,10
1777451257.4334579,2236,0,10
1777451257.4362218,2447,0,10
1777451257.439053,2301,0,10
1777451257.444594,1865,0,10
1777451257.445993,1613,0,10
1777451257.4495401,2069,0,10
1777451257.451873,2387,0,10
1777451257.455122,2279,0,10
1777451257.4571111,1862,0,10
1777451257.4599302,1735,0,10
1777451257.4627242,1787,0,10
1777451257.465695,1910,0,10
1777451257.474234,2561,0,10
1777451257.4760818,2420,0,10
1777451257.477265,1826,0,10
1777451257.480253,1733,0,10
1777451257.483222,2037,0,10
1777451257.485589,2309,0,10
1777451257.4869099,2399,0,10
1777451257.4897559,2155,0,10
1777451257.496811,1688,0,10
1777451257.49881,1584,0,10
1777451257.5020318,1785,0,10
1777451257.502332,2397,0,10
1777451257.505343,2513,0,10
1777451257.5083032,2006,0,10
1777451257.510856,1657,0,10
1777451257.513705,1976,0,10
1777451257.5168252,2208,0,10
1777451257.521174,2283,0,10
1777451257.523711,2264,0,10
1777451257.526043,1870,0,10
1777451257.529068,1621,0,10
1777451257.531979,1982,0,10
1777451257.5347772,2239,0,10
1777451257.5376441,2107,0,10
1777451257.542156,2027,0,10
1777451257.5446458,1897,0,10
1777451257.546986,2069,0,10
1777451257.55266,2093,0,10
1777451257.5528169,2469,0,10
1777451257.555704,2219,0,10
1777451257.558651,1808,0,10
1777451257.561611,1736,0,10
1777451257.5680158,2034,0,10
1777451257.568555,2306,0,10
1777451257.5719428,2257,0,10
1777451257.57388,1972,0,10
1777451257.5788429,1646,0,10
1777451257.581084,1709,0,10
1777451257.582623,2098,0,10
1777451257.588863,2332,0,10
1777451257.589279,2330,0,10
1777451257.593209,1875,0,10
1777451257.594759,1532,0,10
1777451257.599284,2092,0,10
1777451257.601326,2101,0,10
1777451257.6038961,2498,0,10
1777451257.606623,2151,0,10
1777451257.609594,1506,0,10
1777451257.614762,1906,0,10
1777451257.616865,2254,0,10
1777451257.6186728,2506,0,10
1777451257.6242208,2305,0,10
1777451257.6246269,1881,0,10
1777451257.627559,1576,0,10
1777451257.630558,1951,0,10
1777451257.633558,2222,0,10
1777451257.639483,2379,0,10
1777451257.6402318,2236,0,10
1777451257.643521,1865,0,10
1777451257.646613,1522,0,10
1777451257.651882,2201,0,10
1777451257.6520221,2528,0,10
1777451257.6545851,2386,0,10
1777451257.6598861,1953,0,10
1777451257.660704,1552,0,10
1777451257.663904,1894,0,10
1777451257.667068,2268,0,10
1777451257.67006,2291,0,10
1777451257.672541,2098,0,10
1777451257.675552,1526,0,10
1777451257.678588,1747,0,10
1777451257.685298,2340,0,10
1777451257.686353,2143,0,10
1777451257.68891,2333,0,10
1777451257.691068,2062,0,10
1777451257.695104,1685,0,10
1777451257.697293,1953,0,10
1777451257.699837,2223,0,10
1777451257.7025018,2335,0,10
1777451257.705502,2192,0,10
1777451257.710214,1753,0,10
1777451257.7128499,1586,0,10
1777451257.714436,1962,0,10
1777451257.717824,2379,0,10
1777451257.720638,2419,0,10
1777451257.7235498,2027,0,10
1777451257.7263901,1658,0,10
1777451257.7293499,1848,0,10
1777451257.7356548,2194,0,10
1777451257.736031,2276,0,10
1777451257.739886,2312,0,10
1777451257.7414882,1820,0,10
1777451257.745538,1639,0,10
1777451257.747537,1948,0,10
1777451257.750367,2404,0,10
1777451257.7533598,2452,0,10
1777451257.756363,2112,0,10
1777451257.7608151,1750,0,10
1777451257.764535,1787,0,10
1777451257.7664618,2155,0,10
1777451257.770665,2307,0,10
1777451257.77229,2176,0,10
1777451257.774842,1942,0,10
1777451257.777389,1713,0,10
1777451257.780341,1923,0,10
1777451257.7849972,2325,0,10
1777451257.7873569,2360,0,10
1777451257.7893639,2109,0,10
1777451257.794792,1788,0,10
1777451257.7965262,1814,0,10
1777451257.798333,2105,0,10
1777451257.8013031,2123,0,10
1777451257.804323,2123,0,10
1777451257.809655,2078,0,10
1777451257.811718,1741,0,10
1777451257.8135061,1885,0,10
1777451257.816617,2412,0,10
1777451257.819386,2402,0,10
1777451257.822586,2161,0,10
1777451257.825305,1665,0,10
1777451257.828305,1773,0,10
1777451257.8346019,2218,0,10
1777451257.835001,2319,0,10
1777451257.838494,2193,0,10
1777451257.841244,1901,0,10
1777451257.8440268,1617,0,10
1777451257.8462842,1905,0,10
1777451257.8492842,2333,0,10
1777451257.852284,2504,0,10
1777451257.858755,2227,0,10
1777451257.8591611,1790,0,10
1777451257.8622348,1794,0,10
1777451257.864275,2045,0,10
1777451257.868117,2258,0,10
1777451257.870235,2267,0,10
1777451257.873226,2143,0,10
1777451257.876255,1691,0,10
1777451257.883014,1843,0,10
1777451257.885174,2191,0,10
1777451257.8852549,2279,0,10
1777451257.888575,2254,0,10
1777451257.8927932,1900,0,10
1777451257.8947048,1699,0,10
1777451257.89727,2054,0,10
1777451257.9002361,2282,0,10
1777451257.903232,2284,0,10
1777451257.907116,2052,0,10
1777451257.909732,1507,0,10
1777451257.912653,1829,0,10
1777451257.917304,2326,0,10
1777451257.919277,2462,0,10
1777451257.9218361,2256,0,10
1777451257.924287,1870,0,10
1777451257.927218,1696,0,10
1777451257.931926,2030,0,10
1777451257.934237,2281,0,10
1777451257.93769,2357,0,10
1777451257.94159,2100,0,10
1777451257.9433742,1699,0,10
1777451257.945205,1745,0,10
1777451257.9481769,2143,0,10
1777451257.951206,2293,0,10
1777451257.956469,2303,0,10
1777451257.958516,2000,0,10
1777451257.960292,1737,0,10
1777451257.963329,2022,0,10
1777451257.966229,2283,0,10
1777451257.96915,2374,0,10
1777451257.972188,2185,0,10
1777451257.975152,1752,0,10
1777451257.980253,1729,0,10
1777451257.982121,2116,0,10
1777451257.985245,2366,0,10
1777451257.989127,2305,0,10
1777451257.9909701,1973,0,10
1777451257.993634,1674,0,10
1777451257.9961789,1900,0,10
1777451257.99915,2268,0,10
1777451258.003307,2383,0,10
1777451258.005279,2228,0,10
1777451258.008194,1787,0,10
1777451258.012256,1701,0,10
1777451258.014215,2098,0,10
1777451258.017142,2325,0,10
1777451258.019986,2358,0,10
1777451258.025759,2093,0,10
1777451258.026152,1726,0,10
1777451258.0295281,1891,0,10
1777451258.032303,2219,0,10
1777451258.0351171,2413,0,10
1777451258.038041,2278,0,10
1777451258.041012,1837,0,10
1777451258.0446222,1673,0,10
1777451258.0491269,2021,0,10
1777451258.0521111,2305,0,10
1777451258.053521,2332,0,10
1777451258.058049,2119,0,10
1777451258.059919,1720,0,10
1777451258.0625558,1806,0,10
1777451258.06511,2215,0,10
1777451258.0679832,2376,0,10
1777451258.072054,2311,0,10
1777451258.074511,1891,0,10
1777451258.077356,1668,0,10
1777451258.081561,1982,0,10
1777451258.083466,2305,0,10
1777451258.086029,2348,0,10
1777451258.088962,2183,0,10
1777451258.091966,1702,0,10
1777451258.096822,1768,0,10
1777451258.0987022,2151,0,10
1777451258.101759,2362,0,10
1777451258.1059158,2283,0,10
1777451258.108022,1879,0,10
1777451258.110605,1639,0,10
1777451258.113162,1922,0,10
1777451258.115907,2287,0,10
1777451258.120662,2389,0,10
1777451258.1230872,2168,0,10
1777451258.1252081,1720,0,10
1777451258.1307929,1724,0,10
1777451258.131055,2146,0,10
1777451258.134424,2421,0,10
1777451258.1374059,2350,0,10
1777451258.1442418,2013,0,10
1777451258.1470861,1649,0,10
1777451258.147949,1879,0,10
1777451258.150166,2267,0,10
1777451258.15518,2341,0,10
1777451258.155259,2221,0,10
1777451258.1579258,1762,0,10
1777451258.1608791,1670,0,10
1777451258.163876,2015,0,10
1777451258.170045,2293,0,10
1777451258.172728,2313,0,10
1777451258.175318,2010,0,10
1777451258.176073,1688,0,10
1777451258.1821172,1849,0,10
1777451258.182375,2263,0,10
1777451258.184893,2404,0,10
1777451258.187856,2254,0,10
1777451258.193007,1782,0,10
1777451258.197442,1657,0,10
1777451258.199015,2079,0,10
1777451258.204194,2329,0,10
1777451258.2045739,2305,0,10
1777451258.2067862,2104,0,10
1777451258.209474,1682,0,10
1777451258.21213,1792,0,10
1777451258.214829,2205,0,10
1777451258.221648,2341,0,10
1777451258.224179,2320,0,10
1777451258.224543,1886,0,10
1777451258.228603,1627,0,10
1777451258.230498,2018,0,10
1777451258.2358952,2330,0,10
1777451258.235967,2376,0,10
1777451258.238822,2090,0,10
1777451258.245603,1704,0,10
1777451258.247734,1782,0,10
1777451258.2509818,2148,0,10
1777451258.2518961,2352,0,10
1777451258.253881,2297,0,10
1777451258.2590048,1924,0,10
1777451258.260324,1618,0,10
1777451258.2630131,1914,0,10
1777451258.2657878,2318,0,10
1777451258.268821,2422,0,10
1777451258.274521,2166,0,10
1777451258.275945,1734,0,10
1777451258.278663,1712,0,10
1777451258.284427,2109,0,10
1777451258.284576,2359,0,10
1777451258.286994,2298,0,10
1777451258.289769,1979,0,10
1777451258.296157,1665,0,10
1777451258.298275,1874,0,10
1777451258.3001258,2219,0,10
1777451258.3024771,2375,0,10
1777451258.30751,2233,0,10
1777451258.307783,1753,0,10
1777451258.3108768,1693,0,10
1777451258.313759,2086,0,10
1777451258.316751,2351,0,10
1777451258.3197708,2340,0,10
1777451258.325664,2039,0,10
1777451258.327585,1664,0,10
1777451258.330204,1818,0,10
1777451258.3321679,2217,0,10
1777451258.3369548,2387,0,10
1777451258.339623,2266,0,10
1777451258.341032,1817,0,10
1777451258.343735,1666,0,10
1777451258.3498769,2056,0,10
1777451258.351905,2346,0,10
1777451258.354538,2368,0,10
1777451258.357912,2101,0,10
1777451258.361195,1678,0,10
1777451258.361614,1785,0,10
1777451258.364992,2193,0,10
1777451258.3676338,2389,0,10
1777451258.370576,2269,0,10
1777451258.3735821,1863,0,10
1777451258.380102,1627,0,10
1777451258.382307,1984,0,10
1777451258.3844101,2309,0,10
1777451258.386344,2358,0,10
1777451258.391867,2137,0,10
1777451258.392278,1681,0,10
1777451258.395412,1736,0,10
1777451258.398101,2127,0,10
1777451258.405226,2369,0,10
1777451258.4058912,2318,0,10
1777451258.407994,1941,0,10
1777451258.410323,1613,0,10
1777451258.414211,1918,0,10
1777451258.418234,2270,0,10
1777451258.418584,2366,0,10
1777451258.421673,2177,0,10
1777451258.424551,1740,0,10
1777451258.427543,1744,0,10
1777451258.430549,2133,0,10
1777451258.43696,2360,0,10
1777451258.437126,2321,0,10
1777451258.43978,2010,0,10
1777451258.4436128,1671,0,10
1777451258.446141,1879,0,10
1777451258.449712,2238,0,10
1777451258.452236,2349,0,10
1777451258.454892,2191,0,10
1777451258.462687,1752,0,10
1777451258.4637141,1695,0,10
1777451258.4653351,2070,0,10
1777451258.467626,2343,0,10
1777451258.469687,2343,0,10
1777451258.475158,2051,0,10
1777451258.475672,1670,0,10
1777451258.4789052,1837,0,10
1777451258.481526,2221,0,10
1777451258.484481,2397,0,10
1777451258.4874618,2234,0,10
1777451258.495109,1811,0,10
1777451258.4960551,1677,0,10
1777451258.497557,2050,0,10
1777451258.499733,2333,0,10
1777451258.503708,2346,0,10
1777451258.507453,2105,0,10
1777451258.509742,1691,0,10
1777451258.511499,1791,0,10
1777451258.514669,2181,0,10
1777451258.519549,2380,0,10
1777451258.5222049,2260,0,10
1777451258.5239491,1869,0,10
1777451258.528265,1652,0,10
1777451258.531596,1981,0,10
1777451258.5342798,2308,0,10
1777451258.535595,2358,0,10
1777451258.53846,2150,0,10
1777451258.541437,1716,0,10
1777451258.5444548,1749,0,10
1777451258.5497642,2170,0,10
1777451258.55266,2363,0,10
1777451258.555799,2297,0,10
1777451258.557035,1927,0,10
1777451258.5624478,1636,0,10
1777451258.562634,1961,0,10
1777451258.565876,2277,0,10
1777451258.568445,2366,0,10
1777451258.574805,2165,0,10
1777451258.575358,1730,0,10
1777451258.577427,1760,0,10
1777451258.581554,2112,0,10
1777451258.587046,2364,0,10
1777451258.5874932,2310,0,10
1777451258.589828,1977,0,10
1777451258.5924401,1684,0,10
1777451258.595398,1883,0,10
1777451258.598408,2239,0,10
1777451258.607589,2363,0,10
1777451258.609513,2198,0,10
1777451258.609786,1762,0,10
1777451258.6119401,1698,0,10
1777451258.614166,2101,0,10
1777451258.6165519,2349,0,10
1777451258.620109,2321,0,10
1777451258.622775,2031,0,10
1777451258.625563,1700,0,10
1777451258.63286,1878,0,10
1777451258.634449,2213,0,10
1777451258.636079,2340,0,10
1777451258.6379788,2242,0,10
1777451258.642349,1822,0,10
1777451258.645775,1669,0,10
1777451258.6477802,2040,0,10
1777451258.649377,2344,0,10
1777451258.652375,2310,0,10
1777451258.655346,2077,0,10
1777451258.6583638,1680,0,10
1777451258.664934,1816,0,10
1777451258.665015,2188,0,10
1777451258.66883,2359,0,10
1777451258.6707551,2257,0,10
1777451258.676516,1863,0,10
1777451258.6768599,1637,0,10
1777451258.679401,2012,0,10
1777451258.682348,2280,0,10
1777451258.689048,2362,0,10
1777451258.689815,2117,0,10
1777451258.692627,1711,0,10
1777451258.695133,1756,0,10
1777451258.699286,2138,0,10
1777451258.7049332,2357,0,10
1777451258.70579,2298,0,10
1777451258.706462,1937,0,10
1777451258.709305,1656,0,10
1777451258.7123241,1954,0,10
1777451258.715292,2294,0,10
1777451258.7216132,2373,0,10
1777451258.721654,2186,0,10
1777451258.7255008,1714,0,10
1777451258.72785,1741,0,10
1777451258.731806,2126,0,10
1777451258.735502,2365,0,10
1777451258.73808,2318,0,10
1777451258.7394612,1976,0,10
1777451258.742202,1663,0,10
1777451258.747809,1867,0,10
1777451258.7483861,2242,0,10
1777451258.752921,2373,0,10
1777451258.754575,2204,0,10
1777451258.7601979,1753,0,10
1777451258.760641,1681,0,10
1777451258.7641878,2068,0,10
1777451258.766886,2338,0,10
1777451258.7695029,2330,0,10
1777451258.772226,2024,0,10
1777451258.779552,1651,0,10
1777451258.780488,1834,0,10
1777451258.782006,2218,0,10
1777451258.785696,2389,0,10
1777451258.788636,2242,0,10
1777451258.792244,1808,0,10
1777451258.794913,1672,0,10
1777451258.7962701,2022,0,10
1777451258.799147,2335,0,10
1777451258.804941,2346,0,10
1777451258.805503,2097,0,10
1777451258.809728,1683,0,10
1777451258.811209,1734,0,10
1777451258.816575,2155,0,10
1777451258.817142,2370,0,10
1777451258.82011,2279,0,10
1777451258.8230872,1866,0,10
1777451258.826117,1625,0,10
1777451258.829074,1975,0,10
1777451258.834344,2276,0,10
1777451258.836798,2377,0,10
1777451258.838371,2142,0,10
1777451258.842172,1689,0,10
1777451258.845241,1765,0,10
1777451258.8473978,2134,0,10
1777451258.850073,2366,0,10
1777451258.856106,2303,0,10
1777451258.856547,1911,0,10
1777451258.859956,1637,0,10
1777451258.8636239,1896,0,10
1777451258.866625,2259,0,10
1777451258.8687282,2329,0,10
1777451258.8712928,2181,0,10
1777451258.874038,1718,0,10
1777451258.8770418,1724,0,10
1777451258.883234,2131,0,10
1777451258.8844512,2387,0,10
1777451258.887546,2319,0,10
1777451258.8898492,1953,0,10
1777451258.8942752,1695,0,10
1777451258.8964689,1906,0,10
1777451258.898062,2195,0,10
1777451258.9048698,2370,0,10
1777451258.9053838,2195,0,10
1777451258.90768,1729,0,10
1777451258.9110348,1725,0,10
1777451258.913135,2141,0,10
1777451258.916078,2344,0,10
1777451258.9191658,2384,0,10
1777451258.9220018,1986,0,10
1777451258.9250329,1622,0,10
1777451258.927995,1826,0,10
1777451258.933646,2283,0,10
1777451258.934952,2394,0,10
1777451258.937351,2184,0,10
1777451258.940408,1837,0,10
1777451258.9433532,1678,0,10
1777451258.9464571,2073,0,10
1777451258.9490151,2258,0,10
1777451258.95421,2392,0,10
1777451258.956696,2114,0,10
1777451258.9586759,1691,0,10
1777451258.962097,1827,0,10
1777451258.965011,2195,0,10
1777451258.967181,2177,0,10
1777451258.9699872,2251,0,10
1777451258.972959,2011,0,10
1777451258.975952,1708,0,10
1777451258.980711,1949,0,10
1777451258.983246,2268,0,10
1777451258.9861639,2288,0,10
1777451258.991562,2211,0,10
1777451258.991725,1739,0,10
1777451258.994518,1870,0,10
1777451258.997071,2123,0,10
1777451259.001583,2292,0,10
1777451259.004205,2348,0,10
1777451259.006308,1804,0,10
1777451259.009223,1688,0,10
1777451259.012137,2013,0,10
1777451259.014951,2294,0,10
1777451259.017923,2280,0,10
1777451259.0209548,1730,0,10
1777451259.024009,2064,0,10
1777451259.027764,1969,0,10
1777451259.030226,2139,0,10
1777451259.033273,2579,0,10
1777451259.037994,2450,0,10
1777451259.040103,1946,0,10
1777451259.04195,1595,0,10
1777451259.04808,2032,0,10
1777451259.048788,2388,0,10
1777451259.051282,2285,0,10
1777451259.0546691,2046,0,10
1777451259.059354,1763,0,10
1777451259.061413,1667,0,10
1777451259.062922,1931,0,10
1777451259.06592,2143,0,10
1777451259.068921,2505,0,10
1777451259.075436,2152,0,10
1777451259.0755541,1645,0,10
1777451259.079147,1801,0,10
1777451259.081053,2150,0,10
1777451259.085035,2400,0,10
1777451259.087211,2330,0,10
1777451259.089886,1921,0,10
1777451259.095177,1608,0,10
1777451259.097566,2121,0,10
1777451259.0995278,2294,0,10
1777451259.102636,2097,0,10
1777451259.10557,2198,0,10
1777451259.108327,1638,0,10
1777451259.1108968,1886,0,10
1777451259.1138718,2182,0,10
1777451259.1206741,2367,0,10
1777451259.1210911,2111,0,10
1777451259.12315,1889,0,10
1777451259.125942,1679,0,10
1777451259.130861,1729,0,10
1777451259.132907,2646,0,10
1777451259.135474,2416,0,10
1777451259.1414359,2089,0,10
1777451259.142459,1689,0,10
1777451259.145383,1818,0,10
1777451259.14835,2095,0,10
1777451259.1510332,2348,0,10
1777451259.153088,2306,0,10
1777451259.155809,1754,0,10
1777451259.158802,1483,0,10
1777451259.1649652,1869,0,10
1777451259.165653,2593,0,10
1777451259.168682,2135,0,10
1777451259.171083,2430,0,10
1777451259.174855,1819,0,10
1777451259.176796,1689,0,10
1777451259.179786,2239,0,10
1777451259.182791,2095,0,10
1777451259.188969,1960,0,10
1777451259.189687,2323,0,10
1777451259.191777,1964,0,10
1777451259.196186,1943,0,10
1777451259.1987798,1872,0,10
1777451259.200664,2511,0,10
1777451259.2036438,2407,0,10
1777451259.206648,1891,0,10
1777451259.213005,1630,0,10
1777451259.2133849,2312,0,10
1777451259.2170649,2031,0,10
1777451259.220104,2244,0,10
1777451259.2227762,2119,0,10
1777451259.224708,1809,0,10
1777451259.2276301,1876,0,10
1777451259.230627,2242,0,10
1777451259.233662,2424,0,10
1777451259.2379599,2154,0,10
1777451259.239954,1466,0,10
1777451259.243095,1613,0,10
1777451259.2472541,2222,0,10
1777451259.24886,2499,0,10
1777451259.251613,2228,0,10
1777451259.2546072,1850,0,10
1777451259.257622,1694,0,10
1777451259.261424,1982,0,10
1777451259.2636979,2118,0,10
1777451259.26685,2621,0,10
1777451259.271032,2193,0,10
1777451259.272609,2050,0,10
1777451259.2755892,1642,0,10
1777451259.2785878,2000,0,10
1777451259.285457,2334,0,10
1777451259.286228,2452,0,10
1777451259.2880352,1995,0,10
1777451259.291243,1278,0,10
1777451259.2953641,1666,0,10
1777451259.296986,2403,0,10
1777451259.2995799,2240,0,10
1777451259.302569,2086,0,10
1777451259.306149,2033,0,10
1777451259.310734,1498,0,10
1777451259.3123388,2216,0,10
1777451259.31508,2496,0,10
1777451259.319455,2361,0,10
1777451259.321358,1978,0,10
1777451259.323909,1667,0,10
1777451259.3265731,1760,0,10
1777451259.329553,2259,0,10
1777451259.334073,2311,0,10
1777451259.336011,2298,0,10
1777451259.3389812,1877,0,10
1777451259.343439,1553,0,10
1777451259.345,1854,0,10
1777451259.34755,2370,0,10
1777451259.351236,2454,0,10
1777451259.35378,2079,0,10
1777451259.357878,1760,0,10
1777451259.360182,1760,0,10
1777451259.363115,2159,0,10
1777451259.3675158,2317,0,10
1777451259.36911,2591,0,10
1777451259.371666,2096,0,10
1777451259.374519,1623,0,10
1777451259.3781152,1812,0,10
1777451259.382901,2200,0,10
1777451259.384276,2362,0,10
1777451259.387815,2330,0,10
1777451259.390212,1807,0,10
1777451259.393121,1522,0,10
1777451259.395922,1971,0,10
1777451259.398498,2421,0,10
1777451259.4014862,2355,0,10
1777451259.4077718,2030,0,10
1777451259.4081862,1619,0,10
1777451259.411819,1840,0,10
1777451259.4149199,2297,0,10
1777451259.4176629,2359,0,10
1777451259.419775,2077,0,10
1777451259.422477,1761,0,10
1777451259.425482,1621,0,10
1777451259.428502,2093,0,10
1777451259.432937,2541,0,10
1777451259.435196,2377,0,10
1777451259.438695,2148,0,10
1777451259.4426172,1720,0,10
1777451259.444565,1786,0,10
1777451259.4471328,2127,0,10
1777451259.449701,2436,0,10
1777451259.4524531,2157,0,10
1777451259.457431,1728,0,10
1777451259.4598489,1532,0,10
1777451259.461704,2188,0,10
1777451259.464791,2253,0,10
1777451259.4675012,2327,0,10
1777451259.47045,2078,0,10
1777451259.473498,1757,0,10
1777451259.480028,1764,0,10
1777451259.4802828,2120,0,10
1777451259.482762,2344,0,10
1777451259.487707,2256,0,10
1777451259.490026,1984,0,10
1777451259.491445,1451,0,10
1777451259.4944398,1954,0,10
1777451259.497441,2384,0,10
1777451259.5005288,2407,0,10
1777451259.503482,2215,0,10
1777451259.506412,1721,0,10
1777451259.5094268,1569,0,10
1777451259.5124118,2014,0,10
1777451259.519828,2293,0,10
1777451259.5224278,2207,0,10
1777451259.522581,2022,0,10
1777451259.530934,1750,0,10
1777451259.530976,1658,0,10
1777451259.5310369,2100,0,10
1777451259.533846,2497,0,10
1777451259.5364459,2132,0,10
1777451259.543759,1826,0,10
1777451259.5460758,1522,0,10
1777451259.548506,1848,0,10
1777451259.550048,2428,0,10
1777451259.5519202,2352,0,10
1777451259.5637069,2036,0,10
1777451259.56406,1665,0,10
1777451259.5661561,1788,0,10
1777451259.566643,2222,0,10
1777451259.566695,2375,0,10
1777451259.569411,2235,0,10
1777451259.572416,1839,0,10
1777451259.575392,1579,0,10
1777451259.5784168,1846,0,10
1777451259.589747,2280,0,10
1777451259.5982442,2453,0,10
1777451259.598426,2178,0,10
1777451259.59846,1589,0,10
1777451259.5985558,1677,0,10
1777451259.59869,2271,0,10
1777451259.600447,2175,0,10
1777451259.602428,2352,0,10
1777451259.6110709,2125,0,10
1777451259.6113448,1682,0,10
1777451259.6131961,1964,0,10
1777451259.614772,2294,0,10
1777451259.619699,2369,0,10
1777451259.6214678,2213,0,10
1777451259.62332,1712,0,10
1777451259.6263528,1509,0,10
1777451259.629311,2347,0,10
1777451259.635384,2164,0,10
1777451259.636136,2307,0,10
1777451259.639141,2053,0,10
1777451259.6420422,1739,0,10
1777451259.6449,1973,0,10
1777451259.647807,2205,0,10
1777451259.6505191,2255,0,10
1777451259.653339,2192,0,10
1777451259.6597152,1790,0,10
1777451259.659786,1846,0,10
1777451259.6625988,1994,0,10
1777451259.6676748,2328,0,10
1777451259.670528,2340,0,10
1777451259.6724658,2003,0,10
1777451259.674818,1834,0,10
1777451259.680884,1982,0,10
1777451259.680968,2149,0,10
1777451259.684176,2234,0,10
1777451259.686452,2157,0,10
1777451259.690541,1757,0,10
1777451259.692249,1686,0,10
1777451259.6951869,2064,0,10
1777451259.6981518,2384,0,10
1777451259.701751,2340,0,10
1777451259.706157,2171,0,10
1777451259.7085571,1735,0,10
1777451259.710876,1765,0,10
1777451259.7164211,1947,0,10
1777451259.71668,2476,0,10
1777451259.719486,2310,0,10
1777451259.722256,1764,0,10
1777451259.726799,1769,0,10
1777451259.728786,1927,0,10
1777451259.731829,2266,0,10
1777451259.736475,2367,0,10
1777451259.738539,2281,0,10
1777451259.740109,1595,0,10
1777451259.7431328,1762,0,10
1777451259.746114,2270,0,10
1777451259.751154,2452,0,10
1777451259.7536829,2263,0,10
1777451259.755213,1806,0,10
1777451259.7585988,1565,0,10
1777451259.761407,2067,0,10
1777451259.764402,2284,0,10
1777451259.7671108,2320,0,10
1777451259.772185,2167,0,10
1777451259.774264,1698,0,10
1777451259.776174,1724,0,10
1777451259.779119,1979,0,10
1777451259.7821581,2376,0,10
1777451259.785078,2414,0,10
1777451259.7881012,1900,0,10
1777451259.791081,1663,0,10
1777451259.796454,1929,0,10
1777451259.797577,2284,0,10
1777451259.801065,2372,0,10
1777451259.8041909,2123,0,10
1777451259.806946,1644,0,10
1777451259.809097,1712,0,10
1777451259.812088,2080,0,10
1777451259.817058,2381,0,10
1777451259.819496,2297,0,10
1777451259.821686,2042,0,10
1777451259.8245702,1739,0,10
1777451259.8274019,1910,0,10
1777451259.8302348,2197,0,10
1777451259.833057,2441,0,10
1777451259.836044,2270,0,10
1777451259.842527,1768,0,10
1777451259.843461,1662,0,10
1777451259.845284,2062,0,10
1777451259.848883,2309,0,10
1777451259.8528771,2301,0,10
1777451259.854862,2051,0,10
1777451259.857419,1690,0,10
1777451259.863271,1791,0,10
1777451259.863362,2209,0,10
1777451259.8664079,2315,0,10
1777451259.869799,2203,0,10
1777451259.87254,1836,0,10
1777451259.875273,1683,0,10
1777451259.8780138,2031,0,10
1777451259.881011,2337,0,10
1777451259.8874712,2358,0,10
1777451259.888602,2074,0,10
1777451259.8900979,1694,0,10
1777451259.893458,1790,0,10
1777451259.897546,2143,0,10
1777451259.899484,2332,0,10
1777451259.9020329,2271,0,10
1777451259.905001,1906,0,10
1777451259.9080262,1709,0,10
1777451259.912979,2016,0,10
1777451259.915358,2323,0,10
1777451259.917465,2408,0,10
1777451259.920149,2190,0,10
1777451259.923079,1786,0,10
1777451259.925983,1811,0,10
1777451259.92901,2205,0,10
1777451259.933326,2432,0,10
1777451259.9356291,2314,0,10
1777451259.938632,1905,0,10
1777451259.942893,1704,0,10
1777451259.9445078,2084,0,10
1777451259.947066,2376,0,10
1777451259.949973,2464,0,10
1777451259.952964,2234,0,10
1777451259.95824,1793,0,10
1777451259.960526,1809,0,10
1777451259.9629261,2085,0,10
1777451259.9654431,2421,0,10
1777451259.968155,2381,0,10
1777451259.970942,2019,0,10
1777451259.973943,1672,0,10
1777451259.9769511,1931,0,10
1777451259.9832299,2279,0,10
1777451259.984591,2428,0,10
1777451259.98636,2249,0,10
1777451259.9918232,1755,0,10
1777451259.9919848,1675,0,10
1777451259.994936,2078,0,10
1777451259.9979641,2224,0,10
1777451260.000928,2292,0,10
1777451260.005847,2096,0,10
1777451260.008064,1678,0,10
1777451260.011124,1831,0,10
1777451260.015201,2234,0,10
1777451260.0170739,2384,0,10
1777451260.018948,2257,0,10
1777451260.0219362,1786,0,10
1777451260.02494,1663,0,10
1777451260.0286038,2033,0,10
1777451260.031135,2304,0,10
1777451260.0341692,2346,0,10
1777451260.038224,2068,0,10
1777451260.040021,1705,0,10
1777451260.042922,1825,0,10
1777451260.045908,2185,0,10
1777451260.052165,2339,0,10
1777451260.0522408,2232,0,10
1777451260.055982,1881,0,10
1777451260.058631,1724,0,10
1777451260.061237,2001,0,10
1777451260.064001,2298,0,10
1777451260.066901,2385,0,10
1777451260.069867,2148,0,10
1777451260.076548,1714,0,10
1777451260.077618,1744,0,10
1777451260.0794299,2168,0,10
1777451260.084896,2381,0,10
1777451260.085084,2282,0,10
1777451260.087857,1892,0,10
1777451260.090879,1659,0,10
1777451260.093847,1953,0,10
1777451260.098588,2307,0,10
1777451260.1007302,2402,0,10
1777451260.103443,2164,0,10
1777451260.1078699,1694,0,10
1777451260.1097112,1716,0,10
1777451260.11227,2106,0,10
1777451260.1148171,2323,0,10
1777451260.1177359,2336,0,10
1777451260.1217349,1975,0,10
1777451260.1239018,1666,0,10
1777451260.1272461,1916,0,10
1777451260.131163,2285,0,10
1777451260.1329842,2397,0,10
1777451260.135741,2222,0,10
1777451260.138698,1780,0,10
1777451260.144586,1698,0,10
1777451260.144983,2088,0,10
1777451260.1490119,2338,0,10
1777451260.1507342,2320,0,10
1777451260.154473,2027,0,10
1777451260.157232,1644,0,10
1777451260.1598132,1853,0,10
1777451260.162753,2196,0,10
1777451260.169566,2391,0,10
1777451260.1702669,2240,0,10
1777451260.1732988,1796,0,10
1777451260.178546,1697,0,10
1777451260.178848,2055,0,10
1777451260.1806898,2308,0,10
1777451260.1836958,2360,0,10
1777451260.186687,2093,0,10
1777451260.192943,1691,0,10
1777451260.193345,1792,0,10
1777451260.196617,2207,0,10
1777451260.202101,2426,0,10
1777451260.202222,2211,0,10
1777451260.204972,1858,0,10
1777451260.2077,1676,0,10
1777451260.210666,1991,0,10
1777451260.216029,2300,0,10
1777451260.216736,2352,0,10
1777451260.219978,2105,0,10
1777451260.225301,1723,0,10
1777451260.226932,1753,0,10
1777451260.2286239,2149,0,10
1777451260.2316532,2385,0,10
1777451260.2346492,2315,0,10
1777451260.238903,1913,0,10
1777451260.241397,1671,0,10
1777451260.244114,1953,0,10
1777451260.248458,2272,0,10
1777451260.250015,2358,0,10
1777451260.252643,2162,0,10
1777451260.2556212,1722,0,10
1777451260.2586398,1733,0,10
1777451260.265482,2090,0,10
1777451260.265588,2316,0,10
1777451260.268364,2237,0,10
1777451260.2726872,1926,0,10
1777451260.274216,1669,0,10
1777451260.27677,1888,0,10
1777451260.279594,2210,0,10
1777451260.2826262,2337,0,10
1777451260.2863748,2177,0,10
1777451260.288693,1737,0,10
1777451260.293252,1679,0,10
1777451260.295918,2074,0,10
1777451260.2978728,2321,0,10
1777451260.3006458,2283,0,10
1777451260.303585,1990,0,10
1777451260.3066082,1644,0,10
1777451260.31073,1830,0,10
1777451260.312715,2202,0,10
1777451260.3157618,2354,0,10
1777451260.319964,2202,0,10
1777451260.3217878,1827,0,10
1777451260.324587,1671,0,10
1777451260.3275661,2030,0,10
1777451260.330582,2303,0,10
1777451260.335286,2342,0,10
1777451260.33673,2074,0,10
1777451260.33971,1690,0,10
1777451260.3437529,1812,0,10
1777451260.34559,2175,0,10
1777451260.348566,2375,0,10
1777451260.3515332,2221,0,10
1777451260.357358,1839,0,10
1777451260.358352,1666,0,10
1777451260.361398,1969,0,10
1777451260.3644822,2293,0,10
1777451260.367106,2344,0,10
1777451260.3698728,2073,0,10
1777451260.372551,1704,0,10
1777451260.376114,1808,0,10
1777451260.381697,2172,0,10
1777451260.382088,2357,0,10
1777451260.384794,2303,0,10
1777451260.3901582,1908,0,10
1777451260.390663,1651,0,10
1777451260.39341,1970,0,10
1777451260.396387,2261,0,10
1777451260.399383,2366,0,10
1777451260.4053178,2145,0,10
1777451260.405439,1735,0,10
1777451260.408389,1716,0,10
1777451260.4113998,2151,0,10
1777451260.41581,2357,0,10
1777451260.417387,2312,0,10
1777451260.4203908,1950,0,10
1777451260.423358,1638,0,10
1777451260.4285471,1916,0,10
1777451260.430096,2241,0,10
1777451260.433195,2361,0,10
1777451260.437412,2190,0,10
1777451260.4392362,1736,0,10
1777451260.4418108,1709,0,10
1777451260.4443572,2112,0,10
1777451260.447372,2335,0,10
1777451260.451082,2294,0,10
1777451260.455025,2019,0,10
1777451260.458037,1679,0,10
1777451260.4607759,1891,0,10
1777451260.4626849,2213,0,10
1777451260.465357,2363,0,10
1777451260.468369,2239,0,10
1777451260.4713311,1784,0,10
1777451260.4752588,1664,0,10
1777451260.477519,2051,0,10
1777451260.480412,2341,0,10
1777451260.484458,2320,0,10
1777451260.4863732,2050,0,10
1777451260.4893188,1690,0,10
1777451260.49231,1808,0,10
1777451260.49893,2205,0,10
1777451260.499403,2403,0,10
1777451260.502133,2267,0,10
1777451260.505476,1830,0,10
1777451260.508161,1624,0,10
1777451260.510855,2028,0,10
1777451260.513408,2357,0,10
1777451260.5162828,2368,0,10
1777451260.522089,2104,0,10
1777451260.522712,1697,0,10
1777451260.525881,1787,0,10
1777451260.528726,2164,0,10
1777451260.531358,2379,0,10
1777451260.534281,2295,0,10
1777451260.53793,1891,0,10
1777451260.5404742,1645,0,10
1777451260.545689,1962,0,10
1777451260.5463622,2275,0,10
1777451260.549536,2373,0,10
1777451260.554663,2164,0,10
1777451260.556641,1728,0,10
1777451260.5582669,1732,0,10
1777451260.561249,2129,0,10
1777451260.564283,2362,0,10
1777451260.568873,2321,0,10
1777451260.570841,1958,0,10
1777451260.574028,1645,0,10
1777451260.577833,1898,0,10
1777451260.579781,2256,0,10
1777451260.582349,2401,0,10
1777451260.5852642,2212,0,10
1777451260.588247,1756,0,10
1777451260.592465,1706,0,10
1777451260.5956612,2078,0,10
1777451260.597352,2329,0,10
1777451260.6010618,2309,0,10
1777451260.603819,2001,0,10
1777451260.606364,1650,0,10
1777451260.6092532,1837,0,10
1777451260.6142578,2188,0,10
1777451260.615614,2328,0,10
1777451260.618921,2178,0,10
1777451260.623602,1753,0,10
1777451260.6255941,1702,0,10
1777451260.627253,2033,0,10
1777451260.630211,2283,0,10
1777451260.6332211,2281,0,10
1777451260.637625,2056,0,10
1777451260.639717,1656,0,10
1777451260.6423721,1774,0,10
1777451260.64658,2175,0,10
1777451260.6485481,2356,0,10
1777451260.651201,2216,0,10
1777451260.654197,1815,0,10
1777451260.6600971,1652,0,10
1777451260.66083,2020,0,10
1777451260.664329,2288,0,10
1777451260.6672692,2339,0,10
1777451260.669843,2109,0,10
1777451260.6724339,1702,0,10
1777451260.675203,1779,0,10
1777451260.678198,2139,0,10
1777451260.683237,2353,0,10
1777451260.685612,2277,0,10
1777451260.6872928,1904,0,10
1777451260.6926239,1628,0,10
1777451260.694619,1981,0,10
1777451260.69607,2293,0,10
1777451260.699038,2355,0,10
1777451260.702073,2161,0,10
1777451260.7077,1670,0,10
1777451260.710232,1729,0,10
1777451260.712725,2190,0,10
1777451260.7153962,2383,0,10
1777451260.718234,2308,0,10
1777451260.7202728,1919,0,10
1777451260.7230458,1631,0,10
1777451260.728446,1941,0,10
1777451260.7303429,2265,0,10
1777451260.732507,2357,0,10
1777451260.7381482,2172,0,10
1777451260.738631,1678,0,10
1777451260.741878,1661,0,10
1777451260.7442582,2094,0,10
1777451260.7470238,2351,0,10
1777451260.754946,2335,0,10
1777451260.7579489,2027,0,10
1777451260.759205,1647,0,10
1777451260.760482,1866,0,10
1777451260.762298,2223,0,10
1777451260.765398,2356,0,10
1777451260.7682822,2262,0,10
1777451260.77125,1786,0,10
1777451260.775857,1613,0,10
1777451260.77783,1987,0,10
1777451260.780544,2300,0,10
1777451260.787662,2386,0,10
1777451260.7883232,2121,0,10
1777451260.7889879,1783,0,10
1777451260.791984,1790,0,10
1777451260.794973,2190,0,10
1777451260.798002,2300,0,10
1777451260.802081,2320,0,10
1777451260.804586,1852,0,10
1777451260.808052,1634,0,10
1777451260.812862,1990,0,10
1777451260.813264,2220,0,10
1777451260.816166,2362,0,10
1777451260.81899,2188,0,10
1777451260.8246222,1743,0,10
1777451260.8263838,1738,0,10
1777451260.8286479,2133,0,10
1777451260.831576,2331,0,10
1777451260.834236,2313,0,10
1777451260.837163,1777,0,10
1777451260.839971,1416,0,10
1777451260.842947,1942,0,10
1777451260.850015,2424,0,10
1777451260.850508,2472,0,10
1777451260.852787,2118,0,10
1777451260.8562088,1676,0,10
1777451260.860616,1827,0,10
1777451260.861022,2229,0,10
1777451260.8639202,2320,0,10
1777451260.8669262,2053,0,10
1777451260.8713448,1807,0,10
1777451260.873537,1929,0,10
1777451260.8765042,1992,0,10
1777451260.880878,2175,0,10
1777451260.882936,2388,0,10
1777451260.8855722,2273,0,10
1777451260.8881311,1626,0,10
1777451260.890947,1882,0,10
1777451260.895849,2203,0,10
1777451260.898148,2295,0,10
1777451260.900053,2249,0,10
1777451260.903185,1838,0,10
1777451260.906037,1564,0,10
1777451260.908931,1900,0,10
1777451260.911924,2284,0,10
1777451260.914935,2385,0,10
1777451260.92034,2345,0,10
1777451260.921037,1853,0,10
1777451260.924076,1551,0,10
1777451260.927386,2069,0,10
1777451260.9300559,2453,0,10
1777451260.933169,2379,0,10
1777451260.935909,1954,0,10
1777451260.9389088,1594,0,10
1777451260.9449039,1849,0,10
1777451260.945295,2192,0,10
1777451260.948717,2285,0,10
1777451260.95166,1845,0,10
1777451260.954408,2094,0,10
1777451260.9570072,1863,0,10
1777451260.9598641,2132,0,10
1777451260.9627361,2458,0,10
1777451260.969377,2406,0,10
1777451260.9698591,1885,0,10
1777451260.972929,1740,0,10
1777451260.9759722,2123,0,10
1777451260.978705,2261,0,10
1777451260.981581,2380,0,10
1777451260.984173,2232,0,10
1777451260.986731,1865,0,10
1777451260.993645,1720,0,10
1777451260.994381,2043,0,10
1777451260.995782,2259,0,10
1777451260.998899,2394,0,10
1777451261.003062,2136,0,10
1777451261.005045,1667,0,10
1777451261.007735,1534,0,10
1777451261.01074,2077,0,10
1777451261.013728,2183,0,10
1777451261.017712,2634,0,10
1777451261.021843,2094,0,10
1777451261.023437,1597,0,10
1777451261.027605,1920,0,10
1777451261.029233,2172,0,10
1777451261.031861,2418,0,10
1777451261.0347579,2248,0,10
1777451261.037726,1552,0,10
1777451261.042711,1780,0,10
1777451261.0456629,2191,0,10
1777451261.047528,2334,0,10
1777451261.0534139,2324,0,10
1777451261.053526,2060,0,10
1777451261.055778,1862,0,10
1777451261.0586948,1830,0,10
1777451261.066723,1972,0,10
1777451261.066884,2260,0,10
1777451261.0691829,2616,0,10
1777451261.0753942,1831,0,10
1777451261.075847,1632,0,10
1777451261.078002,2131,0,10
1777451261.079672,2320,0,10
1777451261.082753,2538,0,10
1777451261.085679,2000,0,10
1777451261.092715,1755,0,10
1777451261.0938802,1703,0,10
1777451261.0986629,2208,0,10
1777451261.0996962,2425,0,10
1777451261.105713,2185,0,10
1777451261.1060328,1639,0,10
1777451261.106764,1618,0,10
1777451261.109718,2055,0,10
1777451261.1126468,2196,0,10
1777451261.117292,2215,0,10
1777451261.12015,2197,0,10
1777451261.123957,1552,0,10
1777451261.125772,1954,0,10
1777451261.1288152,2241,0,10
1777451261.1313899,2388,0,10
1777451261.1340868,2355,0,10
1777451261.1367319,1946,0,10
1777451261.1396239,1647,0,10
1777451261.146228,1699,0,10
1777451261.147228,1992,0,10
1777451261.1492229,2570,0,10
1777451261.152383,2390,0,10
1777451261.155105,1690,0,10
1777451261.1602628,1755,0,10
1777451261.1606421,2196,0,10
1777451261.163625,2436,0,10
1777451261.170757,2447,0,10
1777451261.172234,1901,0,10
1777451261.174556,1276,0,10
1777451261.176563,1423,0,10
1777451261.181493,1831,0,10
1777451261.1821382,2834,0,10
1777451261.185196,2714,0,10
1777451261.187816,1814,0,10
1777451261.190607,1705,0,10
1777451261.1935942,1883,0,10
1777451261.199635,2629,0,10
1777451261.201022,2499,0,10
1777451261.2045388,2175,0,10
1777451261.206568,1616,0,10
1777451261.211643,1690,0,10
1777451261.212149,2113,0,10
1777451261.2151449,2202,0,10
1777451261.21783,2595,0,10
1777451261.225313,1956,0,10
1777451261.226872,1693,0,10
1777451261.22706,1851,0,10
1777451261.230336,2320,0,10
1777451261.235699,2171,0,10
1777451261.236073,2143,0,10
1777451261.239161,1702,0,10
1777451261.241865,1868,0,10
1777451261.244544,2007,0,10
1777451261.247469,2353,0,10
1777451261.253833,2405,0,10
1777451261.2543519,1780,0,10
1777451261.2578099,1664,0,10
1777451261.259496,1956,0,10
1777451261.265503,1987,0,10
1777451261.2657568,2575,0,10
1777451261.2688022,2346,0,10
1777451261.271492,1741,0,10
1777451261.277798,1840,0,10
1777451261.278336,2176,0,10
1777451261.280468,2248,0,10
1777451261.2862852,2149,0,10
1777451261.289813,2089,0,10
1777451261.290119,1673,0,10
1777451261.292532,1949,0,10
1777451261.295394,2302,0,10
1777451261.29839,2362,0,10
1777451261.3013859,2046,0,10
1777451261.308836,1655,0,10
1777451261.3099258,1822,0,10
1777451261.312027,2138,0,10
1777451261.315857,2354,0,10
1777451261.31683,2346,0,10
1777451261.322229,1988,0,10
1777451261.3225632,1620,0,10
1777451261.3259242,1985,0,10
1777451261.328586,2385,0,10
1777451261.335113,2267,0,10
1777451261.3366568,2106,0,10
1777451261.338505,1817,0,10
1777451261.3409438,1804,0,10
1777451261.3483598,2036,0,10
1777451261.34867,2355,0,10
1777451261.3512802,2372,0,10
1777451261.3526778,2009,0,10
1777451261.355339,1598,0,10
1777451261.35835,1905,0,10
1777451261.361366,2201,0,10
1777451261.368242,2391,0,10
1777451261.368914,2165,0,10
1777451261.37164,1749,0,10
1777451261.374401,1515,0,10
1777451261.378125,2100,0,10
1777451261.381838,2010,0,10
1777451261.382462,2408,0,10
1777451261.385469,2337,0,10
1777451261.388334,1658,0,10
1777451261.394986,1785,0,10
1777451261.396069,2135,0,10
1777451261.4005811,2201,0,10
1777451261.4012601,1644,0,10
1777451261.40482,2460,0,10
1777451261.408491,2086,0,10
1777451261.410999,2079,0,10
1777451261.412413,2289,0,10
1777451261.415311,2287,0,10
1777451261.418292,2090,0,10
1777451261.421302,1794,0,10
1777451261.427955,1841,0,10
1777451261.4294982,2118,0,10
1777451261.4311612,2368,0,10
1777451261.433444,2137,0,10
1777451261.43729,1669,0,10
1777451261.440715,1442,0,10
1777451261.4431129,1945,0,10
1777451261.4456909,2390,0,10
1777451261.452079,2486,0,10
1777451261.4525812,2149,0,10
1777451261.455542,1691,0,10
1777451261.457804,1448,0,10
1777451261.461432,2166,0,10
1777451261.4648309,2462,0,10
1777451261.4672132,2329,0,10
1777451261.469795,1843,0,10
1777451261.472376,1725,0,10
1777451261.475156,2097,0,10
1777451261.4829388,2384,0,10
1777451261.483885,2180,0,10
1777451261.4848819,2058,0,10
1777451261.4882681,1790,0,10
1777451261.490442,1634,0,10
1777451261.495886,2249,0,10
1777451261.4961998,2496,0,10
1777451261.499779,2310,0,10
1777451261.502399,2039,0,10
1777451261.508841,1711,0,10
1777451261.509381,1885,0,10
1777451261.511471,2226,0,10
1777451261.515931,2349,0,10
1777451261.517577,1936,0,10
1777451261.520972,1659,0,10
1777451261.523457,1758,0,10
1777451261.526144,2169,0,10
1777451261.5291,2308,0,10
1777451261.532137,2326,0,10
1777451261.540319,2009,0,10
1777451261.541012,1815,0,10
1777451261.543067,1903,0,10
1777451261.545394,2150,0,10
1777451261.54756,2185,0,10
1777451261.553181,2253,0,10
1777451261.55335,1869,0,10
1777451261.556632,1714,0,10
1777451261.559262,2019,0,10
1777451261.564521,2267,0,10
1777451261.565873,2388,0,10
1777451261.568193,2109,0,10
1777451261.572135,1669,0,10
1777451261.57442,1782,0,10
1777451261.577821,2144,0,10
1777451261.580238,2305,0,10
1777451261.583067,2162,0,10
1777451261.586078,1887,0,10
1777451261.589097,1736,0,10
1777451261.596894,1984,0,10
1777451261.597855,2149,0,10
1777451261.5993621,2458,0,10
1777451261.601845,2148,0,10
1777451261.605809,1769,0,10
1777451261.6092749,1850,0,10
1777451261.611757,2154,0,10
1777451261.613087,2360,0,10
1777451261.616045,2288,0,10
1777451261.621964,1972,0,10
1777451261.624296,1719,0,10
1777451261.626571,1923,0,10
1777451261.6308448,2151,0,10
1777451261.6345558,2258,0,10
1777451261.634994,2151,0,10
1777451261.637456,1814,0,10
1777451261.640142,1770,0,10
1777451261.643021,2095,0,10
1777451261.6460211,2368,0,10
1777451261.649209,2300,0,10
1777451261.655318,1949,0,10
1777451261.656367,1701,0,10
1777451261.660342,1943,0,10
1777451261.662942,2231,0,10
1777451261.6646552,2163,0,10
1777451261.668297,1906,0,10
1777451261.67079,1890,0,10
1777451261.673265,1869,0,10
1777451261.67603,2238,0,10
1777451261.687985,2358,0,10
1777451261.697012,2348,0,10
1777451261.697611,2065,0,10
1777451261.697819,1669,0,10
1777451261.6982641,1973,0,10
1777451261.698424,2076,0,10
1777451261.6984801,2399,0,10
1777451261.700263,2260,0,10
1777451261.7033541,1709,0,10
1777451261.706609,1629,0,10
1777451261.730438,2019,0,10
1777451261.730624,2441,0,10
1777451261.7307022,2500,0,10
1777451261.7307599,2072,0,10
1777451261.730834,1706,0,10
1777451261.730886,1856,0,10
1777451261.730933,2006,0,10
1777451261.730983,2337,0,10
1777451261.7339678,2175,0,10
1777451261.747322,2021,0,10
1777451261.751028,1831,0,10
1777451261.7512698,2012,0,10
1777451261.7514398,2324,0,10
1777451261.7517838,2362,0,10
1777451261.752186,2101,0,10
1777451261.754516,1704,0,10
1777451261.75721,1780,0,10
1777451261.759845,2141,0,10
1777451261.7628338,2306,0,10
1777451261.770636,2198,0,10
1777451261.771682,1745,0,10
1777451261.774129,1674,0,10
1777451261.776429,2053,0,10
1777451261.77936,2214,0,10
1777451261.7810402,2272,0,10
1777451261.784513,2382,0,10
1777451261.7872488,1789,0,10
1777451261.7898612,1724,0,10
1777451261.797091,2165,0,10
1777451261.797875,2410,0,10
1777451261.799603,2283,0,10
1777451261.801864,1959,0,10
1777451261.805536,1650,0,10
1777451261.8088489,1742,0,10
1777451261.811172,2287,0,10
1777451261.813814,2388,0,10
1777451261.816792,2154,0,10
1777451261.819811,1882,0,10
1777451261.826955,1715,0,10
1777451261.82706,2083,0,10
1777451261.829398,2348,0,10
1777451261.8325891,2338,0,10
1777451261.835381,2046,0,10
1777451261.838654,1611,0,10
1777451261.841176,1813,0,10
1777451261.843792,2081,0,10
1777451261.8497028,2494,0,10
1777451261.8501692,2311,0,10
1777451261.854214,1846,0,10
1777451261.856066,1686,0,10
1777451261.8607528,2084,0,10
1777451261.862916,2359,0,10
1777451261.864785,2357,0,10
1777451261.867775,2074,0,10
1777451261.870753,1670,0,10
1777451261.876878,1755,0,10
1777451261.8773172,2165,0,10
1777451261.88155,2341,0,10
1777451261.8832378,2251,0,10
1777451261.888364,1870,0,10
1777451261.8901849,1699,0,10
1777451261.8918889,2016,0,10
1777451261.894848,2280,0,10
1777451261.8994062,2357,0,10
1777451261.901597,2116,0,10
1777451261.905067,1711,0,10
1777451261.909817,1779,0,10
1777451261.909924,2151,0,10
1777451261.912946,2364,0,10
1777451261.915736,2323,0,10
1777451261.918751,1914,0,10
1777451261.921777,1681,0,10
1777451261.925886,1987,0,10
1777451261.9285262,2277,0,10
1777451261.931992,2383,0,10
1777451261.933831,2195,0,10
1777451261.93677,1764,0,10
1777451261.939818,1801,0,10
1777451261.942722,2119,0,10
1777451261.947565,2381,0,10
1777451261.950123,2345,0,10
1777451261.952089,1978,0,10
1777451261.955581,1691,0,10
1777451261.958598,1944,0,10
1777451261.960798,2272,0,10
1777451261.963708,2380,0,10
1777451261.966675,2205,0,10
1777451261.9696808,1774,0,10
1777451261.974976,1728,0,10
1777451261.978644,2113,0,10
1777451261.9790468,2350,0,10
1777451261.982944,2303,0,10
1777451261.985936,2036,0,10
1777451261.9880111,1698,0,10
1777451261.990704,1873,0,10
1777451261.9962418,2197,0,10
1777451261.996972,2388,0,10
1777451261.9999151,2242,0,10
1777451262.0034182,1805,0,10
1777451262.006241,1695,0,10
1777451262.009214,2062,0,10
1777451262.01178,2350,0,10
1777451262.014532,2347,0,10
1777451262.021224,2081,0,10
1777451262.021632,1702,0,10
1777451262.0240278,1839,0,10
1777451262.027106,2200,0,10
1777451262.0318232,2380,0,10
1777451262.033952,2266,0,10
1777451262.0355499,1862,0,10
1777451262.041892,1685,0,10
1777451262.0427,2008,0,10
1777451262.044699,2324,0,10
1777451262.048272,2369,0,10
1777451262.052703,2104,0,10
1777451262.054891,1678,0,10
1777451262.0565279,1810,0,10
1777451262.059537,2147,0,10
1777451262.062531,2351,0,10
1777451262.068152,2275,0,10
1777451262.068985,1888,0,10
1777451262.072505,1650,0,10
1777451262.075763,1964,0,10
1777451262.078677,2284,0,10
1777451262.08072,2356,0,10
1777451262.0835211,2178,0,10
1777451262.089068,1728,0,10
1777451262.090133,1727,0,10
1777451262.093406,2138,0,10
1777451262.097003,2365,0,10
1777451262.099901,2283,0,10
1777451262.101986,1932,0,10
1777451262.104545,1642,0,10
1777451262.107508,1942,0,10
1777451262.1104991,2265,0,10
1777451262.115199,2402,0,10
1777451262.1176739,2179,0,10
1777451262.119972,1765,0,10
1777451262.122886,1730,0,10
1777451262.1259031,2090,0,10
1777451262.128832,2330,0,10
1777451262.1315541,2322,0,10
1777451262.137513,2014,0,10
1777451262.138828,1714,0,10
1777451262.1409879,1846,0,10
1777451262.1451678,2189,0,10
1777451262.147151,2385,0,10
1777451262.1497972,2240,0,10
1777451262.152448,1823,0,10
1777451262.1554601,1667,0,10
1777451262.160202,2045,0,10
1777451262.161851,2278,0,10
1777451262.164541,2336,0,10
1777451262.168993,2064,0,10
1777451262.171102,1679,0,10
1777451262.1736572,1806,0,10
1777451262.176425,2192,0,10
1777451262.179455,2389,0,10
1777451262.183815,2258,0,10
1777451262.185836,1833,0,10
1777451262.189079,1685,0,10
1777451262.1932878,2022,0,10
1777451262.194853,2303,0,10
1777451262.1974158,2353,0,10
1777451262.2004118,2089,0,10
1777451262.203423,1718,0,10
1777451262.208381,1764,0,10
1777451262.2103848,2169,0,10
1777451262.213207,2376,0,10
1777451262.217642,2273,0,10
1777451262.2195818,1844,0,10
1777451262.221424,1631,0,10
1777451262.2244081,1995,0,10
1777451262.227415,2279,0,10
1777451262.232727,2367,0,10
1777451262.234431,2180,0,10
1777451262.237237,1713,0,10
1777451262.2416599,1751,0,10
1777451262.243745,2119,0,10
1777451262.2453928,2363,0,10
1777451262.248375,2321,0,10
1777451262.251425,1965,0,10
1777451262.256608,1628,0,10
1777451262.258278,1850,0,10
1777451262.2614431,2205,0,10
1777451262.265615,2360,0,10
1777451262.26767,2184,0,10
1777451262.269272,1714,0,10
1777451262.272994,1677,0,10
1777451262.27556,2032,0,10
1777451262.280242,2323,0,10
1777451262.28249,2293,0,10
1777451262.28436,1979,0,10
1777451262.287329,1646,0,10
1777451262.290269,1839,0,10
1777451262.293262,2198,0,10
1777451262.296266,2368,0,10
1777451262.299267,2225,0,10
1777451262.304608,1758,0,10
1777451262.305968,1669,0,10
1777451262.3084102,2052,0,10
1777451262.311667,2317,0,10
1777451262.3144598,2340,0,10
1777451262.317282,2069,0,10
1777451262.320239,1691,0,10
1777451262.3232121,1829,0,10
1777451262.329382,2187,0,10
1777451262.329779,2373,0,10
1777451262.332864,2253,0,10
1777451262.336013,1845,0,10
1777451262.338764,1674,0,10
1777451262.341428,1978,0,10
1777451262.344227,2330,0,10
1777451262.3471859,2363,0,10
1777451262.353232,2098,0,10
1777451262.353643,1700,0,10
1777451262.3573608,1781,0,10
1777451262.3592079,2145,0,10
1777451262.363038,2368,0,10
1777451262.365184,2288,0,10
1777451262.368211,1850,0,10
1777451262.3712,1654,0,10
1777451262.378146,1989,0,10
1777451262.378509,2317,0,10
1777451262.381412,2349,0,10
1777451262.38341,2159,0,10
1777451262.3870459,1713,0,10
1777451262.389636,1738,0,10
1777451262.3921869,2104,0,10
1777451262.395139,2363,0,10
1777451262.401258,2304,0,10
1777451262.401333,1932,0,10
1777451262.404522,1660,0,10
1777451262.409877,1921,0,10
1777451262.4101892,2263,0,10
1777451262.413142,2367,0,10
1777451262.416136,2191,0,10
1777451262.4191449,1728,0,10
1777451262.423597,1713,0,10
1777451262.425864,2091,0,10
1777451262.42845,2350,0,10
1777451262.432568,2323,0,10
1777451262.434549,1993,0,10
1777451262.4371479,1655,0,10
1777451262.440147,1859,0,10
1777451262.446432,2242,0,10
1777451262.446849,2374,0,10
1777451262.4503438,2204,0,10
1777451262.4523609,1782,0,10
1777451262.456068,1680,0,10
1777451262.45814,2069,0,10
1777451262.4611032,2362,0,10
1777451262.464128,2343,0,10
1777451262.470332,2050,0,10
1777451262.471325,1665,0,10
1777451262.4739132,1798,0,10
1777451262.476842,2209,0,10
1777451262.4795,2394,0,10
1777451262.482243,2243,0,10
1777451262.484981,1811,0,10
1777451262.4879732,1664,0,10
1777451262.494276,2022,0,10
1777451262.495735,2332,0,10
1777451262.49742,2337,0,10
1777451262.5003278,2086,0,10
1777451262.503,1680,0,10
1777451262.5059829,1756,0,10
1777451262.50899,2168,0,10
1777451262.512701,2384,0,10
1777451262.516775,2305,0,10
1777451262.5186949,1874,0,10
1777451262.5218089,1629,0,10
1777451262.52579,1989,0,10
1777451262.5276742,2284,0,10
1777451262.530219,2369,0,10
1777451262.5329669,2143,0,10
1777451262.536057,1675,0,10
1777451262.5405009,1736,0,10
1777451262.543896,2150,0,10
1777451262.5464692,2351,0,10
1777451262.5489979,2304,0,10
1777451262.550932,1973,0,10
1777451262.5539699,1638,0,10
1777451262.5569448,1927,0,10
1777451262.5628119,2253,0,10
1777451262.563879,2382,0,10
1777451262.5667431,2186,0,10
1777451262.569552,1755,0,10
1777451262.572126,1704,0,10
1777451262.575305,2100,0,10
1777451262.577909,2338,0,10
1777451262.5810292,2320,0,10
1777451262.586177,1987,0,10
1777451262.588199,1648,0,10
1777451262.5904288,1817,0,10
1777451262.593235,2216,0,10
1777451262.595952,2391,0,10
1777451262.6035352,2240,0,10
1777451262.603573,1794,0,10
1777451262.604905,1683,0,10
1777451262.609657,2087,0,10
1777451262.6118631,2320,0,10
1777451262.614845,2362,0,10
1777451262.618846,2065,0,10
1777451262.6206038,1685,0,10
1777451262.6231492,1797,0,10
1777451262.62589,2172,0,10
1777451262.6288772,2353,0,10
1777451262.63318,2251,0,10
1777451262.640279,1810,0,10
1777451262.640309,1680,0,10
1777451262.640873,2012,0,10
1777451262.6508002,2307,0,10
1777451262.6510851,2370,0,10
1777451262.65118,2117,0,10
1777451262.6528609,1689,0,10
1777451262.6558561,1788,0,10
1777451262.659001,2159,0,10
1777451262.67001,2352,0,10
1777451262.6704519,2283,0,10
1777451262.671741,1897,0,10
1777451262.6734211,1621,0,10
1777451262.676374,1947,0,10
1777451262.678313,2318,0,10
1777451262.6798542,2337,0,10
1777451262.6828978,2070,0,10
1777451262.6858518,1812,0,10
1777451262.693839,1806,0,10
1777451262.695795,2121,0,10
1777451262.6965828,2367,0,10
1777451262.7016268,2312,0,10
1777451262.7018082,1911,0,10
1777451262.7038321,1642,0,10
1777451262.7068532,1865,0,10
1777451262.7113678,2288,0,10
1777451262.713544,2404,0,10
1777451262.718247,2197,0,10
1777451262.721077,1681,0,10
1777451262.723121,1739,0,10
1777451262.724701,2171,0,10
1777451262.727732,2372,0,10
1777451262.730734,2361,0,10
1777451262.737591,2002,0,10
1777451262.737658,1634,0,10
1777451262.741191,1851,0,10
1777451262.742903,2229,0,10
1777451262.747067,2357,0,10
1777451262.7490702,2242,0,10
1777451262.751702,1747,0,10
1777451262.75674,1649,0,10
1777451262.759012,2081,0,10
1777451262.7608068,2338,0,10
1777451262.7639492,2334,0,10
1777451262.766714,2050,0,10
1777451262.7696671,1682,0,10
1777451262.7726688,1822,0,10
1777451262.775655,2171,0,10
1777451262.781653,2371,0,10
1777451262.7817512,2206,0,10
1777451262.785571,1790,0,10
1777451262.7885609,1690,0,10
1777451262.791311,2018,0,10
1777451262.793935,2334,0,10
1777451262.7966988,2350,0,10
1777451262.799652,2097,0,10
1777451262.805696,1703,0,10
1777451262.806456,1815,0,10
1777451262.80948,2162,0,10
1777451262.811789,2361,0,10
1777451262.815783,2242,0,10
1777451262.817777,1823,0,10
1777451262.820661,1619,0,10
1777451262.823627,1963,0,10
1777451262.8297899,2304,0,10
1777451262.830125,2364,0,10
1777451262.833602,2160,0,10
1777451262.835679,1748,0,10
1777451262.8395321,1724,0,10
1777451262.841695,2121,0,10
1777451262.8446422,2362,0,10
1777451262.847666,2302,0,10
1777451262.853791,1922,0,10
1777451262.854804,1643,0,10
1777451262.858148,1921,0,10
1777451262.859892,2263,0,10
1777451262.863544,2377,0,10
1777451262.86561,2156,0,10
1777451262.8686368,1758,0,10
1777451262.871604,1709,0,10
1777451262.8778,2104,0,10
1777451262.878231,2342,0,10
1777451262.881483,2299,0,10
1777451262.884654,2018,0,10
1777451262.8875022,1654,0,10
1777451262.890383,1851,0,10
1777451262.89297,2239,0,10
1777451262.895631,2392,0,10
1777451262.8986108,2228,0,10
1777451262.902841,1770,0,10
1777451262.905138,1692,0,10
1777451262.908587,2069,0,10
1777451262.912662,2357,0,10
1777451262.914618,2350,0,10
1777451262.9171891,2049,0,10
1777451262.919752,1683,0,10
1777451262.922569,1837,0,10
1777451262.928056,2223,0,10
1777451262.929152,2357,0,10
1777451262.931902,2257,0,10
1777451262.934983,1853,0,10
1777451262.9374871,1712,0,10
1777451262.940444,2036,0,10
1777451262.943433,2304,0,10
1777451262.9472451,2364,0,10
1777451262.952074,2125,0,10
1777451262.9527009,1702,0,10
1777451262.955557,1773,0,10
1777451262.960622,2197,0,10
1777451262.9624152,2383,0,10
1777451262.964801,2291,0,10
1777451262.967453,1875,0,10
1777451262.9704409,1628,0,10
1777451262.9743779,1983,0,10
1777451262.976566,2330,0,10
1777451262.979757,2370,0,10
1777451262.9832802,2168,0,10
1777451262.9860952,1699,0,10
1777451262.988649,1764,0,10
1777451262.991421,2139,0,10
1777451262.997602,2377,0,10
1777451262.9979331,2284,0,10
1777451263.0012212,1971,0,10
1777451263.0067542,1689,0,10
1777451263.006891,1946,0,10
1777451263.009616,2257,0,10
1777451263.012416,2328,0,10
1777451263.0160398,2176,0,10
1777451263.021298,1722,0,10
1777451263.0217779,1723,0,10
1777451263.025755,2165,0,10
1777451263.028495,2365,0,10
1777451263.031152,2328,0,10
1777451263.0339289,1992,0,10
1777451263.0364852,1676,0,10
1777451263.039414,1895,0,10
1777451263.045783,2270,0,10
1777451263.0465322,2383,0,10
1777451263.049535,2227,0,10
1777451263.051608,1754,0,10
1777451263.055149,1650,0,10
1777451263.057919,2054,0,10
1777451263.0605261,2358,0,10
1777451263.0633469,2320,0,10
1777451263.0697112,2024,0,10
1777451263.071404,1676,0,10
1777451263.0733051,1837,0,10
1777451263.0781991,2210,0,10
1777451263.078395,2395,0,10
1777451263.081425,2240,0,10
1777451263.0844228,1842,0,10
1777451263.087357,1558,0,10
1777451263.093545,2076,0,10
1777451263.093911,2373,0,10
1777451263.097103,2372,0,10
1777451263.102442,2109,0,10
1777451263.1026418,1691,0,10
1777451263.105387,1790,0,10
1777451263.1083698,2185,0,10
1777451263.11135,2416,0,10
1777451263.117306,2290,0,10
1777451263.117433,1874,0,10
1777451263.120708,1656,0,10
1777451263.123564,1949,0,10
1777451263.127518,2233,0,10
1777451263.129199,2308,0,10
1777451263.1322722,2118,0,10
1777451263.135233,1742,0,10
1777451263.13989,1758,0,10
1777451263.142077,2141,0,10
1777451263.1450508,2346,0,10
1777451263.148868,2306,0,10
1777451263.150461,1955,0,10
1777451263.1531992,1668,0,10
1777451263.157244,1909,0,10
1777451263.159193,2167,0,10
1777451263.16323,2328,0,10
1777451263.165633,2196,0,10
1777451263.168473,1741,0,10
1777451263.17288,1744,0,10
1777451263.1748328,2113,0,10
1777451263.177384,2376,0,10
1777451263.18018,2369,0,10
1777451263.183172,2005,0,10
1777451263.18793,1610,0,10
1777451263.190314,1791,0,10
1777451263.192443,2230,0,10
1777451263.197834,2410,0,10
1777451263.198184,2244,0,10
1777451263.201182,1741,0,10
1777451263.20415,1612,0,10
1777451263.207146,2232,0,10
1777451263.2133062,2277,0,10
1777451263.213419,2347,0,10
1777451263.216678,1959,0,10
1777451263.221718,1598,0,10
1777451263.223579,1774,0,10
1777451263.225145,2175,0,10
1777451263.2281332,2341,0,10
1777451263.2311308,2210,0,10
1777451263.2358248,1841,0,10
1777451263.237712,1675,0,10
1777451263.2408051,2000,0,10
1777451263.2446988,2358,0,10
1777451263.246578,2330,0,10
1777451263.249132,2073,0,10
1777451263.252119,1636,0,10
1777451263.259611,1738,0,10
1777451263.260041,2145,0,10
1777451263.2623281,2405,0,10
1777451263.264338,2315,0,10
1777451263.2680268,1870,0,10
1777451263.2701252,1658,0,10
1777451263.273124,1968,0,10
1777451263.2761338,2287,0,10
1777451263.282176,2384,0,10
1777451263.2825909,2140,0,10
1777451263.2865028,1715,0,10
1777451263.2883048,1743,0,10
1777451263.291934,2146,0,10
1777451263.2939782,2394,0,10
1777451263.296996,2318,0,10
1777451263.299972,1950,0,10
1777451263.305706,1655,0,10
1777451263.307966,1929,0,10
1777451263.309868,2273,0,10
1777451263.3148422,2376,0,10
1777451263.31502,2193,0,10
1777451263.317992,1735,0,10
1777451263.320949,1746,0,10
1777451263.323955,2094,0,10
1777451263.328804,2344,0,10
1777451263.331241,2351,0,10
1777451263.333004,2012,0,10
1777451263.338209,1649,0,10
1777451263.33972,1900,0,10
1777451263.342273,2273,0,10
1777451263.34495,2400,0,10
1777451263.3485491,2245,0,10
1777451263.352282,1757,0,10
1777451263.3543181,1662,0,10
1777451263.357394,2016,0,10
1777451263.361383,2395,0,10
1777451263.363282,2387,0,10
1777451263.365969,2052,0,10
1777451263.368939,1646,0,10
1777451263.3719501,1848,0,10
1777451263.376214,2162,0,10
1777451263.378041,2407,0,10
1777451263.382496,2270,0,10
1777451263.384985,1726,0,10
1777451263.386923,1660,0,10
1777451263.389923,2065,0,10
1777451263.392909,2358,0,10
1777451263.395914,2361,0,10
1777451263.40004,2113,0,10
1777451263.402236,1706,0,10
1777451263.405194,1764,0,10
1777451263.409259,2203,0,10
1777451263.411308,2409,0,10
1777451263.41391,2287,0,10
1777451263.416925,1848,0,10
1777451263.419921,1587,0,10
1777451263.424702,1986,0,10
1777451263.427126,2255,0,10
1777451263.429158,2380,0,10
1777451263.434182,2170,0,10
1777451263.4360662,1709,0,10
1777451263.437886,1769,0,10
1777451263.4408891,2172,0,10
1777451263.443907,2380,0,10
1777451263.448023,2297,0,10
1777451263.450212,1948,0,10
1777451263.45361,1689,0,10
1777451263.457244,1907,0,10
1777451263.459104,2275,0,10
1777451263.461895,2334,0,10
1777451263.464888,2149,0,10
1777451263.471136,1747,0,10
1777451263.471526,1705,0,10
1777451263.475044,2101,0,10
1777451263.4771042,2330,0,10
1777451263.4807522,2343,0,10
1777451263.483412,2051,0,10
1777451263.4859571,1685,0,10
1777451263.488859,1883,0,10
1777451263.491872,2245,0,10
1777451263.496833,2381,0,10
1777451263.4984791,2252,0,10
1777451263.5011709,1782,0,10
1777451263.5054002,1674,0,10
1777451263.507206,2094,0,10
1777451263.509763,2335,0,10
1777451263.512783,2324,0,10
1777451263.516431,2018,0,10
1777451263.519325,1711,0,10
1777451263.52192,1849,0,10
1777451263.524755,2206,0,10
