timestamp,ch1,ch2,label
1777450931.780514,1678,0,6
1777450931.78062,1867,0,6
1777450931.780882,2241,0,6
1777450931.7868118,2328,0,6
1777450931.7883961,2108,0,6
1777450931.791643,1807,0,6
1777450931.794355,1677,0,6
1777450931.7958632,2040,0,6
1777450931.798869,2289,0,6
1777450931.8018591,2252,0,6
1777450931.8078048,2008,0,6
1777450931.8093,1697,0,6
1777450931.811589,1804,0,6
1777450931.814674,2197,0,6
1777450931.8168802,2344,0,6
1777450931.8199208,2181,0,6
1777450931.822901,1832,0,6
1777450931.829875,1666,0,6
1777450931.831467,1978,0,6
1777450931.8335848,2274,0,6
1777450931.836861,2280,0,6
1777450931.838859,2041,0,6
1777450931.8414478,1696,0,6
1777450931.8441129,1780,0,6
1777450931.8468878,2171,0,6
1777450931.8516748,2327,0,6
1777450931.854261,2202,0,6
1777450931.8570502,1902,0,6
1777450931.85895,1672,0,6
1777450931.8618839,1939,0,6
1777450931.864877,2285,0,6
1777450931.867889,2287,0,6
1777450931.875056,2049,0,6
1777450931.8755,1734,0,6
1777450931.878707,1729,0,6
1777450931.8804889,2121,0,6
1777450931.884754,2298,0,6
1777450931.886056,2226,0,6
1777450931.888891,1924,0,6
1777450931.8918788,1669,0,6
1777450931.898058,1886,0,6
1777450931.899352,2241,0,6
1777450931.9017012,2290,0,6
1777450931.90418,2115,0,6
1777450931.90691,1797,0,6
1777450931.9099112,1693,0,6
1777450931.912887,2075,0,6
1777450931.9199822,2319,0,6
1777450931.921886,2244,0,6
1777450931.924244,1963,0,6
1777450931.925024,1684,0,6
1777450931.928877,1829,0,6
1777450931.9314492,2213,0,6
1777450931.9340842,2330,0,6
1777450931.936896,2149,0,6
1777450931.942416,1805,0,6
1777450931.9450848,1695,0,6
1777450931.9487429,2051,0,6
1777450931.948976,2286,0,6
1777450931.95188,2265,0,6
1777450931.9548879,2016,0,6
1777450931.957879,1710,0,6
1777450931.963986,1796,0,6
1777450931.9664268,2177,0,6
1777450931.9684522,2322,0,6
1777450931.9699352,2189,0,6
1777450931.973474,1869,0,6
1777450931.976001,1685,0,6
1777450931.978873,1973,0,6
1777450931.9851751,2283,0,6
1777450931.98664,2283,0,6
1777450931.988752,2049,0,6
1777450931.991093,1698,0,6
1777450931.993904,1736,0,6
1777450931.996897,2168,0,6
1777450931.999903,2314,0,6
1777450932.006043,2217,0,6
1777450932.00678,1908,0,6
1777450932.0099661,1676,0,6
1777450932.012991,1915,0,6
1777450932.015556,2245,0,6
1777450932.018121,2305,0,6
1777450932.020896,2085,0,6
1777450932.0238662,1749,0,6
1777450932.027012,1713,0,6
1777450932.031167,2162,0,6
1777450932.033611,2323,0,6
1777450932.036284,2203,0,6
1777450932.038889,1992,0,6
1777450932.041884,1723,0,6
1777450932.047808,1867,0,6
1777450932.048703,2179,0,6
1777450932.052377,2289,0,6
1777450932.054624,2172,0,6
1777450932.057259,1819,0,6
1777450932.0599291,1632,0,6
1777450932.0629,2019,0,6
1777450932.0658638,2309,0,6
1777450932.072192,2272,0,6
1777450932.072242,1997,0,6
1777450932.075874,1691,0,6
1777450932.078348,1849,0,6
1777450932.0810711,2157,0,6
1777450932.083909,2314,0,6
1777450932.086868,2189,0,6
1777450932.0921972,1789,0,6
1777450932.09444,1662,0,6
1777450932.09602,1975,0,6
1777450932.100119,2310,0,6
1777450932.1020129,2285,0,6
1777450932.104776,2019,0,6
1777450932.108347,1758,0,6
1777450932.111038,1771,0,6
1777450932.114642,2207,0,6
1777450932.118319,2358,0,6
1777450932.120163,2160,0,6
1777450932.122935,1883,0,6
1777450932.125802,1616,0,6
1777450932.128787,1873,0,6
1777450932.131745,2250,0,6
1777450932.138186,2278,0,6
1777450932.139314,2051,0,6
1777450932.142719,1730,0,6
1777450932.14433,1805,0,6
1777450932.14726,2202,0,6
1777450932.1498392,2288,0,6
1777450932.1527748,2307,0,6
1777450932.159023,1947,0,6
1777450932.1605902,1683,0,6
1777450932.163212,1902,0,6
1777450932.166089,2311,0,6
1777450932.168779,2343,0,6
1777450932.1713438,2113,0,6
1777450932.173912,1698,0,6
1777450932.1767411,1658,0,6
1777450932.181935,2129,0,6
1777450932.1846988,2346,0,6
1777450932.187059,2244,0,6
1777450932.1903539,1957,0,6
1777450932.191948,1653,0,6
1777450932.194784,1879,0,6
1777450932.198543,2239,0,6
1777450932.201153,2347,0,6
1777450932.207453,2218,0,6
1777450932.2082088,1846,0,6
1777450932.211251,1705,0,6
1777450932.214855,2058,0,6
1777450932.216256,2385,0,6
1777450932.218903,2287,0,6
1777450932.221771,2003,0,6
1777450932.2247481,1732,0,6
1777450932.2301528,1854,0,6
1777450932.23243,2196,0,6
1777450932.234475,2312,0,6
1777450932.2381032,2125,0,6
1777450932.240005,1851,0,6
1777450932.24277,1678,0,6
1777450932.245784,1987,0,6
1777450932.252418,2308,0,6
1777450932.253082,2285,0,6
1777450932.255723,2052,0,6
1777450932.260088,1717,0,6
1777450932.2619488,1798,0,6
1777450932.264501,2146,0,6
1777450932.267047,2292,0,6
1777450932.269849,2176,0,6
1777450932.273438,1881,0,6
1777450932.277079,1676,0,6
1777450932.2798772,1922,0,6
1777450932.282667,2271,0,6
1777450932.285245,2236,0,6
1777450932.2878022,2060,0,6
1777450932.290829,1758,0,6
1777450932.294753,1775,0,6
1777450932.298371,2132,0,6
1777450932.300582,2296,0,6
1777450932.303728,2266,0,6
1777450932.30632,1972,0,6
1777450932.308872,1676,0,6
1777450932.311777,1870,0,6
1777450932.315564,2263,0,6
1777450932.319081,2250,0,6
1777450932.321712,2102,0,6
1777450932.32465,1835,0,6
1777450932.3272152,1723,0,6
1777450932.329788,2039,0,6
1777450932.3327758,2355,0,6
1777450932.337068,2138,0,6
1777450932.3389068,2006,0,6
1777450932.342056,1678,0,6
1777450932.345825,1716,0,6
1777450932.348384,2144,0,6
1777450932.350942,2462,0,6
1777450932.353767,2207,0,6
1777450932.3581948,1681,0,6
1777450932.360199,1599,0,6
1777450932.364641,2082,0,6
1777450932.36605,2391,0,6
1777450932.368774,2329,0,6
1777450932.371734,2094,0,6
1777450932.375542,1625,0,6
1777450932.379026,1628,0,6
1777450932.3810592,2222,0,6
1777450932.385293,2282,0,6
1777450932.386865,1918,0,6
1777450932.389766,1914,0,6
1777450932.392767,1547,0,6
1777450932.395775,1938,0,6
1777450932.399447,2251,0,6
1777450932.402739,2513,0,6
1777450932.4056451,2199,0,6
1777450932.4086988,1689,0,6
1777450932.411264,1880,0,6
1777450932.413821,2234,0,6
1777450932.416928,2286,0,6
1777450932.421151,2196,0,6
1777450932.424192,1868,0,6
1777450932.426579,1413,0,6
1777450932.429487,1794,0,6
1777450932.432037,2314,0,6
1777450932.434771,2373,0,6
1777450932.440678,1929,0,6
1777450932.440771,1774,0,6
1777450932.444014,2002,0,6
1777450932.448124,2322,0,6
1777450932.4499142,2247,0,6
1777450932.452779,2104,0,6
1777450932.455774,2003,0,6
1777450932.461967,1729,0,6
1777450932.462361,1878,0,6
1777450932.4653518,2101,0,6
1777450932.469236,2212,0,6
1777450932.470957,2063,0,6
1777450932.4737742,1678,0,6
1777450932.476773,1625,0,6
1777450932.482084,2062,0,6
1777450932.4840488,2429,0,6
1777450932.4864151,2400,0,6
1777450932.489812,2292,0,6
1777450932.492387,1693,0,6
1777450932.494957,1733,0,6
1777450932.4977689,2425,0,6
1777450932.50377,2527,0,6
1777450932.5048058,2156,0,6
1777450932.512258,1799,0,6
1777450932.5123231,1581,0,6
1777450932.51277,2041,0,6
1777450932.5167658,2437,0,6
1777450932.52765,2340,0,6
1777450932.5277078,2138,0,6
1777450932.534575,1626,0,6
1777450932.5521998,1871,0,6
1777450932.552289,2306,0,6
1777450932.5523221,2444,0,6
1777450932.5523489,2007,0,6
1777450932.552402,1355,0,6
1777450932.552427,1784,0,6
1777450932.5524511,2148,0,6
1777450932.552477,2261,0,6
1777450932.552503,1741,0,6
1777450932.555501,1217,0,6
1777450932.5579169,1728,0,6
1777450932.5654678,2792,0,6
1777450932.566577,2612,0,6
1777450932.5680482,2319,0,6
1777450932.571572,2673,0,6
1777450932.575901,1699,0,6
1777450932.575949,1110,0,6
1777450932.5788102,2979,0,6
1777450932.582755,2624,0,6
1777450932.585492,2158,0,6
1777450932.589615,2487,0,6
1777450932.59153,1597,0,6
1777450932.594222,1230,0,6
1777450932.5981572,1815,0,6
1777450932.5999308,1849,0,6
1777450932.6027641,3000,0,6
1777450932.606657,2740,0,6
1777450932.6092029,1550,0,6
1777450932.616214,1443,0,6
1777450932.616262,2564,0,6
1777450932.6194549,2505,0,6
1777450932.6216471,2355,0,6
1777450932.623882,2013,0,6
1777450932.626789,1496,0,6
1777450932.6297548,2125,0,6
1777450932.6337101,2205,0,6
1777450932.635798,2004,0,6
1777450932.639879,1716,0,6
1777450932.643015,1863,0,6
1777450932.644771,2023,0,6
1777450932.64774,2426,0,6
1777450932.650739,2494,0,6
1777450932.65815,2233,0,6
1777450932.658397,1766,0,6
1777450932.661361,1618,0,6
1777450932.66313,1939,0,6
1777450932.667255,2194,0,6
1777450932.668753,2388,0,6
1777450932.671724,2251,0,6
1777450932.6769578,1790,0,6
1777450932.679025,1914,0,6
1777450932.6846771,2231,0,6
1777450932.686644,2322,0,6
1777450932.68708,2225,0,6
1777450932.689852,1715,0,6
1777450932.692794,1862,0,6
1777450932.6957529,2077,0,6
1777450932.70331,2347,0,6
1777450932.7153878,2485,0,6
1777450932.715775,2260,0,6
1777450932.715915,1813,0,6
1777450932.716007,1854,0,6
1777450932.716102,2092,0,6
1777450932.717505,2362,0,6
1777450932.725646,2151,0,6
1777450932.7267451,2148,0,6
1777450932.727108,1413,0,6
1777450932.7318761,1471,0,6
1777450932.7321222,2608,0,6
1777450932.735005,2748,0,6
1777450932.737796,2228,0,6
1777450932.7407591,1795,0,6
1777450932.746696,1673,0,6
1777450932.7479591,2132,0,6
1777450932.750633,2420,0,6
1777450932.754553,2313,0,6
1777450932.7562182,1956,0,6
1777450932.75873,1594,0,6
1777450932.762048,1742,0,6
1777450932.764877,2161,0,6
1777450932.7683809,2258,0,6
1777450932.7719831,1908,0,6
1777450932.773897,1626,0,6
1777450932.77685,1987,0,6
1777450932.779732,2145,0,6
1777450932.782739,2429,0,6
1777450932.786165,2305,0,6
1777450932.790667,2045,0,6
1777450932.792765,1835,0,6
1777450932.795094,1817,0,6
1777450932.798864,2324,0,6
1777450932.800724,2336,0,6
1777450932.8037398,2070,0,6
1777450932.806725,1739,0,6
1777450932.8098292,1685,0,6
1777450932.8174741,2098,0,6
1777450932.8180852,2386,0,6
1777450932.819886,2433,0,6
1777450932.8247712,2208,0,6
1777450932.824797,1788,0,6
1777450932.8277602,1748,0,6
1777450932.830736,2199,0,6
1777450932.837148,2376,0,6
1777450932.837368,2146,0,6
1777450932.840183,1786,0,6
1777450932.844594,1573,0,6
1777450932.8463519,2094,0,6
1777450932.8490722,2391,0,6
1777450932.851768,2379,0,6
1777450932.854778,1973,0,6
1777450932.859255,1769,0,6
1777450932.861044,1786,0,6
1777450932.864,2174,0,6
1777450932.867539,2358,0,6
1777450932.870154,2142,0,6
1777450932.872772,1976,0,6
1777450932.875767,1596,0,6
1777450932.881068,1995,0,6
1777450932.8833458,2337,0,6
1777450932.885216,2288,0,6
1777450932.889516,2036,0,6
1777450932.891285,1686,0,6
1777450932.8939252,1509,0,6
1777450932.89677,1899,0,6
1777450932.899783,2601,0,6
1777450932.903379,2061,0,6
1777450932.906514,2237,0,6
1777450932.9113028,2005,0,6
1777450932.912917,1879,0,6
1777450932.914774,2193,0,6
1777450932.91779,2367,0,6
1777450932.920806,2329,0,6
1777450932.924177,1934,0,6
1777450932.9267368,1673,0,6
1777450932.930105,1901,0,6
1777450932.9332569,2186,0,6
1777450932.935874,2207,0,6
1777450932.938748,2000,0,6
1777450932.94211,1686,0,6
1777450932.9461818,1832,0,6
1777450932.947885,2218,0,6
1777450932.9510632,2285,0,6
1777450932.9541109,2058,0,6
1777450932.956768,1907,0,6
1777450932.959733,1657,0,6
1777450932.9627678,1908,0,6
1777450932.9668071,2265,0,6
1777450932.969663,2330,0,6
1777450932.9728441,2149,0,6
1777450932.974845,1805,0,6
1777450932.977767,1739,0,6
1777450932.980768,2130,0,6
1777450932.983768,2337,0,6
1777450932.9876711,2216,0,6
1777450932.990874,1915,0,6
1777450932.9934359,1666,0,6
1777450932.9970372,1919,0,6
1777450932.999424,2250,0,6
1777450933.0019672,2312,0,6
1777450933.007256,2134,0,6
1777450933.0082939,1794,0,6
1777450933.011987,1758,0,6
1777450933.014289,2109,0,6
1777450933.017927,2323,0,6
1777450933.019743,2248,0,6
1777450933.022731,2005,0,6
1777450933.028652,1680,0,6
1777450933.0290072,1849,0,6
1777450933.032421,2204,0,6
1777450933.035091,2290,0,6
1777450933.038487,2133,0,6
1777450933.041046,1833,0,6
1777450933.043763,1720,0,6
1777450933.046741,2069,0,6
1777450933.0515058,2312,0,6
1777450933.054527,2317,0,6
1777450933.056843,2041,0,6
1777450933.058924,1734,0,6
1777450933.061825,1852,0,6
1777450933.064768,2207,0,6
1777450933.067738,2354,0,6
1777450933.07323,2190,0,6
1777450933.074785,1874,0,6
1777450933.076832,1678,0,6
1777450933.080962,1979,0,6
1777450933.08278,2278,0,6
1777450933.0857542,2287,0,6
1777450933.088769,2030,0,6
1777450933.095777,1702,0,6
1777450933.0961459,1759,0,6
1777450933.0992582,2162,0,6
1777450933.1014972,2328,0,6
1777450933.103793,2150,0,6
1777450933.1067898,1866,0,6
1777450933.10974,1622,0,6
1777450933.1127648,1938,0,6
1777450933.1162581,2246,0,6
1777450933.119931,2286,0,6
1777450933.124851,2042,0,6
1777450933.125033,1759,0,6
1777450933.1277928,1747,0,6
1777450933.130759,2122,0,6
1777450933.133767,2300,0,6
1777450933.1376672,2220,0,6
1777450933.14062,1912,0,6
1777450933.143486,1640,0,6
1777450933.145868,1885,0,6
1777450933.1487622,2222,0,6
1777450933.151742,2295,0,6
1777450933.1547709,2074,0,6
1777450933.158847,1750,0,6
1777450933.161519,1662,0,6
1777450933.1664472,2045,0,6
1777450933.166771,2284,0,6
1777450933.169769,2197,0,6
1777450933.172731,1926,0,6
1777450933.175761,1641,0,6
1777450933.17897,1793,0,6
1777450933.1829,2220,0,6
1777450933.185031,2305,0,6
1777450933.188879,2122,0,6
1777450933.190742,1799,0,6
1777450933.193762,1673,0,6
1777450933.196737,2034,0,6
1777450933.202008,2282,0,6
1777450933.204606,2202,0,6
1777450933.2071629,1987,0,6
1777450933.209404,1685,0,6
1777450933.211987,1776,0,6
1777450933.2147672,2173,0,6
1777450933.217767,2317,0,6
1777450933.221656,2147,0,6
1777450933.223854,1848,0,6
1777450933.227741,1670,0,6
1777450933.229952,1964,0,6
1777450933.2327309,2286,0,6
1777450933.235732,2276,0,6
1777450933.238739,2020,0,6
1777450933.243572,1693,0,6
1777450933.246481,1747,0,6
1777450933.248568,2201,0,6
1777450933.25104,2349,0,6
1777450933.2537768,2199,0,6
1777450933.2567391,1889,0,6
1777450933.259766,1698,0,6
1777450933.263659,1920,0,6
1777450933.26683,2282,0,6
1777450933.2695649,2302,0,6
1777450933.272049,2090,0,6
1777450933.274734,1723,0,6
1777450933.2777312,1723,0,6
1777450933.280734,2124,0,6
1777450933.2847931,2350,0,6
1777450933.2870212,2241,0,6
1777450933.290893,1947,0,6
1777450933.2932632,1697,0,6
1777450933.295841,1869,0,6
1777450933.2994401,2263,0,6
1777450933.3020039,2397,0,6
1777450933.307143,2110,0,6
1777450933.308055,1764,0,6
1777450933.312075,1671,0,6
1777450933.315528,2177,0,6
1777450933.317268,2289,0,6
1777450933.319835,2192,0,6
1777450933.322757,1958,0,6
1777450933.328554,1664,0,6
1777450933.328966,1883,0,6
1777450933.3321831,2220,0,6
1777450933.336996,2290,0,6
1777450933.338754,2149,0,6
1777450933.3413,1875,0,6
1777450933.3438668,1875,0,6
1777450933.34941,1970,0,6
1777450933.349984,2217,0,6
1777450933.352971,2277,0,6
1777450933.357467,2054,0,6
1777450933.359213,1713,0,6
1777450933.361762,1775,0,6
1777450933.3647292,2179,0,6
1777450933.37051,2328,0,6
1777450933.3708968,2180,0,6
1777450933.374124,1915,0,6
1777450933.378596,1718,0,6
1777450933.379958,1989,0,6
1777450933.382724,2305,0,6
1777450933.38621,2315,0,6
1777450933.391721,2098,0,6
1777450933.392106,1749,0,6
1777450933.39535,1741,0,6
1777450933.3979158,2133,0,6
1777450933.401566,2335,0,6
1777450933.4042299,2258,0,6
1777450933.406785,1947,0,6
1777450933.409729,1691,0,6
1777450933.4144142,1931,0,6
1777450933.4162931,2271,0,6
1777450933.4192598,2346,0,6
1777450933.422656,2152,0,6
1777450933.425215,1815,0,6
1777450933.4277692,1744,0,6
1777450933.430623,2118,0,6
1777450933.435808,2354,0,6
1777450933.4378722,2287,0,6
1777450933.4398851,1983,0,6
1777450933.444261,1678,0,6
1777450933.4456818,1883,0,6
1777450933.448607,2262,0,6
1777450933.451631,2352,0,6
1777450933.457651,2156,0,6
1777450933.458386,1805,0,6
1777450933.4611578,1695,0,6
1777450933.465777,2058,0,6
1777450933.4675589,2322,0,6
1777450933.4699242,2282,0,6
1777450933.472646,2007,0,6
1777450933.479037,1676,0,6
1777450933.479106,1794,0,6
1777450933.482007,2209,0,6
1777450933.487057,2317,0,6
1777450933.488728,2165,0,6
1777450933.4912808,1841,0,6
1777450933.493835,1671,0,6
1777450933.500015,2000,0,6
1777450933.5006652,2315,0,6
1777450933.503863,2302,0,6
1777450933.506161,2044,0,6
1777450933.508657,1722,0,6
1777450933.511619,1782,0,6
1777450933.514623,2181,0,6
1777450933.51761,2352,0,6
1777450933.52196,2224,0,6
1777450933.5247412,1891,0,6
1777450933.52779,1684,0,6
1777450933.530019,1973,0,6
1777450933.532842,2299,0,6
1777450933.5356228,2340,0,6
1777450933.538612,2089,0,6
1777450933.543618,1744,0,6
1777450933.545664,1727,0,6
1777450933.547798,2161,0,6
1777450933.55213,2356,0,6
1777450933.553775,2256,0,6
1777450933.556614,1956,0,6
1777450933.5596428,1690,0,6
1777450933.564424,1904,0,6
1777450933.566893,2297,0,6
1777450933.5688808,2354,0,6
1777450933.573302,2134,0,6
1777450933.575086,1795,0,6
1777450933.577636,1720,0,6
1777450933.580609,2089,0,6
1777450933.587136,2331,0,6
1777450933.5886111,2278,0,6
1777450933.590085,2003,0,6
1777450933.594775,1683,0,6
1777450933.596355,1860,0,6
1777450933.59911,2261,0,6
1777450933.601664,2365,0,6
1777450933.6078432,2192,0,6
1777450933.608159,1867,0,6
1777450933.61197,1710,0,6
1777450933.614111,2065,0,6
1777450933.6166668,2337,0,6
1777450933.6195998,2314,0,6
1777450933.622606,2046,0,6
1777450933.625592,1728,0,6
1777450933.630183,1822,0,6
1777450933.6336,2217,0,6
1777450933.635067,2336,0,6
1777450933.6389,2200,0,6
1777450933.64062,1919,0,6
1777450933.643622,1742,0,6
1777450933.646622,2017,0,6
1777450933.651785,2298,0,6
1777450933.653516,2300,0,6
1777450933.657669,2083,0,6
1777450933.659966,1776,0,6
1777450933.661628,1795,0,6
1777450933.6646342,2165,0,6
1777450933.667598,2313,0,6
1777450933.672605,2195,0,6
1777450933.6745942,1925,0,6
1777450933.6771069,1739,0,6
1777450933.6807811,1969,0,6
1777450933.6826031,2262,0,6
1777450933.685757,2290,0,6
1777450933.688628,2107,0,6
1777450933.69473,1817,0,6
1777450933.695122,1793,0,6
1777450933.698449,2136,0,6
1777450933.701558,2352,0,6
1777450933.703994,2258,0,6
1777450933.706605,1987,0,6
1777450933.709596,1747,0,6
1777450933.712597,1932,0,6
1777450933.7162151,2274,0,6
1777450933.719543,2323,0,6
1777450933.722479,2142,0,6
1777450933.7247941,1853,0,6
1777450933.727658,1757,0,6
1777450933.730601,2087,0,6
1777450933.733609,2324,0,6
1777450933.738095,2272,0,6
1777450933.740726,2042,0,6
1777450933.743242,1746,0,6
1777450933.7457201,1895,0,6
1777450933.74862,2249,0,6
1777450933.751589,2334,0,6
1777450933.75459,2170,0,6
1777450933.76771,1870,0,6
1777450933.7700338,1760,0,6
1777450933.770067,2065,0,6
1777450933.77009,2313,0,6
1777450933.770902,2299,0,6
1777450933.7728791,2050,0,6
1777450933.7774,1767,0,6
1777450933.778705,1846,0,6
1777450933.78936,2235,0,6
1777450933.789398,2364,0,6
1777450933.7894511,2201,0,6
1777450933.794697,1944,0,6
1777450933.79488,1757,0,6
1777450933.796881,2021,0,6
1777450933.799708,2305,0,6
1777450933.810163,2264,0,6
1777450933.814302,2090,0,6
1777450933.814656,1813,0,6
1777450933.814728,1809,0,6
1777450933.814811,2184,0,6
1777450933.818061,2345,0,6
1777450933.820717,2246,0,6
1777450933.823711,1981,0,6
1777450933.828512,1761,0,6
1777450933.832881,1973,0,6
1777450933.833751,2289,0,6
1777450933.837607,2323,0,6
1777450933.839537,2137,0,6
1777450933.842087,1832,0,6
1777450933.844793,1768,0,6
1777450933.8476312,2120,0,6
1777450933.8533819,2349,0,6
1777450933.854988,2288,0,6
1777450933.857891,2022,0,6
1777450933.85976,1766,0,6
1777450933.86415,1898,0,6
1777450933.865769,2264,0,6
1777450933.868638,2349,0,6
1777450933.871613,2143,0,6
1777450933.877114,1847,0,6
1777450933.8782122,1752,0,6
1777450933.881365,2077,0,6
1777450933.884375,2321,0,6
1777450933.88716,2305,0,6
1777450933.890217,2014,0,6
1777450933.89277,1762,0,6
1777450933.8956108,1866,0,6
1777450933.904172,2246,0,6
1777450933.906303,2315,0,6
1777450933.907991,2190,0,6
1777450933.9120362,1911,0,6
1777450933.9123352,1745,0,6
1777450933.914755,2019,0,6
1777450933.916637,2323,0,6
1777450933.922525,2308,0,6
1777450933.9229681,2080,0,6
1777450933.926068,1739,0,6
1777450933.932173,1854,0,6
1777450933.932677,2241,0,6
1777450933.934745,2337,0,6
1777450933.937699,2211,0,6
1777450933.9406111,1946,0,6
1777450933.94366,1737,0,6
1777450933.9501178,1989,0,6
1777450933.95058,2301,0,6
1777450933.953603,2306,0,6
1777450933.959315,2110,0,6
1777450933.959599,1791,0,6
1777450933.9618618,1786,0,6
1777450933.964602,2138,0,6
1777450933.9707499,2347,0,6
1777450933.971209,2244,0,6
1777450933.974616,1967,0,6
1777450933.977633,1748,0,6
1777450933.9804852,1929,0,6
1777450933.982626,2257,0,6
1777450933.985616,2333,0,6
1777450933.988617,2130,0,6
1777450933.991841,1832,0,6
1777450933.999786,1761,0,6
1777450934.00069,2131,0,6
1777450934.003916,2328,0,6
1777450934.0069382,2262,0,6
1777450934.0072389,2018,0,6
1777450934.010062,1734,0,6
1777450934.0126112,1902,0,6
1777450934.0182872,2250,0,6
1777450934.019714,2323,0,6
1777450934.0224829,2146,0,6
1777450934.027859,1876,0,6
1777450934.0305579,1722,0,6
1777450934.0307121,2033,0,6
1777450934.033618,2316,0,6
1777450934.036681,2279,0,6
1777450934.039607,2026,0,6
1777450934.0466182,1718,0,6
1777450934.049672,1814,0,6
1777450934.050617,2250,0,6
1777450934.052863,2351,0,6
1777450934.057197,2188,0,6
1777450934.057625,1880,0,6
1777450934.0605419,1721,0,6
1777450934.0634801,2010,0,6
1777450934.069382,2288,0,6
1777450934.0703611,2291,0,6
1777450934.073492,2032,0,6
1777450934.0768719,1711,0,6
1777450934.080294,1812,0,6
1777450934.0820029,2228,0,6
1777450934.084703,2377,0,6
1777450934.0874822,2193,0,6
1777450934.0904949,1954,0,6
1777450934.0992908,1743,0,6
1777450934.101142,1961,0,6
1777450934.102188,2234,0,6
1777450934.1034932,2287,0,6
1777450934.1056619,2134,0,6
1777450934.108566,1783,0,6
1777450934.1117802,1663,0,6
1777450934.1147132,2154,0,6
1777450934.121152,2339,0,6
1777450934.122623,2267,0,6
1777450934.12434,2031,0,6
1777450934.131213,1726,0,6
1777450934.131825,1908,0,6
1777450934.133999,2329,0,6
1777450934.135478,2315,0,6
1777450934.138509,2115,0,6
1777450934.142555,1729,0,6
1777450934.155118,1668,0,6
1777450934.15999,2080,0,6
1777450934.160482,2368,0,6
1777450934.1606069,2281,0,6
1777450934.162716,2047,0,6
1777450934.1627898,1705,0,6
1777450934.162844,1849,0,6
1777450934.165687,2100,0,6
1777450934.1716428,2387,0,6
1777450934.175967,2153,0,6
1777450934.177326,1871,0,6
1777450934.182998,1759,0,6
1777450934.183542,2139,0,6
1777450934.185642,2334,0,6
1777450934.187414,2294,0,6
1777450934.190086,2062,0,6
1777450934.192717,1801,0,6
1777450934.195499,1820,0,6
1777450934.202066,2168,0,6
1777450934.203594,2288,0,6
1777450934.207333,2156,0,6
1777450934.209795,1686,0,6
1777450934.212726,1764,0,6
1777450934.214497,2175,0,6
1777450934.2171478,2370,0,6
1777450934.2248802,2233,0,6
1777450934.226302,2018,0,6
1777450934.226493,1809,0,6
1777450934.228914,1829,0,6
1777450934.23471,1945,0,6
1777450934.234881,2226,0,6
1777450934.238121,2462,0,6
1777450934.240809,1992,0,6
1777450934.243544,1563,0,6
1777450934.246711,1767,0,6
1777450934.250756,2423,0,6
1777450934.253471,2500,0,6
1777450934.255539,1986,0,6
1777450934.259098,1515,0,6
1777450934.262058,1567,0,6
1777450934.265131,2021,0,6
1777450934.267748,2351,0,6
1777450934.2729,1938,0,6
1777450934.273778,1687,0,6
1777450934.277236,2074,0,6
1777450934.2832808,1947,0,6
1777450934.2834392,2195,0,6
1777450934.285589,2174,0,6
1777450934.288487,2183,0,6
1777450934.291471,2020,0,6
1777450934.29449,1743,0,6
1777450934.299789,1919,0,6
1777450934.3028128,2080,0,6
1777450934.304426,2187,0,6
1777450934.307329,1795,0,6
1777450934.3119118,2159,0,6
1777450934.3139288,1942,0,6
1777450934.3154938,1539,0,6
1777450934.3184729,1285,0,6
1777450934.323561,2841,0,6
1777450934.325929,2673,0,6
1777450934.3277812,2000,0,6
1777450934.331676,1898,0,6
1777450934.334903,2252,0,6
1777450934.337237,2373,0,6
1777450934.339888,2103,0,6
1777450934.342554,1767,0,6
1777450934.345481,1767,0,6
1777450934.352635,1886,0,6
1777450934.3536901,1970,0,6
1777450934.355457,2446,0,6
1777450934.3577979,2332,0,6
1777450934.361429,1614,0,6
1777450934.364566,2146,0,6
1777450934.366792,2603,0,6
1777450934.3695328,2423,0,6
1777450934.377683,2298,0,6
1777450934.379462,1806,0,6
1777450934.379644,1588,0,6
1777450934.382902,1983,0,6
1777450934.385687,2303,0,6
1777450934.388982,2270,0,6
1777450934.3911839,2145,0,6
1777450934.39385,1891,0,6
1777450934.39651,2044,0,6
1777450934.399487,2204,0,6
1777450934.406604,2260,0,6
1777450934.409688,1478,0,6
1777450934.410017,1949,0,6
1777450934.412811,2030,0,6
1777450934.419511,1928,0,6
1777450934.419908,2397,0,6
1777450934.421771,2479,0,6
1777450934.4234948,2214,0,6
1777450934.4267561,1745,0,6
1777450934.4361,1519,0,6
1777450934.4364018,2053,0,6
1777450934.43789,2095,0,6
1777450934.440786,2603,0,6
1777450934.4427829,1923,0,6
1777450934.4461398,1429,0,6
1777450934.4485471,2120,0,6
1777450934.450498,2604,0,6
1777450934.453515,2519,0,6
1777450934.456504,1858,0,6
1777450934.468561,1620,0,6
1777450934.471301,1821,0,6
1777450934.476748,1806,0,6
1777450934.477448,2455,0,6
1777450934.479844,2335,0,6
1777450934.4801269,1926,0,6
1777450934.4802592,1942,0,6
1777450934.480463,2247,0,6
1777450934.483495,2547,0,6
1777450934.4918451,1933,0,6
1777450934.492403,2073,0,6
1777450934.4940858,1845,0,6
1777450934.49702,1568,0,6
1777450934.5017128,2008,0,6
1777450934.501855,2742,0,6
1777450934.504898,2155,0,6
1777450934.507623,2042,0,6
1777450934.510487,2088,0,6
1777450934.513473,1971,0,6
1777450934.522043,2484,0,6
1777450934.524617,1912,0,6
1777450934.525686,2212,0,6
1777450934.525813,1599,0,6
1777450934.531602,1538,0,6
1777450934.531819,2544,0,6
1777450934.5353029,2329,0,6
1777450934.538025,1975,0,6
1777450934.544987,2125,0,6
1777450934.546711,1940,0,6
1777450934.548602,1473,0,6
1777450934.5506089,2078,0,6
1777450934.552992,2259,0,6
1777450934.556149,2694,0,6
1777450934.558694,1888,0,6
1777450934.5614889,1735,0,6
1777450934.5644858,2074,0,6
1777450934.568158,2443,0,6
1777450934.576619,2295,0,6
1777450934.5769799,2173,0,6
1777450934.5798888,1551,0,6
1777450934.581235,1533,0,6
1777450934.58346,1836,0,6
1777450934.586714,2618,0,6
1777450934.589309,2095,0,6
1777450934.591954,2050,0,6
1777450934.598093,1892,0,6
1777450934.598776,2157,0,6
1777450934.601435,2195,0,6
1777450934.605035,2116,0,6
1777450934.611236,1988,0,6
1777450934.611725,1709,0,6
1777450934.614045,1828,0,6
1777450934.6154938,2120,0,6
1777450934.618476,2390,0,6
1777450934.6214762,2298,0,6
1777450934.624577,1960,0,6
1777450934.630431,1589,0,6
1777450934.630982,1995,0,6
1777450934.6353312,2261,0,6
1777450934.638468,1880,0,6
1777450934.641726,2025,0,6
1777450934.6440032,2258,0,6
1777450934.6455271,2113,0,6
1777450934.648509,2021,0,6
1777450934.6536288,2318,0,6
1777450934.656204,2260,0,6
1777450934.658284,2019,0,6
1777450934.661994,1895,0,6
1777450934.665162,1796,0,6
1777450934.667375,2135,0,6
1777450934.670006,2192,0,6
1777450934.6725838,1937,0,6
1777450934.675495,1844,0,6
1777450934.6822212,1398,0,6
1777450934.683056,2346,0,6
1777450934.684661,2552,0,6
1777450934.6897721,2080,0,6
1777450934.6925929,1884,0,6
1777450934.69431,1842,0,6
1777450934.6968699,1907,0,6
1777450934.703541,2207,0,6
1777450934.7036889,2130,0,6
1777450934.705964,2442,0,6
1777450934.709455,1908,0,6
1777450934.71391,1708,0,6
1777450934.715998,1998,0,6
1777450934.717481,2082,0,6
1777450934.7204669,2428,0,6
1777450934.7234619,1993,0,6
1777450934.730891,1825,0,6
1777450934.7321,1917,0,6
1777450934.734097,2019,0,6
1777450934.7373939,1959,0,6
1777450934.7403278,2469,0,6
1777450934.742444,2005,0,6
1777450934.745018,1708,0,6
1777450934.7504482,2014,0,6
1777450934.750565,2252,0,6
1777450934.754434,2309,0,6
1777450934.7577379,2126,0,6
1777450934.7604558,1689,0,6
1777450934.76258,1922,0,6
1777450934.765475,1732,0,6
1777450934.768471,2101,0,6
1777450934.771463,2405,0,6
1777450934.7764878,2030,0,6
1777450934.778962,1779,0,6
1777450934.781343,1994,0,6
1777450934.786883,2293,0,6
1777450934.787175,2346,0,6
1777450934.79003,2140,0,6
1777450934.7925792,1770,0,6
1777450934.797771,1611,0,6
1777450934.799505,1970,0,6
1777450934.8023932,2164,0,6
1777450934.8048692,2233,0,6
1777450934.8076942,2147,0,6
1777450934.8107252,1714,0,6
1777450934.8136342,1696,0,6
1777450934.8165069,2367,0,6
1777450934.819534,2460,0,6
1777450934.8272882,2157,0,6
1777450934.8275032,1818,0,6
1777450934.82934,1738,0,6
1777450934.832576,2086,0,6
1777450934.835862,2226,0,6
1777450934.837899,2235,0,6
1777450934.84047,2063,0,6
1777450934.8487391,1780,0,6
1777450934.84921,1854,0,6
1777450934.8509288,2007,0,6
1777450934.857834,2163,0,6
1777450934.858228,2545,0,6
1777450934.8598242,1956,0,6
1777450934.8614771,1745,0,6
1777450934.864488,2020,0,6
1777450934.867465,2303,0,6
1777450934.8746712,2287,0,6
1777450934.875461,2016,0,6
1777450934.878103,1712,0,6
1777450934.88088,1604,0,6
1777450934.884591,1896,0,6
1777450934.8863091,2406,0,6
1777450934.8888729,2421,0,6
1777450934.895137,1952,0,6
1777450934.8955479,1703,0,6
1777450934.898786,2081,0,6
1777450934.900939,2360,0,6
1777450934.905567,2264,0,6
1777450934.907655,2073,0,6
1777450934.909368,1775,0,6
1777450934.91235,1561,0,6
1777450934.9153411,2065,0,6
1777450934.920346,2535,0,6
1777450934.922979,2207,0,6
1777450934.925194,1945,0,6
1777450934.93089,1731,0,6
1777450934.931113,1780,0,6
1777450934.9337852,2193,0,6
1777450934.936386,2452,0,6
1777450934.9413838,2351,0,6
1777450934.943254,1769,0,6
1777450934.9480488,1632,0,6
1777450934.950706,2148,0,6
1777450934.9527948,2282,0,6
1777450934.95436,1691,0,6
1777450934.957381,1865,0,6
1777450934.961319,2155,0,6
1777450934.9800708,2248,0,6
1777450934.98015,2102,0,6
1777450934.980602,2189,0,6
1777450934.98068,2170,0,6
1777450934.980782,1962,0,6
1777450934.981118,1858,0,6
1777450934.981364,2170,0,6
1777450935.003049,2111,0,6
1777450935.003139,2053,0,6
1777450935.006975,1800,0,6
1777450935.007091,1676,0,6
1777450935.007152,1847,0,6
1777450935.007206,2243,0,6
1777450935.007261,2415,0,6
1777450935.030027,2257,0,6
1777450935.030687,1906,0,6
1777450935.0307682,1607,0,6
1777450935.030913,1852,0,6
1777450935.031019,1928,0,6
1777450935.031059,2415,0,6
1777450935.031086,2057,0,6
1777450935.031112,1775,0,6
1777450935.031137,1903,0,6
1777450935.0336452,2318,0,6
1777450935.0392299,2451,0,6
1777450935.039766,2256,0,6
1777450935.041565,1909,0,6
1777450935.046637,1599,0,6
1777450935.049564,1813,0,6
1777450935.0517702,2279,0,6
1777450935.053361,2236,0,6
1777450935.0563781,2115,0,6
1777450935.059366,1818,0,6
1777450935.065321,1795,0,6
1777450935.066507,2154,0,6
1777450935.069661,2317,0,6
1777450935.0750568,2216,0,6
1777450935.075268,1916,0,6
1777450935.077347,1688,0,6
1777450935.080352,1870,0,6
1777450935.084002,2209,0,6
1777450935.090663,2233,0,6
1777450935.091156,1934,0,6
1777450935.09266,1954,0,6
1777450935.095556,1907,0,6
1777450935.100054,2093,0,6
1777450935.10203,2307,0,6
1777450935.1045802,2244,0,6
1777450935.10736,2044,0,6
1777450935.110375,1733,0,6
1777450935.114382,1866,0,6
1777450935.117506,2206,0,6
1777450935.1202419,2275,0,6
1777450935.12448,2120,0,6
1777450935.126493,1837,0,6
1777450935.128387,1733,0,6
1777450935.131361,2045,0,6
1777450935.1343832,2289,0,6
1777450935.139379,2309,0,6
1777450935.1414762,2047,0,6
1777450935.1438222,1720,0,6
1777450935.148941,1778,0,6
1777450935.150607,2183,0,6
1777450935.152384,2349,0,6
1777450935.155862,2214,0,6
1777450935.1584158,1937,0,6
1777450935.163936,1749,0,6
1777450935.16475,2011,0,6
1777450935.167809,2300,0,6
1777450935.173676,2320,0,6
1777450935.1738439,2103,0,6
1777450935.176918,1768,0,6
1777450935.179469,1803,0,6
1777450935.182365,2183,0,6
1777450935.1891232,2352,0,6
1777450935.189918,2211,0,6
1777450935.192773,1943,0,6
1777450935.194525,1757,0,6
1777450935.200346,1955,0,6
1777450935.200375,2274,0,6
1777450935.203351,2305,0,6
1777450935.206364,2118,0,6
1777450935.212728,1774,0,6
1777450935.212849,1727,0,6
1777450935.2164748,2120,0,6
1777450935.218602,2315,0,6
1777450935.222927,2197,0,6
1777450935.2249532,1923,0,6
1777450935.227516,1649,0,6
1777450935.2303412,1823,0,6
1777450935.233336,2230,0,6
1777450935.239748,2280,0,6
1777450935.2412028,2063,0,6
1777450935.24303,1767,0,6
1777450935.2475488,1654,0,6
1777450935.249351,2014,0,6
1777450935.25192,2243,0,6
1777450935.2543502,2218,0,6
1777450935.2573628,1961,0,6
1777450935.262814,1666,0,6
1777450935.264555,1797,0,6
1777450935.26645,2182,0,6
1777450935.272099,2313,0,6
1777450935.272395,2104,0,6
1777450935.275372,1800,0,6
1777450935.278365,1695,0,6
1777450935.281367,1995,0,6
1777450935.28747,2251,0,6
1777450935.2886121,2275,0,6
1777450935.2905369,2014,0,6
1777450935.294132,1695,0,6
1777450935.298055,1795,0,6
1777450935.3000598,2141,0,6
1777450935.3026161,2270,0,6
1777450935.305429,2123,0,6
1777450935.3083699,1869,0,6
1777450935.314641,1680,0,6
1777450935.316129,1936,0,6
1777450935.320179,2228,0,6
1777450935.3246431,2240,0,6
1777450935.32516,2038,0,6
1777450935.3271081,1773,0,6
1777450935.329725,1795,0,6
1777450935.339211,2110,0,6
1777450935.3458729,2282,0,6
1777450935.348269,2201,0,6
1777450935.348497,1965,0,6
1777450935.348532,1733,0,6
1777450935.348641,1926,0,6
1777450935.3503602,2260,0,6
1777450935.354632,2299,0,6
1777450935.3563461,2071,0,6
1777450935.3626602,1787,0,6
1777450935.364523,1742,0,6
1777450935.366425,2111,0,6
1777450935.369754,2297,0,6
1777450935.3747299,2217,0,6
1777450935.374897,1964,0,6
1777450935.377485,1731,0,6
1777450935.3840508,1907,0,6
1777450935.384446,2244,0,6
1777450935.386755,2271,0,6
1777450935.389806,2132,0,6
1777450935.394378,1865,0,6
1777450935.3960168,1783,0,6
1777450935.3985658,2067,0,6
1777450935.401334,2301,0,6
1777450935.404332,2296,0,6
1777450935.409288,2047,0,6
1777450935.411288,1745,0,6
1777450935.414326,1856,0,6
1777450935.418859,2209,0,6
1777450935.419243,2299,0,6
1777450935.42221,2155,0,6
1777450935.425247,1865,0,6
1777450935.428208,1704,0,6
1777450935.43388,2007,0,6
1777450935.4347808,2275,0,6
1777450935.4384372,2290,0,6
1777450935.4441652,2046,0,6
1777450935.444313,1779,0,6
1777450935.446319,1814,0,6
1777450935.4493089,2183,0,6
1777450935.454518,2332,0,6
1777450935.456459,2172,0,6
1777450935.458304,1913,0,6
1777450935.463996,1738,0,6
1777450935.464427,1948,0,6
1777450935.4672189,2295,0,6
1777450935.470392,2277,0,6
1777450935.4732318,2084,0,6
1777450935.480814,1777,0,6
1777450935.4813251,1878,0,6
1777450935.484652,2135,0,6
1777450935.486762,2315,0,6
1777450935.4882739,2221,0,6
1777450935.4912488,1973,0,6
1777450935.494247,1684,0,6
1777450935.500387,1890,0,6
1777450935.500864,2201,0,6
1777450935.504862,2356,0,6
1777450935.506615,2078,0,6
1777450935.511171,1807,0,6
1777450935.513419,1750,0,6
1777450935.515223,2074,0,6
1777450935.518219,2281,0,6
1777450935.5212102,2330,0,6
1777450935.529963,2055,0,6
1777450935.530155,1800,0,6
1777450935.54059,1879,0,6
1777450935.54063,2285,0,6
1777450935.5406568,2372,0,6
1777450935.540681,2235,0,6
1777450935.542249,1931,0,6
1777450935.549183,1833,0,6
1777450935.54974,2095,0,6
1777450935.552099,2359,0,6
1777450935.555996,2354,0,6
1777450935.5586,2077,0,6
1777450935.561697,1806,0,6
1777450935.5639622,1932,0,6
1777450935.566611,2248,0,6
1777450935.5692239,2353,0,6
1777450935.572234,2211,0,6
1777450935.578867,1956,0,6
1777450935.5803578,1774,0,6
1777450935.584182,2022,0,6
1777450935.586176,2310,0,6
1777450935.5891929,2317,0,6
1777450935.591388,2097,0,6
1777450935.59324,1824,0,6
1777450935.6023738,1828,0,6
1777450935.605375,2177,0,6
1777450935.6066308,2335,0,6
1777450935.608146,2221,0,6
1777450935.6110752,1951,0,6
1777450935.611347,1725,0,6
1777450935.614285,1943,0,6
1777450935.617236,2261,0,6
1777450935.62023,2307,0,6
1777450935.6278021,2104,0,6
1777450935.6308658,1789,0,6
1777450935.631762,1792,0,6
1777450935.63344,2133,0,6
1777450935.638035,2315,0,6
1777450935.6384482,2249,0,6
1777450935.64134,1995,0,6
1777450935.6442308,1736,0,6
1777450935.65099,1925,0,6
1777450935.651386,2264,0,6
1777450935.65331,2319,0,6
1777450935.6597388,2136,0,6
1777450935.66034,1858,0,6
1777450935.6623948,1774,0,6
1777450935.665291,2091,0,6
1777450935.668232,2326,0,6
1777450935.6712372,2267,0,6
1777450935.676524,2018,0,6
1777450935.682427,1767,0,6
1777450935.6835132,1893,0,6
1777450935.689124,2231,0,6
1777450935.689356,2315,0,6
1777450935.691992,2182,0,6
1777450935.6922581,1927,0,6
1777450935.6952279,1740,0,6
1777450935.7018938,2031,0,6
1777450935.7059,2283,0,6
1777450935.707225,2265,0,6
1777450935.707856,2047,0,6
1777450935.712884,1735,0,6
1777450935.71331,1786,0,6
1777450935.716251,2171,0,6
1777450935.719245,2273,0,6
1777450935.7222311,2146,0,6
1777450935.725217,1877,0,6
1777450935.730794,1675,0,6
1777450935.732065,1902,0,6
1777450935.735025,2215,0,6
1777450935.741483,2231,0,6
1777450935.741781,2030,0,6
1777450935.743955,1711,0,6
1777450935.746688,1715,0,6
1777450935.753079,2107,0,6
1777450935.755386,2251,0,6
1777450935.757867,2142,0,6
1777450935.7600799,1875,0,6
1777450935.764402,1619,0,6
1777450935.76468,1830,0,6
1777450935.767487,2199,0,6
1777450935.77024,2251,0,6
1777450935.7732182,2056,0,6
1777450935.7763112,1743,0,6
1777450935.781038,1670,0,6
1777450935.783647,2068,0,6
1777450935.7862852,2293,0,6
1777450935.789003,2219,0,6
1777450935.79185,1956,0,6
1777450935.794683,1673,0,6
1777450935.797316,1799,0,6
1777450935.801781,2204,0,6
1777450935.805839,2299,0,6
1777450935.8066618,2132,0,6
1777450935.8095748,1792,0,6
1777450935.8125608,1694,0,6
1777450935.8153741,2010,0,6
1777450935.818219,2292,0,6
1777450935.82125,2269,0,6
1777450935.824446,2017,0,6
1777450935.8288262,1685,0,6
1777450935.83151,1793,0,6
1777450935.833604,2197,0,6
1777450935.837124,2336,0,6
1777450935.8404212,2166,0,6
1777450935.8423061,1856,0,6
1777450935.8452249,1691,0,6
1777450935.8531961,1968,0,6
1777450935.854744,2302,0,6
1777450935.8597498,2293,0,6
1777450935.865416,2057,0,6
1777450935.8673081,1762,0,6
1777450935.8678122,1818,0,6
1777450935.868099,2181,0,6
1777450935.869477,2339,0,6
1777450935.872289,2211,0,6
1777450935.875231,1957,0,6
1777450935.883086,1728,0,6
1777450935.8851478,1958,0,6
1777450935.885609,2275,0,6
1777450935.888701,2309,0,6
1777450935.8941782,2092,0,6
1777450935.894453,1799,0,6
1777450935.896718,1780,0,6
1777450935.899316,2146,0,6
1777450935.904137,2331,0,6
1777450935.906971,2231,0,6
1777450935.909387,1969,0,6
1777450935.912659,1714,0,6
1777450935.91594,1910,0,6
1777450935.9181209,2255,0,6
1777450935.920921,2320,0,6
1777450935.924437,2105,0,6
1777450935.926931,1822,0,6
1777450935.9376,1735,0,6
1777450935.938904,2108,0,6
1777450935.941359,2316,0,6
1777450935.944582,2259,0,6
1777450935.9449658,2003,0,6
1777450935.94549,1730,0,6
1777450935.947493,1870,0,6
1777450935.9502358,2255,0,6
1777450935.956031,2349,0,6
1777450935.957409,2157,0,6
1777450935.96233,1890,0,6
1777450935.967978,1748,0,6
1777450935.9704041,2056,0,6
1777450935.970478,2335,0,6
1777450935.971863,2299,0,6
1777450935.974496,2067,0,6
1777450935.9772742,1747,0,6
1777450935.980362,1801,0,6
1777450935.985204,2213,0,6
1777450935.989117,2356,0,6
1777450935.989558,2218,0,6
1777450935.9925618,1907,0,6
1777450935.9956841,1728,0,6
1777450935.9982562,1976,0,6
1777450936.001205,2327,0,6
1777450936.008022,2324,0,6
1777450936.00944,2075,0,6
1777450936.011729,1749,0,6
1777450936.013519,1805,0,6
1777450936.016383,2182,0,6
1777450936.0192199,2328,0,6
1777450936.022243,2245,0,6
1777450936.025252,1956,0,6
1777450936.035022,1705,0,6
1777450936.045419,1949,0,6
1777450936.045877,2318,0,6
1777450936.0459762,2330,0,6
1777450936.046059,2110,0,6
1777450936.046133,1827,0,6
1777450936.046206,1771,0,6
1777450936.049252,2140,0,6
1777450936.0568728,2327,0,6
1777450936.06559,2263,0,6
1777450936.066033,2007,0,6
1777450936.067797,1744,0,6
1777450936.068407,1929,0,6
1777450936.0688,2276,0,6
1777450936.07022,2329,0,6
1777450936.073219,2140,0,6
1777450936.0762188,1839,0,6
1777450936.085183,1729,0,6
1777450936.0879722,2079,0,6
1777450936.090474,2304,0,6
1777450936.095098,2264,0,6
1777450936.09585,2027,0,6
1777450936.0987,1724,0,6
1777450936.0990982,1852,0,6
1777450936.1004522,2248,0,6
1777450936.107614,2337,0,6
1777450936.110507,2167,0,6
1777450936.114752,1868,0,6
1777450936.119195,1735,0,6
1777450936.1197178,2019,0,6
1777450936.120152,2290,0,6
1777450936.1223328,2253,0,6
1777450936.1242251,2042,0,6
1777450936.127241,1766,0,6
1777450936.130222,1814,0,6
1777450936.136666,2176,0,6
1777450936.1386728,2313,0,6
1777450936.1410549,2205,0,6
1777450936.144245,1848,0,6
1777450936.147083,1691,0,6
1777450936.1495428,1978,0,6
1777450936.1512399,2280,0,6
1777450936.157811,2289,0,6
1777450936.159502,2093,0,6
1777450936.161134,1794,0,6
1777450936.164865,1790,0,6
1777450936.169986,2140,0,6
1777450936.170625,2354,0,6
1777450936.1729438,2220,0,6
1777450936.1756,1957,0,6
1777450936.178236,1712,0,6
1777450936.1811142,1906,0,6
1777450936.1891851,2227,0,6
1777450936.190934,2312,0,6
1777450936.192609,2147,0,6
1777450936.1937149,1785,0,6
1777450936.1985972,1739,0,6
1777450936.2007968,2147,0,6
1777450936.20254,2345,0,6
1777450936.209596,2245,0,6
1777450936.212502,2033,0,6
1777450936.2143848,1742,0,6
1777450936.215822,1887,0,6
1777450936.218749,2306,0,6
1777450936.223736,2377,0,6
1777450936.223777,2159,0,6
1777450936.22642,1882,0,6
1777450936.229101,1774,0,6
1777450936.232115,2079,0,6
1777450936.2383842,2359,0,6
1777450936.238849,2316,0,6
1777450936.243513,2031,0,6
1777450936.2498062,1713,0,6
1777450936.250269,1838,0,6
1777450936.2506292,2222,0,6
1777450936.253599,2408,0,6
1777450936.256386,2248,0,6
1777450936.264514,1927,0,6
1777450936.266856,1738,0,6
1777450936.269382,2022,0,6
1777450936.271148,2313,0,6
1777450936.274164,2276,0,6
1777450936.2743838,2001,0,6
1777450936.277288,1650,0,6
1777450936.280118,1871,0,6
1777450936.28311,2295,0,6
1777450936.286127,2233,0,6
1777450936.29376,2278,0,6
1777450936.29391,2013,0,6
1777450936.296115,1686,0,6
1777450936.301836,1999,0,6
1777450936.3024662,2440,0,6
1777450936.3048651,2187,0,6
1777450936.3083441,2063,0,6
1777450936.3185432,1843,0,6
1777450936.320558,1749,0,6
1777450936.321137,2100,0,6
1777450936.325719,2400,0,6
1777450936.32608,2259,0,6
1777450936.326238,1978,0,6
1777450936.328438,1628,0,6
1777450936.3312058,1510,0,6
1777450936.3342981,2369,0,6
1777450936.3371031,2492,0,6
1777450936.345105,2249,0,6
1777450936.347849,1899,0,6
1777450936.354866,1816,0,6
1777450936.355188,2246,0,6
1777450936.3557088,2433,0,6
1777450936.3581052,2320,0,6
1777450936.3583841,2043,0,6
1777450936.3611221,1672,0,6
1777450936.368022,1773,0,6
1777450936.3684711,2211,0,6
1777450936.378849,2227,0,6
1777450936.379051,2148,0,6
1777450936.379394,1888,0,6
1777450936.3797529,1729,0,6
1777450936.382772,2034,0,6
1777450936.3853812,2195,0,6
1777450936.388129,2213,0,6
1777450936.391096,2056,0,6
1777450936.3970509,1755,0,6
1777450936.3982232,1734,0,6
1777450936.4001322,2097,0,6
1777450936.404292,2494,0,6
1777450936.4088771,2351,0,6
1777450936.411425,1922,0,6
1777450936.4120908,1694,0,6
1777450936.415124,1941,0,6
1777450936.423315,2253,0,6
1777450936.423606,2287,0,6
1777450936.425737,2062,0,6
1777450936.427952,1714,0,6
1777450936.430395,1738,0,6
1777450936.4337122,2135,0,6
1777450936.436484,2420,0,6
1777450936.4391448,2038,0,6
1777450936.442102,1720,0,6
1777450936.4452019,1907,0,6
1777450936.4546912,2089,0,6
1777450936.455035,2168,0,6
1777450936.4591858,2121,0,6
1777450936.4619908,2221,0,6
1777450936.4623308,1774,0,6
1777450936.465842,1784,0,6
1777450936.466364,2235,0,6
1777450936.469413,2272,0,6
1777450936.4721239,2173,0,6
1777450936.481475,2093,0,6
1777450936.481676,1799,0,6
1777450936.483753,1765,0,6
1777450936.4867258,2289,0,6
1777450936.48904,2393,0,6
1777450936.492486,2155,0,6
1777450936.494496,1659,0,6
1777450936.4961011,1550,0,6
1777450936.4997592,2173,0,6
1777450936.50246,2188,0,6
1777450936.5051541,2119,0,6
1777450936.513547,2006,0,6
1777450936.513758,1830,0,6
1777450936.5183449,1565,0,6
1777450936.523229,2169,0,6
1777450936.525454,2596,0,6
1777450936.525532,2354,0,6
1777450936.526091,1709,0,6
1777450936.528988,1402,0,6
1777450936.5369248,2139,0,6
1777450936.538647,2470,0,6
1777450936.541074,2159,0,6
1777450936.542393,1789,0,6
1777450936.545096,1552,0,6
1777450936.5484512,1959,0,6
1777450936.5508428,2254,0,6
1777450936.5535629,2348,0,6
1777450936.556148,2349,0,6
1777450936.558997,1896,0,6
1777450936.568233,2207,0,6
1777450936.574035,2062,0,6
1777450936.574636,2229,0,6
1777450936.579288,2419,0,6
1777450936.5836768,2051,0,6
1777450936.583796,1749,0,6
1777450936.583832,1746,0,6
1777450936.5838609,2107,0,6
1777450936.586546,2024,0,6
1777450936.597567,1829,0,6
1777450936.59994,2042,0,6
1777450936.604689,1050,0,6
1777450936.6050482,2449,0,6
1777450936.6053498,3269,0,6
1777450936.6077828,2467,0,6
1777450936.607908,2214,0,6
1777450936.609983,1816,0,6
1777450936.6130052,1724,0,6
1777450936.6167328,2476,0,6
1777450936.637696,2471,0,6
1777450936.637758,1928,0,6
1777450936.637791,1423,0,6
1777450936.6378188,1866,0,6
1777450936.637847,1691,0,6
1777450936.637874,1858,0,6
1777450936.6379,2626,0,6
1777450936.640588,2496,0,6
1777450936.648072,1845,0,6
1777450936.650072,1642,0,6
1777450936.65025,2090,0,6
1777450936.652533,2274,0,6
1777450936.656317,2410,0,6
1777450936.6619809,2104,0,6
1777450936.662071,950,0,6
1777450936.6639712,2367,0,6
1777450936.6669922,2539,0,6
1777450936.670024,2348,0,6
1777450936.678346,2036,0,6
1777450936.678411,1809,0,6
1777450936.6799731,1536,0,6
1777450936.684591,2184,0,6
1777450936.685332,2258,0,6
1777450936.6920278,2001,0,6
1777450936.6942809,2106,0,6
1777450936.695008,2076,0,6
1777450936.697678,1665,0,6
1777450936.70624,1778,0,6
1777450936.7083788,2212,0,6
1777450936.711655,1326,0,6
1777450936.7133162,2003,0,6
1777450936.7194922,2726,0,6
1777450936.719993,2615,0,6
1777450936.720451,2216,0,6
1777450936.723209,1886,0,6
1777450936.724603,2040,0,6
1777450936.7272918,2306,0,6
1777450936.729985,2087,0,6
1777450936.732979,2012,0,6
1777450936.743424,1685,0,6
1777450936.745706,1742,0,6
1777450936.746397,1582,0,6
1777450936.7471628,2077,0,6
1777450936.751141,1976,0,6
1777450936.751497,2212,0,6
1777450936.755269,2253,0,6
1777450936.757292,1689,0,6
1777450936.7600808,2049,0,6
1777450936.767358,2261,0,6
1777450936.7694788,1805,0,6
1777450936.771708,2193,0,6
1777450936.7721238,2494,0,6
1777450936.7762089,2110,0,6
1777450936.782024,1686,0,6
1777450936.782298,1851,0,6
1777450936.784949,2336,0,6
1777450936.78761,2330,0,6
1777450936.790258,1981,0,6
1777450936.792972,1752,0,6
1777450936.795986,1441,0,6
1777450936.8032541,1722,0,6
1777450936.805019,2104,0,6
1777450936.8069592,2375,0,6
1777450936.8090198,2710,0,6
1777450936.815337,1871,0,6
1777450936.815508,1380,0,6
1777450936.8180501,2510,0,6
1777450936.819983,1912,0,6
1777450936.82322,2561,0,6
1777450936.8293178,2250,0,6
1777450936.830376,1930,0,6
1777450936.8321438,2000,0,6
1777450936.83853,2154,0,6
1777450936.842144,1843,0,6
1777450936.842462,2320,0,6
1777450936.845151,1623,0,6
1777450936.846977,1680,0,6
1777450936.849973,2142,0,6
1777450936.852981,2555,0,6
1777450936.856158,2381,0,6
1777450936.865238,1841,0,6
1777450936.8656378,1608,0,6
1777450936.865806,2279,0,6
1777450936.869335,2481,0,6
1777450936.875479,2484,0,6
1777450936.8758569,2063,0,6
1777450936.878776,1970,0,6
1777450936.8801532,1656,0,6
1777450936.8829749,2151,0,6
1777450936.889668,2375,0,6
1777450936.8917701,2366,0,6
1777450936.892142,1901,0,6
1777450936.8965518,1643,0,6
1777450936.898889,1934,0,6
1777450936.9023218,2197,0,6
1777450936.905118,2079,0,6
1777450936.906972,2400,0,6
1777450936.90996,2045,0,6
1777450936.91296,1667,0,6
1777450936.9161322,1809,0,6
1777450936.921356,2509,0,6
1777450936.92282,2523,0,6
1777450936.926741,2207,0,6
1777450936.9332428,1616,0,6
1777450936.9334688,1153,0,6
1777450936.934114,2246,0,6
1777450936.937234,2893,0,6
1777450936.939988,1874,0,6
1777450936.9473522,2199,0,6
1777450936.947486,1803,0,6
1777450936.949366,1962,0,6
1777450936.9536262,2453,0,6
1777450936.955932,2559,0,6
1777450936.9593139,2104,0,6
1777450936.961678,1758,0,6
1777450936.9648519,1649,0,6
1777450936.9674911,2069,0,6
1777450936.9701319,2063,0,6
1777450936.976995,2218,0,6
1777450936.980627,2013,0,6
1777450936.98101,1758,0,6
1777450936.983448,1950,0,6
1777450936.985632,2250,0,6
1777450936.991582,2346,0,6
1777450936.99206,2183,0,6
1777450936.9947572,1797,0,6
1777450936.997371,1626,0,6
1777450937.0072262,1551,0,6
1777450937.009162,2449,0,6
1777450937.010017,2414,0,6
1777450937.010941,1993,0,6
1777450937.013985,1668,0,6
1777450937.0173771,2074,0,6
1777450937.017996,2163,0,6
1777450937.0209239,2406,0,6
1777450937.0238562,2455,0,6
1777450937.0268512,1817,0,6
1777450937.029852,1617,0,6
1777450937.036858,1801,0,6
1777450937.0370371,1993,0,6
1777450937.039465,2561,0,6
1777450937.043781,2238,0,6
1777450937.045589,1675,0,6
1777450937.049342,1771,0,6
1777450937.051936,2108,0,6
1777450937.053849,2316,0,6
1777450937.061641,2223,0,6
1777450937.0627148,2025,0,6
1777450937.064118,1452,0,6
1777450937.066334,1774,0,6
1777450937.069995,2333,0,6
1777450937.073754,2379,0,6
1777450937.0756412,2195,0,6
1777450937.077866,1890,0,6
1777450937.08086,1878,0,6
1777450937.08388,1838,0,6
1777450937.09215,2096,0,6
1777450937.096641,2684,0,6
1777450937.097703,1793,0,6
1777450937.098731,1071,0,6
1777450937.10138,2130,0,6
1777450937.105386,2869,0,6
1777450937.105673,2391,0,6
1777450937.108199,2053,0,6
1777450937.110857,1871,0,6
1777450937.118092,1912,0,6
1777450937.118818,2077,0,6
1777450937.121053,2121,0,6
1777450937.125293,2195,0,6
1777450937.125877,1707,0,6
1777450937.1308532,1518,0,6
1777450937.133332,1840,0,6
1777450937.1348789,2108,0,6
1777450937.1378639,2434,0,6
1777450937.140845,2130,0,6
1777450937.143848,1544,0,6
1777450937.150557,1768,0,6
1777450937.152317,2676,0,6
1777450937.154921,2359,0,6
1777450937.158675,2189,0,6
1777450937.162463,1975,0,6
1777450937.1627982,1561,0,6
1777450937.165535,1939,0,6
1777450937.168213,2238,0,6
1777450937.176943,2582,0,6
1777450937.1789272,2122,0,6
1777450937.179895,1744,0,6
1777450937.181916,1451,0,6
1777450937.187642,1954,0,6
1777450937.188031,2379,0,6
1777450937.190589,2522,0,6
1777450937.1919842,1976,0,6
1777450937.194845,1703,0,6
1777450937.197855,1727,0,6
1777450937.2008572,2188,0,6
1777450937.207079,2160,0,6
1777450937.209451,2360,0,6
1777450937.211766,2103,0,6
1777450937.214154,1443,0,6
1777450937.219625,2315,0,6
1777450937.2198532,2392,0,6
1777450937.2221282,2269,0,6
1777450937.224863,2102,0,6
1777450937.2323241,1861,0,6
1777450937.2332852,1805,0,6
1777450937.235337,2245,0,6
1777450937.237719,2322,0,6
1777450937.241615,2209,0,6
1777450937.245088,1963,0,6
1777450937.2475011,1732,0,6
1777450937.2488909,1915,0,6
1777450937.251848,2152,0,6
1777450937.254843,2336,0,6
1777450937.2585459,2038,0,6
1777450937.263649,1852,0,6
1777450937.2667441,1726,0,6
1777450937.267255,2183,0,6
1777450937.270941,2372,0,6
1777450937.276743,2281,0,6
1777450937.27705,1995,0,6
1777450937.2792802,1714,0,6
1777450937.281939,1861,0,6
1777450937.288665,2193,0,6
1777450937.28955,2302,0,6
1777450937.291908,2139,0,6
1777450937.294045,1906,0,6
1777450937.297454,1747,0,6
1777450937.300734,2095,0,6
1777450937.303138,2356,0,6
1777450937.305931,2306,0,6
1777450937.308865,2053,0,6
1777450937.311869,1713,0,6
1777450937.317415,1802,0,6
1777450937.3187149,2135,0,6
1777450937.3224819,2385,0,6
1777450937.32463,2108,0,6
1777450937.329232,1926,0,6
1777450937.331255,1807,0,6
1777450937.333041,1994,0,6
1777450937.33588,2369,0,6
1777450937.3410199,2333,0,6
1777450937.3428721,2065,0,6
1777450937.345126,1723,0,6
1777450937.34847,1767,0,6
1777450937.352078,2026,0,6
1777450937.354239,2277,0,6
1777450937.35687,2197,0,6
1777450937.359839,1923,0,6
1777450937.3628428,1682,0,6
1777450937.3686862,1918,0,6
1777450937.369188,2300,0,6
1777450937.37376,2291,0,6
1777450937.376865,2060,0,6
1777450937.380336,1716,0,6
1777450937.382632,1686,0,6
1777450937.3839412,2081,0,6
1777450937.386964,2233,0,6
1777450937.392116,2171,0,6
1777450937.394028,1876,0,6
1777450937.3978848,1623,0,6
1777450937.399816,1880,0,6
1777450937.40332,2253,0,6
1777450937.4054751,2303,0,6
1777450937.4080472,2094,0,6
1777450937.410861,1811,0,6
1777450937.413823,1672,0,6
1777450937.419717,2058,0,6
1777450937.420196,2317,0,6
1777450937.42414,2240,0,6
1777450937.425923,1987,0,6
1777450937.431594,1696,0,6
1777450937.431842,1820,0,6
1777450937.4348412,2168,0,6
1777450937.43784,2252,0,6
1777450937.443254,2133,0,6
1777450937.444716,1849,0,6
1777450937.4482229,1654,0,6
1777450937.4499168,1959,0,6
1777450937.453172,2269,0,6
1777450937.4561121,2291,0,6
1777450937.458741,2026,0,6
1777450937.461712,1630,0,6
1777450937.4695811,1776,0,6
1777450937.4716759,2151,0,6
1777450937.471856,2283,0,6
1777450937.474154,2142,0,6
1777450937.477296,1826,0,6
1777450937.480819,1607,0,6
1777450937.483101,1923,0,6
1777450937.485711,2217,0,6
1777450937.492107,2233,0,6
1777450937.492224,2006,0,6
1777450937.495091,1710,0,6
1777450937.498917,1757,0,6
1777450937.5019891,2133,0,6
1777450937.503968,2300,0,6
1777450937.5067148,2220,0,6
1777450937.50973,1904,0,6
1777450937.512702,1684,0,6
1777450937.517299,1889,0,6
1777450937.5197408,2313,0,6
1777450937.5220952,2281,0,6
1777450937.524989,2074,0,6
1777450937.527922,1743,0,6
1777450937.530868,1713,0,6
1777450937.533728,2110,0,6
1777450937.537421,2276,0,6
1777450937.5421162,2226,0,6
1777450937.54293,1934,0,6
1777450937.548627,1729,0,6
1777450937.5487769,1881,0,6
1777450937.551735,2235,0,6
1777450937.554709,2295,0,6
1777450937.557738,2139,0,6
1777450937.5647092,1808,0,6
1777450937.565557,1724,0,6
1777450937.5670679,2046,0,6
1777450937.5704389,2298,0,6
1777450937.575043,2213,0,6
1777450937.5771499,1974,0,6
1777450937.578735,1684,0,6
1777450937.5846741,1822,0,6
1777450937.584985,2185,0,6
1777450937.592159,2350,0,6
1777450937.592248,2138,0,6
1777450937.595169,1774,0,6
1777450937.596855,1725,0,6
1777450937.5997188,2003,0,6
1777450937.602732,2300,0,6
1777450937.6058629,2281,0,6
1777450937.610112,2036,0,6
1777450937.612355,1718,0,6
1777450937.6153548,1823,0,6
1777450937.619993,2221,0,6
1777450937.62204,2284,0,6
1777450937.623714,2175,0,6
1777450937.626719,1894,0,6
1777450937.629737,1727,0,6
1777450937.634994,1964,0,6
1777450937.637283,2282,0,6
1777450937.639731,2268,0,6
1777450937.645139,2089,0,6
1777450937.645257,1803,0,6
1777450937.648167,1808,0,6
1777450937.650822,2143,0,6
1777450937.653698,2331,0,6
1777450937.6600409,2189,0,6
1777450937.6612322,1910,0,6
1777450937.663161,1726,0,6
1777450937.6680698,1975,0,6
1777450937.671149,2258,0,6
1777450937.6731148,2301,0,6
1777450937.6747038,2086,0,6
1777450937.680917,1808,0,6
1777450937.68171,1752,0,6
1777450937.6837509,2120,0,6
1777450937.686953,2327,0,6
1777450937.691707,2245,0,6
1777450937.6936572,1957,0,6
1777450937.6962109,1729,0,6
1777450937.6987891,1887,0,6
1777450937.701717,2242,0,6
1777450937.707624,2314,0,6
1777450937.708832,2129,0,6
1777450937.713696,1831,0,6
1777450937.7155561,1743,0,6
1777450937.719028,2083,0,6
1777450937.7208,2308,0,6
1777450937.722846,2275,0,6
1777450937.7292979,2041,0,6
1777450937.7305448,1746,0,6
1777450937.73221,1870,0,6
1777450937.7354088,2226,0,6
1777450937.739796,2324,0,6
1777450937.741746,2159,0,6
1777450937.744307,1879,0,6
1777450937.746858,1737,0,6
1777450937.74976,2004,0,6
1777450937.754682,2283,0,6
1777450937.7570739,2272,0,6
1777450937.759207,2059,0,6
1777450937.761903,1755,0,6
1777450937.764802,1825,0,6
1777450937.767709,2187,0,6
1777450937.770731,2332,0,6
1777450937.7737029,2155,0,6
1777450937.779263,1899,0,6
1777450937.780352,1712,0,6
1777450937.783741,1959,0,6
1777450937.7865589,2276,0,6
1777450937.7894368,2278,0,6
1777450937.792077,2061,0,6
1777450937.794744,1760,0,6
1777450937.797703,1750,0,6
1777450937.803869,2122,0,6
1777450937.803968,2304,0,6
1777450937.8075252,2188,0,6
1777450937.810345,1920,0,6
1777450937.813138,1711,0,6
1777450937.815777,1916,0,6
1777450937.818711,2241,0,6
1777450937.82171,2295,0,6
1777450937.827776,2135,0,6
1777450937.829779,1830,0,6
1777450937.831648,1753,0,6
1777450937.836792,2108,0,6
1777450937.836928,2316,0,6
1777450937.8399968,2244,0,6
1777450937.842745,2012,0,6
1777450937.8457441,1741,0,6
1777450937.8506398,1874,0,6
1777450937.852926,2240,0,6
1777450937.855117,2319,0,6
1777450937.857694,2165,0,6
1777450937.860659,1856,0,6
1777450937.863586,1728,0,6
1777450937.8670762,2052,0,6
1777450937.869628,2286,0,6
1777450937.8749938,2270,0,6
1777450937.876859,2039,0,6
1777450937.878987,1751,0,6
1777450937.884321,1828,0,6
1777450937.884616,2202,0,6
1777450937.887616,2308,0,6
1777450937.8905852,2161,0,6
1777450937.89362,1892,0,6
1777450937.898901,1716,0,6
1777450937.900613,1998,0,6
1777450937.902859,2281,0,6
1777450937.907744,2293,0,6
1777450937.909586,2070,0,6
1777450937.912142,1767,0,6
1777450937.914706,1792,0,6
1777450937.917612,2165,0,6
1777450937.921994,2308,0,6
1777450937.9239008,2208,0,6
1777450937.928457,1954,0,6
1777450937.931314,1704,0,6
1777450937.93311,1928,0,6
1777450937.9356759,2274,0,6
1777450937.938612,2300,0,6
1777450937.944979,2104,0,6
1777450937.945358,1795,0,6
1777450937.949228,1770,0,6
1777450937.951963,2128,0,6
1777450937.954665,2319,0,6
1777450937.956634,2229,0,6
1777450937.959615,1999,0,6
1777450937.962593,1729,0,6
1777450937.968822,1903,0,6
1777450937.969577,2275,0,6
1777450937.972598,2312,0,6
1777450937.9756632,2141,0,6
1777450937.9783611,1818,0,6
1777450937.9805849,1719,0,6
1777450937.9836218,2074,0,6
1777450937.986624,2309,0,6
1777450937.991504,2269,0,6
1777450937.992884,2012,0,6
1777450937.9961479,1725,0,6
1777450938.0009012,1845,0,6
1777450938.002732,2233,0,6
1777450938.005287,2339,0,6
1777450938.007713,2184,0,6
1777450938.010611,1869,0,6
1777450938.0141199,1716,0,6
1777450938.0176482,2014,0,6
1777450938.020586,2307,0,6
1777450938.023293,2283,0,6
1777450938.0258539,2056,0,6
1777450938.0285928,1744,0,6
1777450938.03158,1822,0,6
1777450938.0381398,2194,0,6
1777450938.039567,2338,0,6
1777450938.041214,2224,0,6
1777450938.044062,1926,0,6
1777450938.046646,1703,0,6
1777450938.0495832,1947,0,6
1777450938.052609,2277,0,6
1777450938.0555809,2316,0,6
1777450938.060493,2131,0,6
1777450938.062502,1775,0,6
1777450938.065683,1825,0,6
1777450938.069259,2191,0,6
1777450938.0710452,2374,0,6
1777450938.0735931,2317,0,6
1777450938.076576,2017,0,6
1777450938.082707,1767,0,6
1777450938.083076,1986,0,6
1777450938.086196,2343,0,6
1777450938.089034,2388,0,6
1777450938.091624,2146,0,6
1777450938.094579,1793,0,6
1777450938.0975869,1820,0,6
1777450938.100584,2144,0,6
1777450938.10567,2337,0,6
1777450938.1072729,2251,0,6
1777450938.110253,1996,0,6
1777450938.1141162,1751,0,6
1777450938.115972,1878,0,6
1777450938.118606,2232,0,6
1777450938.121619,2334,0,6
1777450938.124728,2174,0,6
1777450938.128761,1903,0,6
1777450938.131841,1700,0,6
1777450938.134594,2033,0,6
1777450938.137217,2276,0,6
1777450938.139843,2297,0,6
1777450938.142596,2031,0,6
1777450938.145584,1809,0,6
1777450938.150918,1792,0,6
1777450938.152669,2245,0,6
1777450938.15468,2343,0,6
1777450938.1591942,2201,0,6
1777450938.1610081,1918,0,6
1777450938.163599,1681,0,6
1777450938.166594,2003,0,6
1777450938.169572,2320,0,6
1777450938.173571,2297,0,6
1777450938.176713,2040,0,6
1777450938.179702,1717,0,6
1777450938.182126,1794,0,6
1777450938.1848161,2181,0,6
1777450938.187571,2317,0,6
1777450938.190561,2239,0,6
1777450938.195787,1936,0,6
1777450938.1979709,1704,0,6
1777450938.199827,1952,0,6
1777450938.204567,2303,0,6
1777450938.206433,2284,0,6
1777450938.208983,1979,0,6
1777450938.2116249,1648,0,6
1777450938.214585,1795,0,6
1777450938.2183511,2279,0,6
1777450938.222112,2375,0,6
1777450938.223756,2222,0,6
1777450938.227394,1923,0,6
1777450938.230002,1804,0,6
1777450938.232615,1927,0,6
1777450938.235615,2231,0,6
1777450938.240816,2460,0,6
1777450938.242603,2215,0,6
1777450938.2459269,1815,0,6
1777450938.249442,1700,0,6
1777450938.251286,2059,0,6
1777450938.253846,2384,0,6
1777450938.25658,2300,0,6
1777450938.262929,2006,0,6
1777450938.263,1700,0,6
1777450938.26637,1813,0,6
1777450938.268691,2134,0,6
1777450938.272775,2219,0,6
1777450938.274591,2110,0,6
1777450938.2775948,1943,0,6
1777450938.2806349,1654,0,6
1777450938.284435,2054,0,6
1777450938.286577,2297,0,6
1777450938.290698,2239,0,6
1777450938.2932181,2083,0,6
1777450938.295784,1864,0,6
1777450938.29858,1991,0,6
1777450938.301592,2282,0,6
1777450938.3062668,2365,0,6
1777450938.308109,2227,0,6
1777450938.312209,1958,0,6
1777450938.314702,1849,0,6
1777450938.3165739,1924,0,6
1777450938.3195782,2146,0,6
1777450938.322581,2241,0,6
1777450938.3277981,2058,0,6
1777450938.3300328,1761,0,6
1777450938.331764,1760,0,6
1777450938.3366551,2189,0,6
1777450938.338455,2423,0,6
1777450938.3410099,2274,0,6
1777450938.343599,1944,0,6
1777450938.346642,1476,0,6
1777450938.350185,1842,0,6
1777450938.353354,2388,0,6
1777450938.356032,2420,0,6
1777450938.358596,2154,0,6
1777450938.361568,1807,0,6
1777450938.364587,1881,0,6
1777450938.3675709,2139,0,6
1777450938.371933,2388,0,6
1777450938.374023,2270,0,6
1777450938.378082,1987,0,6
1777450938.3804429,1717,0,6
1777450938.3830888,1835,0,6
1777450938.385646,2159,0,6
1777450938.388573,2292,0,6
1777450938.391576,2142,0,6
1777450938.395092,1874,0,6
1777450938.398222,1747,0,6
1777450938.402899,2064,0,6
1777450938.404574,2280,0,6
1777450938.4069161,2201,0,6
1777450938.409565,1967,0,6
1777450938.412575,1684,0,6
1777450938.4167418,1831,0,6
1777450938.4195452,2178,0,6
1777450938.4224231,2334,0,6
1777450938.4248252,2188,0,6
1777450938.427582,1891,0,6
1777450938.4306061,1727,0,6
1777450938.43358,1972,0,6
1777450938.437189,2235,0,6
1777450938.440681,2232,0,6
1777450938.443508,2059,0,6
1777450938.445707,1708,0,6
1777450938.448579,1783,0,6
1777450938.451576,2188,0,6
1777450938.454577,2336,0,6
1777450938.4588969,2189,0,6
1777450938.4611452,1895,0,6
1777450938.464054,1733,0,6
1777450938.4675121,1954,0,6
1777450938.469992,2254,0,6
1777450938.472574,2236,0,6
1777450938.4755998,1969,0,6
1777450938.480726,1863,0,6
1777450938.482621,1734,0,6
1777450938.485058,2083,0,6
1777450938.4888651,2331,0,6
1777450938.490655,2317,0,6
1777450938.493603,2028,0,6
1777450938.496614,1666,0,6
1777450938.5027268,1849,0,6
1777450938.503913,2224,0,6
1777450938.505754,2276,0,6
1777450938.51046,2013,0,6
1777450938.5121238,1731,0,6
1777450938.514675,1647,0,6
1777450938.517576,2079,0,6
1777450938.523613,2325,0,6
1777450938.523962,2172,0,6
1777450938.5276139,1826,0,6
1777450938.53022,1844,0,6
1777450938.532716,1645,0,6
1777450938.535576,2328,0,6
1777450938.5385768,2422,0,6
1777450938.541578,1980,0,6
1777450938.545592,1481,0,6
1777450938.547602,1822,0,6
1777450938.550903,2330,0,6
1777450938.554147,1976,0,6
1777450938.556839,2344,0,6
1777450938.559605,2214,0,6
1777450938.5626082,1638,0,6
1777450938.567405,1790,0,6
1777450938.569288,2338,0,6
1777450938.5721679,2442,0,6
1777450938.575579,1666,0,6
1777450938.578153,2093,0,6
1777450938.580696,2001,0,6
1777450938.5836108,1961,0,6
1777450938.588375,2299,0,6
1777450938.590397,2104,0,6
1777450938.594409,2150,0,6
1777450938.596606,1903,0,6
1777450938.5992692,2138,0,6
1777450938.601908,2300,0,6
1777450938.604592,2117,0,6
1777450938.6093152,1976,0,6
1777450938.611289,2182,0,6
1777450938.615236,1683,0,6
1777450938.61758,1884,0,6
1777450938.620311,2609,0,6
1777450938.622818,2191,0,6
1777450938.625612,2075,0,6
1777450938.630498,1935,0,6
1777450938.632482,1295,0,6
1777450938.6364758,1827,0,6
1777450938.638695,2815,0,6
1777450938.640595,2433,0,6
1777450938.643609,1940,0,6
1777450938.6466188,1418,0,6
1777450938.651857,2199,0,6
1777450938.653878,2537,0,6
1777450938.6557581,2263,0,6
1777450938.660447,1976,0,6
1777450938.662175,2020,0,6
1777450938.664732,1763,0,6
1777450938.6675808,1757,0,6
1777450938.67331,2403,0,6
1777450938.673625,2298,0,6
1777450938.676804,1985,0,6
1777450938.6816058,2083,0,6
1777450938.683267,1871,0,6
1777450938.685867,2009,0,6
1777450938.6885881,2255,0,6
1777450938.694504,2040,0,6
1777450938.694834,2193,0,6
1777450938.698099,1382,0,6
1777450938.70317,2116,0,6
1777450938.704584,2515,0,6
1777450938.7071428,2339,0,6
1777450938.7096908,1981,0,6
1777450938.712621,1447,0,6
1777450938.715636,1976,0,6
1777450938.7196229,2136,0,6
1777450938.722125,2369,0,6
1777450938.724639,2243,0,6
1777450938.727572,1714,0,6
1777450938.7305841,1627,0,6
1777450938.733581,2149,0,6
1777450938.73746,2356,0,6
1777450938.740451,2179,0,6
1777450938.743555,1998,0,6
1777450938.745804,1495,0,6
1777450938.7484858,1374,0,6
1777450938.751463,2115,0,6
1777450938.754487,2560,0,6
1777450938.7586749,2272,0,6
1777450938.760618,1964,0,6
1777450938.7637272,2048,0,6
1777450938.7670221,1876,0,6
1777450938.7697039,2033,0,6
1777450938.7724679,2300,0,6
1777450938.775457,2199,0,6
1777450938.780734,1788,0,6
1777450938.7823281,1390,0,6
1777450938.7886999,2136,0,6
1777450938.788773,2135,0,6
1777450938.790505,2324,0,6
1777450938.793464,2300,0,6
1777450938.7964852,1908,0,6
1777450938.801734,1896,0,6
1777450938.803854,1978,0,6
1777450938.8059578,2414,0,6
1777450938.8121228,2115,0,6
1777450938.812153,1418,0,6
1777450938.8144891,1950,0,6
1777450938.817461,2418,0,6
1777450938.823681,2383,0,6
1777450938.8247428,2292,0,6
1777450938.827652,1613,0,6
1777450938.8297222,1894,0,6
1777450938.833229,1989,0,6
1777450938.835971,2322,0,6
1777450938.838528,2273,0,6
1777450938.841471,1850,0,6
1777450938.848154,1761,0,6
1777450938.8485298,1932,0,6
1777450938.8518999,1951,0,6
1777450938.8543758,2364,0,6
1777450938.857134,2434,0,6
1777450938.86019,2170,0,6
1777450938.86274,1460,0,6
1777450938.865474,1872,0,6
1777450938.872756,2370,0,6
1777450938.873488,2253,0,6
1777450938.875017,2259,0,6
1777450938.879599,1746,0,6
1777450938.882071,1580,0,6
1777450938.8847759,2021,0,6
1777450938.8864708,2349,0,6
1777450938.889498,2572,0,6
1777450938.892472,2086,0,6
1777450938.9025831,1837,0,6
1777450938.907732,1933,0,6
1777450938.90799,2056,0,6
1777450938.908193,2367,0,6
1777450938.908305,2213,0,6
1777450938.910485,1941,0,6
1777450938.9134662,1641,0,6
1777450938.920831,1833,0,6
1777450938.924077,2282,0,6
1777450938.925324,2251,0,6
1777450938.9268749,2050,0,6
1777450938.929805,2012,0,6
1777450938.9320629,1727,0,6
1777450938.9345422,2092,0,6
1777450938.9374669,2376,0,6
1777450938.940476,2211,0,6
1777450938.945858,1980,0,6
1777450938.9473238,1563,0,6
1777450938.9502752,1728,0,6
1777450938.9548428,2204,0,6
1777450938.956594,2399,0,6
1777450938.958459,2196,0,6
1777450938.961462,1995,0,6
1777450938.96447,1811,0,6
1777450938.9697201,1858,0,6
1777450938.97345,2328,0,6
1777450938.974241,2408,0,6
1777450938.9774878,2069,0,6
1777450938.9803672,1565,0,6
1777450938.9824882,1150,0,6
1777450938.985474,2528,0,6
1777450938.990728,2653,0,6
1777450938.9929862,2282,0,6
1777450938.996001,1822,0,6
1777450938.9983392,1396,0,6
1777450939.0012228,2495,0,6
1777450939.0034869,2582,0,6
1777450939.006469,2331,0,6
1777450939.009461,2085,0,6
1777450939.012459,1751,0,6
1777450939.017492,1654,0,6
1777450939.021757,2027,0,6
1777450939.022582,2070,0,6
1777450939.032306,2262,0,6
1777450939.0323899,2147,0,6
1777450939.032445,1527,0,6
1777450939.034112,2069,0,6
1777450939.0392609,2261,0,6
1777450939.0418959,2118,0,6
1777450939.0442398,2176,0,6
1777450939.046072,1889,0,6
1777450939.0512168,1812,0,6
1777450939.051568,1808,0,6
1777450939.054986,2207,0,6
1777450939.057833,2374,0,6
1777450939.06051,1794,0,6
1777450939.063472,1559,0,6
1777450939.069094,1841,0,6
1777450939.070129,2249,0,6
1777450939.073751,2445,0,6
1777450939.080418,2383,0,6
1777450939.0829241,2067,0,6
1777450939.083207,1602,0,6
1777450939.084645,2114,0,6
1777450939.091487,2424,0,6
1777450939.093621,2264,0,6
1777450939.0949702,1973,0,6
1777450939.097173,1548,0,6
1777450939.10062,1778,0,6
1777450939.103926,1996,0,6
1777450939.1080298,2261,0,6
1777450939.108448,2166,0,6
1777450939.1118112,1979,0,6
1777450939.116533,1755,0,6
1777450939.118766,1829,0,6
1777450939.1262221,2505,0,6
1777450939.128584,2401,0,6
1777450939.130581,1893,0,6
1777450939.135645,1670,0,6
1777450939.136163,1790,0,6
1777450939.137929,1986,0,6
1777450939.138657,2020,0,6
1777450939.14147,2030,0,6
1777450939.151118,2489,0,6
1777450939.155328,2050,0,6
1777450939.1574981,1990,0,6
1777450939.1605692,2255,0,6
1777450939.161,2404,0,6
1777450939.1613052,2167,0,6
1777450939.163202,1814,0,6
1777450939.165864,1735,0,6
1777450939.168517,1929,0,6
1777450939.171454,2149,0,6
1777450939.1788568,2222,0,6
1777450939.17897,1797,0,6
1777450939.180778,1607,0,6
1777450939.184245,2132,0,6
1777450939.186551,2483,0,6
1777450939.189918,2484,0,6
1777450939.19295,2165,0,6
1777450939.195505,1783,0,6
1777450939.20099,1593,0,6
1777450939.202184,2029,0,6
1777450939.205894,2076,0,6
1777450939.2081048,2322,0,6
1777450939.2130299,2224,0,6
1777450939.214954,1702,0,6
1777450939.21648,1735,0,6
1777450939.219455,2188,0,6
1777450939.22249,2352,0,6
1777450939.225523,2314,0,6
1777450939.230447,1999,0,6
1777450939.232459,1709,0,6
1777450939.2349892,1960,0,6
1777450939.240939,2291,0,6
1777450939.2411032,2197,0,6
1777450939.243487,1821,0,6
1777450939.246451,1521,0,6
1777450939.251565,2095,0,6
1777450939.254101,2372,0,6
1777450939.25666,2197,0,6
1777450939.2620401,2233,0,6
1777450939.2622871,1889,0,6
1777450939.265138,1697,0,6
1777450939.2677069,2253,0,6
1777450939.270462,2365,0,6
1777450939.2734568,2288,0,6
1777450939.2794409,2058,0,6
1777450939.280343,1756,0,6
1777450939.28371,1755,0,6
1777450939.286047,2133,0,6
1777450939.2905102,2365,0,6
1777450939.292316,2185,0,6
1777450939.294893,1912,0,6
1777450939.301425,1715,0,6
1777450939.302272,1915,0,6
1777450939.3041532,2227,0,6
1777450939.307086,2336,0,6
1777450939.3100958,2086,0,6
1777450939.3133361,1780,0,6
1777450939.3156638,1782,0,6
1777450939.3184881,2134,0,6
1777450939.3221178,2353,0,6
1777450939.3246772,2240,0,6
1777450939.330106,1967,0,6
1777450939.331743,1675,0,6
1777450939.335455,1934,0,6
1777450939.336898,2247,0,6
1777450939.343926,2362,0,6
1777450939.3440268,2114,0,6
1777450939.345481,1855,0,6
1777450939.35219,1782,0,6
1777450939.353049,2109,0,6
1777450939.35528,2296,0,6
1777450939.357746,2264,0,6
1777450939.3609579,2060,0,6
1777450939.364148,1741,0,6
1777450939.3664582,1882,0,6
1777450939.3694878,2190,0,6
1777450939.372462,2391,0,6
1777450939.375457,2175,0,6
1777450939.390023,1832,0,6
1777450939.392677,1798,0,6
1777450939.3963141,2054,0,6
1777450939.3968608,2337,0,6
1777450939.398935,2305,0,6
1777450939.399497,2064,0,6
1777450939.399884,1756,0,6
1777450939.399957,1797,0,6
1777450939.402472,2174,0,6
1777450939.405376,2280,0,6
1777450939.4118688,2130,0,6
1777450939.414176,1879,0,6
1777450939.4171991,1711,0,6
1777450939.423744,1952,0,6
1777450939.4242299,2275,0,6
1777450939.42451,2273,0,6
1777450939.426935,2065,0,6
1777450939.429573,1754,0,6
1777450939.43241,1774,0,6
1777450939.43602,2110,0,6
1777450939.44339,2256,0,6
1777450939.445871,2170,0,6
1777450939.4461179,1950,0,6
1777450939.449294,1725,0,6
1777450939.452248,1930,0,6
1777450939.455772,2254,0,6
1777450939.45799,2250,0,6
1777450939.4593961,2089,0,6
1777450939.4623501,1795,0,6
1777450939.470289,1723,0,6
1777450939.47051,2083,0,6
1777450939.472548,2310,0,6
1777450939.4744792,2268,0,6
1777450939.479607,1939,0,6
1777450939.481865,1712,0,6
1777450939.4835892,1890,0,6
1777450939.4873412,2222,0,6
1777450939.489861,2283,0,6
1777450939.492556,2096,0,6
1777450939.497513,1801,0,6
1777450939.500457,1707,0,6
1777450939.503658,2059,0,6
1777450939.509513,2294,0,6
1777450939.5101178,2233,0,6
1777450939.510453,1958,0,6
1777450939.513511,1695,0,6
1777450939.516343,1793,0,6
1777450939.5225532,2158,0,6
1777450939.5238678,2298,0,6
1777450939.527334,2096,0,6
1777450939.528694,1846,0,6
1777450939.5340202,1700,0,6
1777450939.534396,1960,0,6
1777450939.537359,2254,0,6
1777450939.540334,2287,0,6
1777450939.543333,2042,0,6
1777450939.546348,1680,0,6
1777450939.551866,1779,0,6
1777450939.5526552,2171,0,6
1777450939.5567942,2273,0,6
1777450939.5588968,2155,0,6
1777450939.563999,1910,0,6
1777450939.566112,1707,0,6
1777450939.5674229,2008,0,6
1777450939.570334,2274,0,6
1777450939.576362,2201,0,6
1777450939.576577,2071,0,6
1777450939.5807092,1754,0,6
1777450939.5827992,1723,0,6
1777450939.587553,2135,0,6
1777450939.58988,2326,0,6
1777450939.5913322,2179,0,6
1777450939.59435,1929,0,6
1777450939.597363,1715,0,6
1777450939.605213,1908,0,6
1777450939.606028,2227,0,6
1777450939.609086,2275,0,6
1777450939.609565,2085,0,6
1777450939.613336,1770,0,6
1777450939.6163049,1720,0,6
1777450939.618512,2026,0,6
1777450939.621355,2275,0,6
1777450939.6273851,2214,0,6
1777450939.628659,2007,0,6
1777450939.632349,1648,0,6
1777450939.634125,1845,0,6
1777450939.638743,2202,0,6
1777450939.640846,2331,0,6
1777450939.6423528,2141,0,6
1777450939.645354,1873,0,6
1777450939.6489978,1732,0,6
1777450939.655134,2053,0,6
1777450939.655262,2303,0,6
1777450939.65765,2325,0,6
1777450939.660841,2063,0,6
1777450939.66566,1712,0,6
1777450939.667768,1799,0,6
1777450939.669337,2225,0,6
1777450939.675779,2356,0,6
1777450939.676513,2184,0,6
1777450939.6787121,1849,0,6
1777450939.681874,1710,0,6
1777450939.6864882,2004,0,6
1777450939.68848,2294,0,6
1777450939.6903071,2292,0,6
1777450939.693316,2071,0,6
1777450939.6963258,1759,0,6
1777450939.702827,1795,0,6
1777450939.702955,2180,0,6
1777450939.705415,2335,0,6
1777450939.708611,2211,0,6
1777450939.713086,1929,0,6
1777450939.714937,1694,0,6
1777450939.717498,1934,0,6
1777450939.726706,2280,0,6
1777450939.727058,2298,0,6
1777450939.73119,2085,0,6
1777450939.7360919,1767,0,6
1777450939.7364402,1800,0,6
1777450939.736825,2141,0,6
1777450939.738998,2344,0,6
1777450939.742044,2242,0,6
1777450939.7447412,1959,0,6
1777450939.7473762,1689,0,6
1777450939.755708,1889,0,6
1777450939.75698,2257,0,6
1777450939.757706,2307,0,6
1777450939.7611609,2123,0,6
1777450939.764096,1809,0,6
1777450939.766355,1737,0,6
1777450939.768363,2086,0,6
1777450939.7755048,2342,0,6
1777450939.778497,2263,0,6
1777450939.778734,2026,0,6
1777450939.782201,1718,0,6
1777450939.7845309,1839,0,6
1777450939.78775,2226,0,6
1777450939.789952,2314,0,6
1777450939.792542,2149,0,6
1777450939.795341,1856,0,6
1777450939.798505,1714,0,6
1777450939.804532,2040,0,6
1777450939.805444,2296,0,6
1777450939.8090801,2270,0,6
1777450939.8129652,2020,0,6
1777450939.816534,1734,0,6
1777450939.8185668,1822,0,6
1777450939.8199701,2208,0,6
1777450939.822756,2291,0,6
1777450939.827837,2173,0,6
1777450939.8306408,1896,0,6
1777450939.8336241,1741,0,6
1777450939.8394701,1986,0,6
1777450939.839678,2286,0,6
1777450939.842054,2291,0,6
1777450939.843432,2067,0,6
1777450939.8463712,1775,0,6
1777450939.849335,1792,0,6
1777450939.85759,2164,0,6
1777450939.859373,2317,0,6
1777450939.859549,2193,0,6
1777450939.863063,1941,0,6
1777450939.868192,1743,0,6
1777450939.8686771,1976,0,6
1777450939.8710048,2251,0,6
1777450939.873621,2318,0,6
1777450939.879668,2120,0,6
1777450939.880953,1818,0,6
1777450939.8825889,1747,0,6
1777450939.888196,2122,0,6
1777450939.8916988,2313,0,6
1777450939.893708,2242,0,6
1777450939.895348,1989,0,6
1777450939.897919,1742,0,6
1777450939.900495,1909,0,6
1777450939.9033148,2256,0,6
1777450939.9219599,2316,0,6
1777450939.92242,2140,0,6
1777450939.9224892,1849,0,6
1777450939.9235358,1748,0,6
1777450939.923599,2083,0,6
1777450939.9236321,2300,0,6
1777450939.9282932,2267,0,6
1777450939.9521012,2028,0,6
1777450939.952256,1723,0,6
1777450939.952367,1881,0,6
1777450939.952469,2265,0,6
1777450939.9525251,2336,0,6
1777450939.952576,2136,0,6
1777450939.952707,1876,0,6
1777450939.95282,1745,0,6
1777450939.952907,2044,0,6
1777450939.954228,2307,0,6
1777450939.9686332,2293,0,6
1777450939.9687822,2062,0,6
1777450939.968961,1789,0,6
1777450939.969183,1809,0,6
1777450939.9692621,2200,0,6
1777450939.972249,2336,0,6
1777450939.9752278,2203,0,6
1777450939.978237,1930,0,6
1777450939.9846468,1723,0,6
1777450939.9847198,1976,0,6
1777450939.989164,2272,0,6
1777450939.990995,2302,0,6
1777450939.995659,2091,0,6
1777450939.997374,1769,0,6
1777450939.999938,1777,0,6
1777450940.0060139,2142,0,6
1777450940.006454,2341,0,6
1777450940.0085561,2229,0,6
1777450940.011939,1948,0,6
1777450940.0162811,1735,0,6
1777450940.0183349,1941,0,6
1777450940.0202188,2268,0,6
1777450940.023196,2312,0,6
1777450940.026216,2140,0,6
1777450940.031601,1812,0,6
1777450940.03268,1757,0,6
1777450940.036335,2110,0,6
1777450940.039114,2320,0,6
1777450940.041936,2257,0,6
1777450940.0442188,1987,0,6
1777450940.047214,1724,0,6
1777450940.052136,1867,0,6
1777450940.05422,2235,0,6
1777450940.05685,2318,0,6
1777450940.0594409,2146,0,6
1777450940.062318,1854,0,6
1777450940.0652301,1772,0,6
1777450940.068223,2072,0,6
1777450940.071208,2309,0,6
1777450940.077738,2284,0,6
1777450940.0781372,2059,0,6
1777450940.0813398,1744,0,6
1777450940.084467,1845,0,6
1777450940.0871308,2277,0,6
1777450940.089212,2345,0,6
1777450940.092223,2194,0,6
1777450940.0958211,1967,0,6
1777450940.098497,1764,0,6
1777450940.1045618,2031,0,6
1777450940.1060631,2346,0,6
1777450940.107832,2341,0,6
1777450940.111956,2110,0,6
1777450940.11362,1792,0,6
1777450940.116221,1824,0,6
1777450940.119203,2188,0,6
1777450940.122226,2316,0,6
1777450940.1270149,2230,0,6
1777450940.129078,1951,0,6
1777450940.132087,1733,0,6
1777450940.136491,1956,0,6
1777450940.1381261,2290,0,6
1777450940.1406898,2304,0,6
1777450940.143271,2088,0,6
1777450940.1462321,1798,0,6
1777450940.150432,1824,0,6
1777450940.1530418,2118,0,6
1777450940.155877,2304,0,6
1777450940.160247,2238,0,6
1777450940.162327,1970,0,6
1777450940.164223,1747,0,6
1777450940.167198,1896,0,6
1777450940.170235,2249,0,6
1777450940.177813,2320,0,6
1777450940.177898,2147,0,6
1777450940.179692,1828,0,6
1777450940.182564,1770,0,6
1777450940.1852422,2113,0,6
1777450940.1882298,2274,0,6
1777450940.1912289,2266,0,6
1777450940.194835,2005,0,6
1777450940.1996548,1740,0,6
1777450940.200402,1877,0,6
1777450940.203916,2192,0,6
1777450940.208801,2343,0,6
1777450940.210366,2161,0,6
1777450940.212225,1825,0,6
1777450940.215189,1701,0,6
1777450940.218197,2014,0,6
1777450940.235751,2333,0,6
1777450940.2357981,2271,0,6
1777450940.2359831,2013,0,6
1777450940.2361448,1721,0,6
1777450940.236178,1800,0,6
1777450940.2362518,2254,0,6
1777450940.239348,2319,0,6
1777450940.2425559,2180,0,6
1777450940.2710998,1926,0,6
1777450940.2721002,1729,0,6
1777450940.2888598,1945,0,6
1777450940.2915268,2281,0,6
1777450940.29172,2279,0,6
1777450940.291852,2029,0,6
1777450940.2919,1736,0,6
1777450940.2920861,1788,0,6
1777450940.292183,2161,0,6
1777450940.2923179,2291,0,6
1777450940.292468,2204,0,6
1777450940.292535,1894,0,6
1777450940.292589,1719,0,6
1777450940.292692,1949,0,6
1777450940.292773,2162,0,6
1777450940.292854,2355,0,6
1777450940.293215,2160,0,6
1777450940.2962098,1786,0,6
1777450940.29937,1723,0,6
1777450940.316761,1978,0,6
1777450940.317109,2451,0,6
1777450940.3173661,2427,0,6
1777450940.319274,2038,0,6
1777450940.319308,1722,0,6
1777450940.319343,1888,0,6
1777450940.320679,2252,0,6
1777450940.327135,2341,0,6
1777450940.3272362,2154,0,6
1777450940.329258,1873,0,6
1777450940.332443,1743,0,6
1777450940.336519,2023,0,6
1777450940.338484,2266,0,6
1777450940.341228,2258,0,6
1777450940.344194,1988,0,6
1777450940.3472111,1752,0,6
1777450940.351466,1784,0,6
1777450940.3536792,2209,0,6
1777450940.358119,2227,0,6
1777450940.360673,2196,0,6
1777450940.362572,2024,0,6
1777450940.3652182,1763,0,6
1777450940.368205,2035,0,6
1777450940.37123,2300,0,6
1777450940.3750699,2295,0,6
1777450940.377262,2056,0,6
1777450940.3805592,1746,0,6
1777450940.384091,1743,0,6
1777450940.386212,2138,0,6
1777450940.389218,2292,0,6
1777450940.392229,2182,0,6
1777450940.398821,1956,0,6
1777450940.3992362,1764,0,6
1777450940.402763,2009,0,6
1777450940.405681,2342,0,6
1777450940.408204,2260,0,6
1777450940.410893,1985,0,6
1777450940.41345,1682,0,6
1777450940.416237,1828,0,6
1777450940.4192388,2229,0,6
1777450940.42309,2223,0,6
1777450940.426562,2059,0,6
1777450940.428309,2162,0,6
1777450940.432006,1865,0,6
1777450940.434813,1643,0,6
1777450940.437495,2396,0,6
1777450940.440112,2628,0,6
1777450940.445817,2156,0,6
1777450940.446213,1617,0,6
1777450940.4499872,1630,0,6
1777450940.452666,2242,0,6
1777450940.45519,2308,0,6
1777450940.4581409,2385,0,6
1777450940.461101,1866,0,6
1777450940.464803,1522,0,6
1777450940.469215,1994,0,6
1777450940.471176,2281,0,6
1777450940.474489,2491,0,6
1777450940.47798,2127,0,6
1777450940.4798982,1654,0,6
1777450940.482455,1863,0,6
1777450940.4851599,1931,0,6
1777450940.488103,2143,0,6
1777450940.491837,1974,0,6
1777450940.495183,1893,0,6
1777450940.4976552,1940,0,6
1777450940.5011299,1942,0,6
1777450940.503912,2470,0,6
1777450940.5063639,2534,0,6
1777450940.509144,2371,0,6
1777450940.5145862,1981,0,6
1777450940.515861,1757,0,6
1777450940.51914,1926,0,6
1777450940.523979,1972,0,6
1777450940.524132,2391,0,6
1777450940.527096,1993,0,6
1777450940.53007,1666,0,6
1777450940.533102,1718,0,6
1777450940.538086,2111,0,6
1777450940.540201,2446,0,6
1777450940.542225,2235,0,6
1777450940.5470011,1795,0,6
1777450940.548824,2057,0,6
1777450940.5513852,2110,0,6
1777450940.5540748,2225,0,6
1777450940.5570781,2328,0,6
1777450940.5612109,2114,0,6
1777450940.5634098,1807,0,6
1777450940.566377,2008,0,6
1777450940.5699542,2132,0,6
1777450940.572681,2241,0,6
1777450940.575238,2322,0,6
1777450940.578068,1919,0,6
1777450940.58415,1550,0,6
1777450940.585784,1746,0,6
1777450940.587141,2532,0,6
1777450940.5901492,2582,0,6
1777450940.5940301,2397,0,6
1777450940.596725,1902,0,6
1777450940.5992918,1588,0,6
1777450940.602227,2197,0,6
1777450940.605531,2154,0,6
1777450940.608862,2128,0,6
1777450940.611886,2263,0,6
1777450940.614121,1661,0,6
1777450940.6171,1938,0,6
1777450940.620084,2148,0,6
1777450940.6230621,2140,0,6
1777450940.6276538,1816,0,6
1777450940.629534,1572,0,6
1777450940.633913,2225,0,6
1777450940.6361852,2431,0,6
1777450940.63809,2277,0,6
1777450940.641087,1978,0,6
1777450940.6440918,1899,0,6
1777450940.6498072,1633,0,6
1777450940.650136,1830,0,6
1777450940.653665,2323,0,6
1777450940.658358,2522,0,6
1777450940.660171,1997,0,6
1777450940.662726,1605,0,6
1777450940.665271,1723,0,6
1777450940.6681442,2528,0,6
1777450940.671575,2539,0,6
1777450940.675473,1842,0,6
1777450940.677904,1306,0,6
1777450940.6803,1727,0,6
1777450940.683208,2500,0,6
1777450940.686096,2412,0,6
1777450940.689077,1954,0,6
1777450940.6938272,2217,0,6
1777450940.69568,1681,0,6
1777450940.69982,1469,0,6
1777450940.702059,1994,0,6
1777450940.7047539,2544,0,6
1777450940.707315,2098,0,6
1777450940.7100968,2229,0,6
1777450940.715501,1977,0,6
1777450940.716171,2081,0,6
1777450940.719317,2225,0,6
1777450940.724225,2365,0,6
1777450940.725961,2305,0,6
1777450940.728512,2048,0,6
1777450940.731106,2022,0,6
1777450940.733946,960,0,6
1777450940.739466,2153,0,6
1777450940.741482,2660,0,6
1777450940.744124,1725,0,6
1777450940.7465248,1190,0,6
1777450940.749137,1128,0,6
1777450940.752127,2880,0,6
1777450940.755091,2366,0,6
1777450940.760007,3093,0,6
1777450940.762497,2999,0,6
1777450940.764117,1469,0,6
1777450940.769135,1190,0,6
1777450940.7710578,2274,0,6
1777450940.7736268,3233,0,6
1777450940.776184,2374,0,6
1777450940.779109,2142,0,6
1777450940.7828832,1906,0,6
1777450940.786025,1786,0,6
1777450940.789011,1871,0,6
1777450940.791394,2007,0,6
1777450940.794121,2080,0,6
1777450940.797081,2415,0,6
1777450940.8000598,2265,0,6
1777450940.804725,2144,0,6
1777450940.806852,1985,0,6
1777450940.80954,1853,0,6
1777450940.813539,1900,0,6
1777450940.815346,1850,0,6
1777450940.8180978,2130,0,6
1777450940.821054,2412,0,6
1777450940.827094,2408,0,6
1777450940.8275042,1613,0,6
1777450940.8336341,2050,0,6
1777450940.836226,1808,0,6
1777450940.8363898,1855,0,6
1777450940.839316,2848,0,6
1777450940.84222,2413,0,6
1777450940.845054,1367,0,6
1777450940.848147,2537,0,6
1777450940.851302,2468,0,6
1777450940.854058,2319,0,6
1777450940.859688,2252,0,6
1777450940.860901,2123,0,6
1777450940.864438,1911,0,6
1777450940.8671649,1852,0,6
1777450940.870272,2303,0,6
1777450940.872124,1741,0,6
1777450940.875083,2051,0,6
1777450940.880943,2706,0,6
1777450940.882015,1804,0,6
1777450940.884681,1825,0,6
1777450940.8888378,2054,0,6
1777450940.8905091,2654,0,6
1777450940.8930671,2443,0,6
1777450940.896082,1794,0,6
1777450940.89907,1937,0,6
1777450940.904505,2104,0,6
1777450940.905709,2220,0,6
1777450940.91134,1698,0,6
1777450940.911534,1870,0,6
1777450940.914149,2192,0,6
1777450940.917066,1766,0,6
1777450940.920096,2259,0,6
1777450940.9258828,2209,0,6
1777450940.927586,2388,0,6
1777450940.929257,1903,0,6
1777450940.934326,1699,0,6
1777450940.936139,1750,0,6
1777450940.9386969,2038,0,6
1777450940.941256,2579,0,6
1777450940.944087,2151,0,6
1777450940.947541,1695,0,6
1777450940.9510558,1510,0,6
1777450940.9540029,2638,0,6
1777450940.9565282,2546,0,6
1777450940.959276,2119,0,6
1777450940.9620512,2005,0,6
1777450940.9650571,1824,0,6
1777450940.9702551,1959,0,6
1777450940.9724631,2089,0,6
1777450940.974279,2248,0,6
1777450940.9791481,2456,0,6
1777450940.9806669,1778,0,6
1777450940.983469,2128,0,6
1777450940.986051,2091,0,6
1777450940.989064,2560,0,6
1777450940.9936461,2366,0,6
1777450940.9952261,2038,0,6
1777450940.998334,1440,0,6
1777450941.001903,1827,0,6
1777450941.004076,2342,0,6
1777450941.0070982,2362,0,6
1777450941.0100951,1860,0,6
1777450941.0151072,1743,0,6
1777450941.0171158,1859,0,6
1777450941.0192819,2331,0,6
1777450941.0239701,2448,0,6
1777450941.025443,2277,0,6
1777450941.0280871,1926,0,6
1777450941.031063,1760,0,6
1777450941.034091,1669,0,6
1777450941.038992,2199,0,6
1777450941.04074,2250,0,6
1777450941.0450182,2326,0,6
1777450941.047532,1942,0,6
1777450941.049379,1768,0,6
1777450941.052086,1993,0,6
1777450941.05507,2235,0,6
1777450941.060521,2175,0,6
1777450941.061482,2395,0,6
1777450941.064215,1999,0,6
1777450941.069111,1696,0,6
1777450941.070873,1694,0,6
1777450941.0734148,1929,0,6
1777450941.0760949,2541,0,6
1777450941.082088,2550,0,6
1777450941.082474,1905,0,6
1777450941.0857012,1876,0,6
1777450941.088402,2168,0,6
1777450941.0921679,2331,0,6
1777450941.0947359,2127,0,6
1777450941.097287,1782,0,6
1777450941.100076,1649,0,6
1777450941.103551,1937,0,6
1777450941.107392,2186,0,6
1777450941.109828,2268,0,6
1777450941.1123059,1974,0,6
1777450941.115082,1467,0,6
1777450941.118061,2023,0,6
1777450941.121109,2898,0,6
1777450941.1258812,2471,0,6
1777450941.1274219,1877,0,6
1777450941.130568,1706,0,6
1777450941.134057,1834,0,6
1777450941.136093,2394,0,6
1777450941.1391082,2400,0,6
1777450941.1427891,2213,0,6
1777450941.147726,1953,0,6
1777450941.1481228,1012,0,6
1777450941.151089,1804,0,6
1777450941.155801,2774,0,6
1777450941.157258,2297,0,6
1777450941.1600761,2067,0,6
1777450941.163059,1903,0,6
1777450941.166094,1828,0,6
1777450941.170604,1843,0,6
1777450941.1721542,2460,0,6
1777450941.1761549,2617,0,6
1777450941.1786098,2177,0,6
1777450941.1814551,1662,0,6
1777450941.1840808,1700,0,6
1777450941.187105,2089,0,6
1777450941.1919801,2230,0,6
1777450941.193933,2222,0,6
1777450941.1980622,1913,0,6
1777450941.200609,1577,0,6
1777450941.202375,1551,0,6
1777450941.204971,2354,0,6
1777450941.207977,2597,0,6
1777450941.213391,2134,0,6
1777450941.215768,1725,0,6
1777450941.217289,1685,0,6
1777450941.222433,2073,0,6
1777450941.223888,2527,0,6
1777450941.2264462,2701,0,6
1777450941.228993,2051,0,6
1777450941.232081,1467,0,6
1777450941.2355142,1932,0,6
1777450941.238743,2246,0,6
1777450941.2414021,2231,0,6
1777450941.245992,2270,0,6
1777450941.2474298,1735,0,6
1777450941.250098,1913,0,6
1777450941.252973,1944,0,6
1777450941.258995,2341,0,6
1777450941.260946,2371,0,6
1777450941.2635221,2032,0,6
1777450941.271434,1770,0,6
1777450941.2714791,1997,0,6
1777450941.271507,2177,0,6
1777450941.2945971,2433,0,6
1777450941.301528,2157,0,6
1777450941.301713,1868,0,6
1777450941.3017988,1633,0,6
1777450941.301854,1986,0,6
1777450941.301963,2338,0,6
1777450941.302034,2164,0,6
1777450941.3020859,2033,0,6
1777450941.3021362,1867,0,6
1777450941.3021839,1897,0,6
1777450941.303958,2216,0,6
1777450941.306975,2255,0,6
1777450941.310055,2090,0,6
1777450941.318872,1926,0,6
1777450941.321106,1789,0,6
1777450941.3223958,1983,0,6
1777450941.322887,2321,0,6
1777450941.325161,2330,0,6
1777450941.328484,2007,0,6
1777450941.331318,1736,0,6
1777450941.334121,1819,0,6
1777450941.339465,2174,0,6
1777450941.341632,2317,0,6
1777450941.349586,2217,0,6
1777450941.349864,1979,0,6
1777450941.35021,1729,0,6
1777450941.352376,1935,0,6
1777450941.355057,2274,0,6
1777450941.3579671,2303,0,6
1777450941.36096,2096,0,6
1777450941.366666,1798,0,6
1777450941.3673012,1773,0,6
1777450941.371453,2201,0,6
1777450941.374135,2409,0,6
1777450941.377402,2288,0,6
1777450941.379174,2007,0,6
1777450941.382238,1724,0,6
1777450941.390592,1931,0,6
1777450941.3930418,2276,0,6
1777450941.394346,2352,0,6
1777450941.395343,2166,0,6
1777450941.4000251,1870,0,6
1777450941.400366,1753,0,6
1777450941.403201,2098,0,6
1777450941.405966,2332,0,6
1777450941.4089448,2263,0,6
1777450941.416233,2028,0,6
1777450941.417161,1749,0,6
1777450941.418734,1881,0,6
1777450941.423918,2229,0,6
1777450941.424109,2313,0,6
1777450941.4272199,2143,0,6
1777450941.4301598,1811,0,6
1777450941.43296,1682,0,6
1777450941.4386299,2023,0,6
1777450941.4401898,2268,0,6
1777450941.442482,2224,0,6
1777450941.448232,1993,0,6
1777450941.448412,1724,0,6
1777450941.451379,1821,0,6
1777450941.454008,2163,0,6
1777450941.456958,2294,0,6
1777450941.459955,2159,0,6
1777450941.465892,1859,0,6
1777450941.4677582,1650,0,6
1777450941.4700649,1932,0,6
1777450941.476445,2180,0,6
1777450941.4766521,2171,0,6
1777450941.478855,1954,0,6
1777450941.4814389,1664,0,6
1777450941.492192,1710,0,6
1777450941.493558,2049,0,6
1777450941.494028,2214,0,6
1777450941.4965582,2141,0,6
1777450941.499997,1875,0,6
1777450941.50041,1649,0,6
1777450941.502669,1884,0,6
1777450941.505745,2180,0,6
1777450941.509273,2211,0,6
1777450941.510954,2030,0,6
1777450941.533168,1736,0,6
1777450941.533219,1682,0,6
1777450941.533251,2047,0,6
1777450941.533278,2251,0,6
1777450941.533304,2160,0,6
1777450941.533329,1890,0,6
1777450941.533354,1624,0,6
1777450941.536659,1838,0,6
1777450941.564075,2202,0,6
1777450941.564163,2245,0,6
1777450941.567879,2044,0,6
1777450941.568021,1749,0,6
1777450941.568097,1706,0,6
1777450941.56815,2053,0,6
1777450941.568199,2298,0,6
1777450941.568248,2250,0,6
1777450941.568296,1959,0,6
1777450941.568345,1647,0,6
1777450941.5684009,1844,0,6
1777450941.5717351,2200,0,6
1777450941.590487,2315,0,6
1777450941.5979462,2123,0,6
1777450941.5981069,1811,0,6
1777450941.59824,1683,0,6
1777450941.5983841,1963,0,6
1777450941.598498,2235,0,6
1777450941.598559,2240,0,6
1777450941.598613,2053,0,6
1777450941.598664,1719,0,6
1777450941.6242418,1842,0,6
1777450941.636118,2178,0,6
1777450941.636341,2280,0,6
1777450941.63638,2152,0,6
1777450941.636409,1843,0,6
1777450941.6366389,1669,0,6
1777450941.6371682,1940,0,6
1777450941.6372008,2207,0,6
1777450941.637232,2194,0,6
1777450941.637262,2010,0,6
1777450941.6373172,1693,0,6
1777450941.6373482,1750,0,6
1777450941.637376,2116,0,6
1777450941.6419609,2265,0,6
1777450941.6436741,2135,0,6
1777450941.655514,1849,0,6
1777450941.664953,1675,0,6
1777450941.667027,1962,0,6
1777450941.669018,2158,0,6
1777450941.671766,2187,0,6
1777450941.6794891,1953,0,6
1777450941.6795452,1751,0,6
1777450941.6803021,1734,0,6
1777450941.680363,2070,0,6
1777450941.680394,2211,0,6
1777450941.680421,2149,0,6
1777450941.680448,1928,0,6
1777450941.6819708,1710,0,6
1777450941.7029471,1903,0,6
1777450941.703048,2188,0,6
1777450941.703109,2290,0,6
1777450941.70316,2082,0,6
1777450941.703212,1822,0,6
1777450941.703258,1751,0,6
1777450941.703342,2061,0,6
1777450941.706023,2262,0,6
1777450941.7089732,2238,0,6
1777450941.711949,2055,0,6
1777450941.731192,1727,0,6
1777450941.731509,1836,0,6
1777450941.7315829,2185,0,6
1777450941.7318342,2277,0,6
1777450941.731921,2163,0,6
1777450941.731951,1897,0,6
1777450941.733291,1723,0,6
1777450941.742748,2007,0,6
1777450941.7541,2303,0,6
1777450941.754148,2288,0,6
1777450941.754178,2052,0,6
1777450941.754206,1753,0,6
1777450941.7542331,1832,0,6
1777450941.75426,2183,0,6
1777450941.757389,2303,0,6
1777450941.7599602,2174,0,6
1777450941.762897,1915,0,6
1777450941.7850409,1735,0,6
1777450941.785093,1989,0,6
1777450941.785123,2279,0,6
1777450941.785152,2281,0,6
1777450941.7851799,2063,0,6
1777450941.785207,1767,0,6
1777450941.785234,1787,0,6
1777450941.7868721,2127,0,6
1777450941.8185952,2317,0,6
1777450941.81934,2239,0,6
1777450941.819515,1960,0,6
1777450941.819627,1740,0,6
1777450941.8197188,1929,0,6
1777450941.819791,2261,0,6
1777450941.81985,2316,0,6
1777450941.819902,2117,0,6
1777450941.819953,1828,0,6
1777450941.820002,1749,0,6
1777450941.8200488,2122,0,6
1777450941.822871,2277,0,6
1777450941.8284469,2254,0,6
1777450941.829092,1989,0,6
1777450941.8407092,1739,0,6
1777450941.841825,1857,0,6
1777450941.854082,2231,0,6
1777450941.854553,2313,0,6
1777450941.854754,2152,0,6
1777450941.8753972,1870,0,6
1777450941.8754811,1774,0,6
1777450941.875545,2068,0,6
1777450941.87571,2276,0,6
1777450941.875795,2243,0,6
1777450941.875828,2011,0,6
1777450941.8758569,1768,0,6
1777450941.875886,1832,0,6
1777450941.875914,2182,0,6
1777450941.87623,2324,0,6
1777450941.878206,2208,0,6
1777450941.879849,1909,0,6
1777450941.882966,1774,0,6
1777450941.885931,2055,0,6
1777450941.907747,2343,0,6
1777450941.9081311,2351,0,6
1777450941.908422,2107,0,6
1777450941.9087071,1796,0,6
1777450941.910849,1885,0,6
1777450941.911527,2241,0,6
1777450941.91236,2366,0,6
1777450941.912478,2259,0,6
1777450941.912866,1983,0,6
1777450941.915872,1780,0,6
1777450941.941798,2017,0,6
1777450941.941899,2308,0,6
1777450941.941932,2315,0,6
1777450941.941962,2109,0,6
1777450941.9419892,1812,0,6
1777450941.942016,1806,0,6
1777450941.9420428,2155,0,6
1777450941.9421089,2317,0,6
1777450941.9433138,2242,0,6
1777450941.946388,1957,0,6
1777450941.972972,1737,0,6
1777450941.9733062,1911,0,6
1777450941.9733849,2269,0,6
1777450941.973449,2297,0,6
1777450941.9735081,2113,0,6
1777450941.973563,1825,0,6
1777450941.9736168,1756,0,6
1777450941.97396,2101,0,6
1777450941.974126,2307,0,6
1777450941.9759638,2248,0,6
1777450942.003365,2004,0,6
1777450942.003497,1728,0,6
1777450942.0035589,1883,0,6
1777450942.0036118,2234,0,6
1777450942.003662,2328,0,6
1777450942.003714,2152,0,6
1777450942.003801,1862,0,6
1777450942.003961,1747,0,6
1777450942.004023,2048,0,6
1777450942.0060108,2296,0,6
1777450942.009373,2272,0,6
1777450942.012127,2038,0,6
1777450942.0156019,1742,0,6
1777450942.036673,1827,0,6
1777450942.03672,2213,0,6
1777450942.03675,2317,0,6
1777450942.036781,2178,0,6
1777450942.036808,1905,0,6
1777450942.037,1729,0,6
1777450942.037069,2018,0,6
1777450942.038931,2286,0,6
1777450942.047214,2288,0,6
1777450942.04849,2059,0,6
1777450942.0536351,1780,0,6
1777450942.0617971,1790,0,6
1777450942.062589,2160,0,6
1777450942.062927,2330,0,6
1777450942.066653,2199,0,6
1777450942.067584,1951,0,6
1777450942.06771,1727,0,6
1777450942.0690932,1957,0,6
1777450942.072041,2264,0,6
1777450942.074831,2309,0,6
1777450942.0778282,2118,0,6
1777450942.0864651,1814,0,6
1777450942.0886168,1757,0,6
1777450942.090749,2148,0,6
1777450942.091847,2328,0,6
1777450942.095576,2238,0,6
1777450942.099179,1990,0,6
1777450942.1019268,1758,0,6
1777450942.10201,1909,0,6
1777450942.1049259,2239,0,6
1777450942.111913,2313,0,6
1777450942.112461,2112,0,6
1777450942.1172988,1870,0,6
1777450942.11794,1734,0,6
1777450942.1255932,2065,0,6
1777450942.128497,2324,0,6
1777450942.128602,2286,0,6
1777450942.1288478,2031,0,6
1777450942.13184,1746,0,6
1777450942.13483,1856,0,6
1777450942.1378329,2224,0,6
1777450942.1451252,2316,0,6
1777450942.149268,2147,0,6
1777450942.150362,1891,0,6
1777450942.1513338,1726,0,6
1777450942.154336,2015,0,6
1777450942.1579,2302,0,6
1777450942.1606011,2306,0,6
1777450942.162001,2052,0,6
1777450942.164871,1747,0,6
1777450942.1710458,1844,0,6
1777450942.1715589,2234,0,6
1777450942.175293,2322,0,6
1777450942.17745,2194,0,6
1777450942.182772,1918,0,6
1777450942.183247,1696,0,6
1777450942.186763,1954,0,6
1777450942.189373,2289,0,6
1777450942.192113,2326,0,6
1777450942.194852,2086,0,6
1777450942.2059882,1788,0,6
1777450942.2093701,1784,0,6
1777450942.2100768,2171,0,6
1777450942.211245,2299,0,6
1777450942.217022,2247,0,6
1777450942.217461,2002,0,6
1777450942.217803,1758,0,6
1777450942.2204192,1954,0,6
1777450942.221811,2267,0,6
1777450942.225047,2287,0,6
1777450942.231414,2123,0,6
1777450942.233004,1848,0,6
1777450942.235871,1778,0,6
1777450942.237649,2022,0,6
1777450942.243,2330,0,6
1777450942.243278,2075,0,6
1777450942.2460742,1954,0,6
1777450942.248846,1805,0,6
1777450942.251827,1960,0,6
1777450942.254816,2275,0,6
1777450942.26403,2375,0,6
1777450942.2642,2200,0,6
1777450942.265959,1779,0,6
1777450942.267947,1755,0,6
1777450942.270846,2196,0,6
1777450942.2758222,2300,0,6
1777450942.276265,2248,0,6
1777450942.278857,2001,0,6
1777450942.281815,1710,0,6
1777450942.2890959,1781,0,6
1777450942.289694,2267,0,6
1777450942.2916648,2223,0,6
1777450942.294503,2288,0,6
1777450942.3010628,2027,0,6
1777450942.301453,1702,0,6
1777450942.3038468,1881,0,6
1777450942.306607,2236,0,6
1777450942.309613,2463,0,6
1777450942.312311,2114,0,6
1777450942.3243341,1723,0,6
1777450942.324554,1811,0,6
1777450942.325043,2192,0,6
1777450942.325994,2310,0,6
1777450942.3319879,2210,0,6
1777450942.3323572,1860,0,6
1777450942.332839,1740,0,6
1777450942.335961,1933,0,6
1777450942.3388429,1942,0,6
1777450942.3445408,2553,0,6
1777450942.346755,2468,0,6
1777450942.349011,1708,0,6
1777450942.350871,1674,0,6
1777450942.356498,2268,0,6
1777450942.35688,2412,0,6
1777450942.360061,2353,0,6
1777450942.362693,2049,0,6
1777450942.365705,1717,0,6
1777450942.368709,1730,0,6
1777450942.375941,2129,0,6
1777450942.37681,2382,0,6
1777450942.3785899,1997,0,6
1777450942.382109,1932,0,6
1777450942.387838,1825,0,6
1777450942.38813,2111,0,6
1777450942.3902981,2496,0,6
1777450942.392958,2318,0,6
1777450942.399998,1942,0,6
1777450942.400586,1738,0,6
1777450942.4031029,1890,0,6
1777450942.4055638,2213,0,6
1777450942.4086,2248,0,6
1777450942.4115222,2158,0,6
1777450942.413822,1712,0,6
1777450942.416706,1692,0,6
1777450942.419719,2082,0,6
1777450942.428681,2397,0,6
1777450942.430698,2176,0,6
1777450942.4308538,1944,0,6
1777450942.433206,2017,0,6
1777450942.434908,1869,0,6
1777450942.439254,2161,0,6
1777450942.441547,2327,0,6
1777450942.444108,2227,0,6
1777450942.4506729,1914,0,6
1777450942.4510772,1595,0,6
1777450942.452767,1960,0,6
1777450942.4610822,2491,0,6
1777450942.461365,2278,0,6
1777450942.463182,1628,0,6
1777450942.464898,1848,0,6
1777450942.467694,1891,0,6
1777450942.470701,1975,0,6
1777450942.4738119,2569,0,6
1777450942.4781492,2167,0,6
1777450942.480821,1921,0,6
1777450942.483127,1686,0,6
1777450942.486138,1998,0,6
1777450942.4890182,2181,0,6
1777450942.492055,2414,0,6
1777450942.494716,2219,0,6
1777450942.4992971,1858,0,6
1777450942.501816,1255,0,6
1777450942.503985,2364,0,6
1777450942.507415,2369,0,6
1777450942.510174,2235,0,6
1777450942.512896,1699,0,6
1777450942.515778,2259,0,6
1777450942.51919,2119,0,6
1777450942.521877,2051,0,6
1777450942.528964,2232,0,6
1777450942.5306811,2207,0,6
1777450942.532337,2039,0,6
1777450942.534046,2045,0,6
1777450942.538759,2018,0,6
1777450942.540892,2482,0,6
1777450942.542677,1939,0,6
1777450942.549372,1775,0,6
1777450942.549865,2128,0,6
1777450942.553504,2189,0,6
1777450942.5554812,1883,0,6
1777450942.559655,2064,0,6
1777450942.561826,2612,0,6
1777450942.5636811,1736,0,6
1777450942.5666718,1555,0,6
1777450942.569676,2409,0,6
1777450942.575742,2407,0,6
1777450942.576498,2448,0,6
1777450942.5793579,2184,0,6
1777450942.582795,1569,0,6
1777450942.585506,1957,0,6
1777450942.587706,2340,0,6
1777450942.590694,2302,0,6
1777450942.593699,2109,0,6
1777450942.596738,1885,0,6
1777450942.600151,1657,0,6
1777450942.604501,2042,0,6
1777450942.606045,2252,0,6
1777450942.610399,2297,0,6
1777450942.61241,2130,0,6
1777450942.614971,1415,0,6
1777450942.617679,1726,0,6
1777450942.6207051,2003,0,6
1777450942.626081,2523,0,6
1777450942.626903,2609,0,6
1777450942.630316,2145,0,6
1777450942.633603,1808,0,6
1777450942.63633,1954,0,6
1777450942.639265,2408,0,6
1777450942.641835,2334,0,6
1777450942.646372,1621,0,6
1777450942.6523252,1525,0,6
1777450942.657013,2450,0,6
1777450942.657223,2179,0,6
1777450942.6576698,2044,0,6
1777450942.659741,1898,0,6
1777450942.6626701,2306,0,6
1777450942.665668,2203,0,6
1777450942.6686878,1505,0,6
1777450942.6742232,2445,0,6
1777450942.675221,1994,0,6
1777450942.679519,2030,0,6
1777450942.685028,2360,0,6
1777450942.685387,1625,0,6
1777450942.687627,2561,0,6
1777450942.6901708,2372,0,6
1777450942.6953259,2357,0,6
1777450942.696092,2308,0,6
1777450942.7001028,1904,0,6
1777450942.7019389,1458,0,6
1777450942.70608,1744,0,6
1777450942.708079,2253,0,6
1777450942.710677,2522,0,6
1777450942.713675,1678,0,6
1777450942.717389,1930,0,6
1777450942.728405,2080,0,6
1777450942.7336729,1103,0,6
1777450942.733869,2542,0,6
1777450942.734009,3231,0,6
1777450942.734267,1911,0,6
1777450942.736244,801,0,6
1777450942.737717,2486,0,6
1777450942.744134,2245,0,6
1777450942.744574,2704,0,6
1777450942.746751,2443,0,6
1777450942.750295,2081,0,6
1777450942.7543418,1732,0,6
1777450942.756551,1529,0,6
1777450942.759108,1128,0,6
1777450942.761716,2016,0,6
1777450942.764717,3148,0,6
1777450942.7696042,1554,0,6
1777450942.7723331,1740,0,6
1777450942.7742221,1819,0,6
1777450942.7772758,3217,0,6
1777450942.780041,2336,0,6
1777450942.782793,1950,0,6
1777450942.785728,2710,0,6
1777450942.7886982,2405,0,6
1777450942.794831,1863,0,6
1777450942.795254,1897,0,6
1777450942.798723,2138,0,6
1777450942.80086,1914,0,6
1777450942.8047092,2304,0,6
1777450942.806738,1720,0,6
1777450942.8095691,2042,0,6
1777450942.8125708,2473,0,6
1777450942.819183,2312,0,6
1777450942.819625,2113,0,6
1777450942.821732,2360,0,6
1777450942.8248699,2461,0,6
1777450942.8289468,2287,0,6
1777450942.8308759,1998,0,6
1777450942.833559,1807,0,6
1777450942.836558,1530,0,6
1777450942.839644,2296,0,6
1777450942.843491,2548,0,6
1777450942.845752,2047,0,6
1777450942.849014,1666,0,6
1777450942.8532212,1897,0,6
1777450942.8551302,2512,0,6
1777450942.8578079,2616,0,6
1777450942.860553,2314,0,6
1777450942.863589,1821,0,6
1777450942.86764,1445,0,6
1777450942.869876,2229,0,6
1777450942.873027,1719,0,6
1777450942.877482,2567,0,6
1777450942.879491,2420,0,6
1777450942.882045,1804,0,6
1777450942.8845959,1684,0,6
1777450942.887585,2336,0,6
1777450942.892577,2529,0,6
1777450942.8944929,2469,0,6
1777450942.896608,1807,0,6
1777450942.9020128,1955,0,6
1777450942.9035919,1881,0,6
1777450942.906157,2004,0,6
1777450942.9086971,1957,0,6
1777450942.911586,2657,0,6
1777450942.917184,2020,0,6
1777450942.9178581,1796,0,6
1777450942.92157,2131,0,6
1777450942.925806,2274,0,6
1777450942.927816,2415,0,6
1777450942.929585,2081,0,6
1777450942.932554,1792,0,6
1777450942.935586,1807,0,6
1777450942.940398,2154,0,6
1777450942.942346,2139,0,6
1777450942.945493,2148,0,6
1777450942.949604,1521,0,6
1777450942.951125,1752,0,6
1777450942.9536939,2472,0,6
1777450942.956583,2279,0,6
1777450942.959738,2337,0,6
1777450942.962941,1776,0,6
1777450942.966828,1499,0,6
1777450942.968695,2299,0,6
1777450942.9724858,2670,0,6
1777450942.97455,2312,0,6
1777450942.9775739,2147,0,6
1777450942.9805539,1909,0,6
1777450942.987222,1812,0,6
1777450942.9875789,2055,0,6
1777450942.990928,2265,0,6
1777450942.992785,1929,0,6
1777450942.996566,2173,0,6
1777450942.999339,1919,0,6
1777450943.001895,1608,0,6
1777450943.0045838,2118,0,6
1777450943.0108259,2279,0,6
1777450943.011539,2682,0,6
1777450943.0142982,2218,0,6
1777450943.017775,1692,0,6
1777450943.020565,1909,0,6
1777450943.023238,2227,0,6
1777450943.0258272,2225,0,6
1777450943.0285509,2063,0,6
1777450943.034576,1906,0,6
1777450943.034962,1737,0,6
1777450943.038263,1572,0,6
1777450943.041462,2375,0,6
1777450943.0440152,2392,0,6
1777450943.046814,1767,0,6
1777450943.049587,2062,0,6
1777450943.052586,2126,0,6
1777450943.058523,2415,0,6
1777450943.059222,2344,0,6
1777450943.061996,2197,0,6
1777450943.065089,1782,0,6
1777450943.0678022,1649,0,6
1777450943.070575,2097,0,6
1777450943.0735822,2229,0,6
1777450943.0765471,2162,0,6
1777450943.08161,1690,0,6
1777450943.083788,1534,0,6
1777450943.085731,1910,0,6
1777450943.0908601,2794,0,6
1777450943.0927732,2423,0,6
1777450943.0945961,2110,0,6
1777450943.0975869,2035,0,6
1777450943.100584,1794,0,6
1777450943.105508,2015,0,6
1777450943.1069179,1996,0,6
1777450943.111131,2255,0,6
1777450943.1138089,2092,0,6
1777450943.1157,1872,0,6
1777450943.1185842,1787,0,6
1777450943.1215858,2203,0,6
1777450943.127984,2353,0,6
1777450943.128646,2230,0,6
1777450943.131593,1980,0,6
1777450943.134455,1813,0,6
1777450943.1372192,1976,0,6
1777450943.1398761,2159,0,6
1777450943.142584,2112,0,6
1777450943.145578,2136,0,6
1777450943.150809,1854,0,6
1777450943.152858,1699,0,6
1777450943.154598,2157,0,6
1777450943.1595788,2530,0,6
1777450943.161282,2285,0,6
1777450943.163851,1921,0,6
1777450943.1665852,1849,0,6
1777450943.172587,1897,0,6
1777450943.173586,2019,0,6
1777450943.1767051,2397,0,6
1777450943.179471,1688,0,6
1777450943.182034,2442,0,6
1777450943.184723,2096,0,6
1777450943.187582,2137,0,6
1777450943.190582,2259,0,6
1777450943.19529,2342,0,6
1777450943.197584,2043,0,6
1777450943.199706,1776,0,6
1777450943.204594,1875,0,6
1777450943.206341,2063,0,6
1777450943.208888,2217,0,6
1777450943.211581,2068,0,6
1777450943.21468,1869,0,6
1777450943.218278,1811,0,6
1777450943.221318,2172,0,6
1777450943.22445,2323,0,6
1777450943.226901,2315,0,6
1777450943.229602,2096,0,6
1777450943.232589,1771,0,6
1777450943.235591,1811,0,6
1777450943.2401369,2171,0,6
1777450943.242241,2315,0,6
1777450943.2463942,2174,0,6
1777450943.2490082,1901,0,6
1777450943.250895,1791,0,6
1777450943.2536,2013,0,6
1777450943.256459,2304,0,6
1777450943.263157,2264,0,6
1777450943.263523,2116,0,6
1777450943.266293,1817,0,6
1777450943.269309,1829,0,6
1777450943.2719512,2153,0,6
1777450943.274668,2294,0,6
1777450943.277452,2208,0,6
1777450943.280446,1994,0,6
1777450943.286197,1734,0,6
1777450943.286653,1937,0,6
1777450943.289681,2302,0,6
1777450943.2949219,2348,0,6
1777450943.2968261,2159,0,6
1777450943.29846,1897,0,6
1777450943.301461,1838,0,6
1777450943.304406,2121,0,6
1777450943.309997,2314,0,6
1777450943.310876,2129,0,6
1777450943.3145,1863,0,6
1777450943.3171258,1605,0,6
1777450943.319722,1791,0,6
1777450943.3224692,2095,0,6
1777450943.32545,2196,0,6
1777450943.328419,1969,0,6
1777450943.332893,1724,0,6
1777450943.335188,1683,0,6
1777450943.339354,1943,0,6
1777450943.341961,2150,0,6
1777450943.343701,2089,0,6
1777450943.3464608,1872,0,6
1777450943.349442,1580,0,6
1777450943.355556,1701,0,6
1777450943.3556569,2052,0,6
1777450943.358846,2125,0,6
1777450943.36415,2026,0,6
1777450943.364515,1728,0,6
1777450943.367458,1604,0,6
1777450943.3704388,1906,0,6
1777450943.373458,2162,0,6
1777450943.3781,2170,0,6
1777450943.379905,1940,0,6
1777450943.382726,1631,0,6
1777450943.3867788,1693,0,6
1777450943.3885179,2062,0,6
1777450943.391458,2192,0,6
1777450943.39443,2066,0,6
1777450943.399779,1802,0,6
1777450943.4020102,1649,0,6
1777450943.404494,1882,0,6
1777450943.40885,2173,0,6
1777450943.4106638,2207,0,6
1777450943.4128351,1980,0,6
1777450943.4154592,1638,0,6
1777450943.418449,1701,0,6
1777450943.422109,2092,0,6
1777450943.425854,2215,0,6
1777450943.4275641,2077,0,6
1777450943.431251,1826,0,6
1777450943.43394,1622,0,6
1777450943.436506,1860,0,6
1777450943.4394171,2199,0,6
1777450943.44539,2220,0,6
1777450943.446646,1992,0,6
1777450943.4485261,1674,0,6
1777450943.453563,1688,0,6
1777450943.455381,2018,0,6
1777450943.457676,2213,0,6
1777450943.4604318,2119,0,6
1777450943.4664378,1855,0,6
1777450943.467115,1620,0,6
1777450943.470894,1828,0,6
1777450943.4734359,2129,0,6
1777450943.476096,2202,0,6
1777450943.47875,2045,0,6
1777450943.4814541,1815,0,6
1777450943.48446,1693,0,6
1777450943.489311,2038,0,6
1777450943.4912992,2256,0,6
1777450943.495479,2185,0,6
1777450943.498101,1964,0,6
1777450943.4998279,1711,0,6
1777450943.502458,1812,0,6
1777450943.50543,2143,0,6
1777450943.5117671,2289,0,6
1777450943.5124722,2127,0,6
1777450943.515285,1804,0,6
1777450943.518404,1686,0,6
1777450943.5209742,2004,0,6
1777450943.5236638,2249,0,6
1777450943.526421,2231,0,6
1777450943.529425,1986,0,6
1777450943.534467,1704,0,6
1777450943.5365372,1764,0,6
1777450943.538493,2180,0,6
1777450943.54339,2281,0,6
1777450943.5451038,2125,0,6
1777450943.54766,1890,0,6
1777450943.550417,1701,0,6
1777450943.553579,1934,0,6
1777450943.559426,2251,0,6
1777450943.5595891,2246,0,6
1777450943.566724,2039,0,6
1777450943.5670688,1701,0,6
1777450943.56883,1723,0,6
1777450943.5714471,2163,0,6
1777450943.5744472,2342,0,6
1777450943.580669,2156,0,6
1777450943.5810199,1923,0,6
1777450943.584351,1682,0,6
1777450943.58755,1882,0,6
1777450943.590231,2219,0,6
1777450943.593033,2308,0,6
1777450943.595585,2070,0,6
1777450943.598421,1761,0,6
1777450943.603413,1776,0,6
1777450943.605519,2086,0,6
1777450943.60765,2282,0,6
1777450943.612309,2253,0,6
1777450943.614004,1964,0,6
1777450943.6165571,1718,0,6
1777450943.6194549,1847,0,6
1777450943.625309,2218,0,6
1777450943.625911,2311,0,6
1777450943.6296651,2106,0,6
1777450943.632181,1826,0,6
1777450943.6346612,1774,0,6
1777450943.637435,2119,0,6
1777450943.640469,2309,0,6
1777450943.643429,2250,0,6
1777450943.647906,2025,0,6
1777450943.649973,1766,0,6
1777450943.65268,1815,0,6
1777450943.658209,2228,0,6
1777450943.658647,2329,0,6
1777450943.6613162,2157,0,6
1777450943.664313,1884,0,6
1777450943.670652,1693,0,6
1777450943.670754,2022,0,6
1777450943.6738272,2279,0,6
1777450943.678899,2273,0,6
1777450943.680675,2064,0,6
1777450943.682326,1733,0,6
1777450943.685291,1785,0,6
1777450943.688301,2203,0,6
1777450943.692058,2356,0,6
1777450943.6953442,2224,0,6
1777450943.698344,1933,0,6
1777450943.700926,1704,0,6
1777450943.703574,1954,0,6
1777450943.706322,2300,0,6
1777450943.7093189,2318,0,6
1777450943.713672,2111,0,6
1777450943.7161632,1711,0,6
1777450943.719199,1764,0,6
1777450943.7230139,2143,0,6
1777450943.724833,2332,0,6
1777450943.727385,2235,0,6
1777450943.73031,1890,0,6
1777450943.736053,1683,0,6
1777450943.737083,1944,0,6
1777450943.740074,2258,0,6
1777450943.745344,2302,0,6
1777450943.745428,2111,0,6
1777450943.748333,1808,0,6
1777450943.751303,1757,0,6
1777450943.7543318,2080,0,6
1777450943.759066,2320,0,6
1777450943.7612119,2276,0,6
1777450943.7637918,1977,0,6
1777450943.7683,1717,0,6
1777450943.7701619,1857,0,6
1777450943.772712,2229,0,6
1777450943.775462,2332,0,6
1777450943.778304,2167,0,6
1777450943.781755,1860,0,6
1777450943.785355,1740,0,6
1777450943.788175,2058,0,6
1777450943.7908962,2301,0,6
1777450943.793476,2271,0,6
1777450943.796321,2042,0,6
1777450943.799295,1769,0,6
1777450943.805451,1864,0,6
1777450943.806101,2184,0,6
1777450943.808657,2323,0,6
1777450943.8115442,2166,0,6
1777450943.814345,1915,0,6
1777450943.817305,1763,0,6
1777450943.82036,2014,0,6
1777450943.823307,2344,0,6
1777450943.827403,2342,0,6
1777450943.8294551,2119,0,6
1777450943.832454,1808,0,6
1777450943.836122,1869,0,6
1777450943.838797,2239,0,6
1777450943.8413508,2376,0,6
1777450943.844335,2270,0,6
1777450943.849864,1972,0,6
1777450943.850566,1764,0,6
1777450943.853387,2014,0,6
1777450943.858469,2319,0,6
1777450943.860374,2346,0,6
1777450943.862967,2139,0,6
1777450943.865518,1815,0,6
1777450943.8683321,1794,0,6
1777450943.872319,2161,0,6
1777450943.875742,2344,0,6
1777450943.878402,2227,0,6
1777450943.881093,1949,0,6
1777450943.8833358,1712,0,6
1777450943.886296,1904,0,6
1777450943.889332,2256,0,6
1777450943.894372,2323,0,6
1777450943.8964329,2127,0,6
1777450943.898693,1792,0,6
1777450943.905081,1747,0,6
1777450943.905231,2078,0,6
1777450943.907678,2311,0,6
1777450943.910332,2262,0,6
1777450943.917244,2012,0,6
1777450943.918446,1712,0,6
1777450943.9215941,1845,0,6
1777450943.9247491,2232,0,6
1777450943.927737,2325,0,6
1777450943.929292,2161,0,6
1777450943.931294,1870,0,6
1777450943.940928,1718,0,6
1777450943.9433842,2030,0,6
1777450943.948332,2296,0,6
1777450943.9490309,2278,0,6
1777450943.951566,2034,0,6
1777450943.951614,1731,0,6
1777450943.9529889,1823,0,6
1777450943.955648,2169,0,6
1777450943.958338,2304,0,6
1777450943.96506,2202,0,6
1777450943.96667,1912,0,6
1777450943.969592,1699,0,6
1777450943.971596,2013,0,6
1777450943.9758878,2276,0,6
1777450943.976365,2284,0,6
1777450943.979718,2069,0,6
1777450943.982388,1765,0,6
1777450943.9864068,1795,0,6
1777450943.989152,2165,0,6
1777450943.9973361,2324,0,6
1777450943.997667,2224,0,6
1777450943.997944,1961,0,6
1777450944.0005288,1710,0,6
1777450944.0033522,1949,0,6
1777450944.006316,2297,0,6
1777450944.009341,2323,0,6
1777450944.014366,2118,0,6
1777450944.0170271,1807,0,6
1777450944.0205922,1773,0,6
1777450944.022995,2140,0,6
1777450944.027933,2343,0,6
1777450944.0286589,2241,0,6
1777450944.0303118,1976,0,6
1777450944.038315,1740,0,6
1777450944.0400472,1886,0,6
1777450944.040234,2239,0,6
1777450944.0458372,2330,0,6
1777450944.048934,2130,0,6
1777450944.049412,1860,0,6
1777450944.051578,1755,0,6
1777450944.05432,2080,0,6
1777450944.058638,2325,0,6
1777450944.0603058,2272,0,6
1777450944.068316,2024,0,6
1777450944.068619,1736,0,6
1777450944.072917,1849,0,6
1777450944.0745852,2200,0,6
1777450944.0781,2311,0,6
1777450944.078486,2164,0,6
1777450944.082089,1880,0,6
1777450944.084783,1752,0,6
1777450944.092437,2047,0,6
1777450944.094553,2317,0,6
1777450944.0985222,2285,0,6
1777450944.1019368,2055,0,6
1777450944.102608,1777,0,6
1777450944.102937,1819,0,6
1777450944.106224,2193,0,6
1777450944.1089978,2314,0,6
1777450944.111659,2216,0,6
1777450944.114321,1929,0,6
1777450944.120749,1736,0,6
1777450944.122056,1986,0,6
1777450944.123852,2304,0,6
1777450944.1276538,2293,0,6
1777450944.1307142,2089,0,6
1777450944.133062,1798,0,6
1777450944.135678,1785,0,6
1777450944.143001,2137,0,6
1777450944.144486,2321,0,6
1777450944.1448052,2233,0,6
1777450944.148288,1969,0,6
1777450944.150634,1720,0,6
1777450944.153899,1958,0,6
1777450944.156953,2272,0,6
1777450944.159682,2309,0,6
1777450944.162368,2122,0,6
1777450944.165334,1813,0,6
1777450944.1720908,1755,0,6
1777450944.1739972,2096,0,6
1777450944.1763551,2326,0,6
1777450944.180359,2257,0,6
1777450944.183882,2006,0,6
1777450944.184225,1737,0,6
1777450944.186749,1901,0,6
1777450944.189238,2259,0,6
1777450944.196341,2333,0,6
1777450944.196579,2146,0,6
1777450944.199371,1871,0,6
1777450944.203269,1770,0,6
1777450944.209218,2064,0,6
1777450944.209841,2311,0,6
1777450944.21031,2274,0,6
1777450944.2133,2046,0,6
1777450944.216188,1760,0,6
1777450944.2191901,1830,0,6
1777450944.222212,2223,0,6
1777450944.227296,2322,0,6
1777450944.232539,2170,0,6
1777450944.233599,1894,0,6
1777450944.239973,1722,0,6
1777450944.2402182,1997,0,6
1777450944.24053,2278,0,6
1777450944.243621,2284,0,6
1777450944.246208,2058,0,6
1777450944.2519228,1771,0,6
1777450944.254554,1825,0,6
1777450944.257233,2168,0,6
1777450944.2587361,2338,0,6
1777450944.263849,2230,0,6
1777450944.2643049,1932,0,6
1777450944.267232,1729,0,6
1777450944.270179,1949,0,6
1777450944.2732038,2267,0,6
1777450944.276174,2286,0,6
1777450944.28086,2086,0,6
1777450944.283531,1805,0,6
1777450944.2853062,1790,0,6
1777450944.292215,2143,0,6
1777450944.2923908,2330,0,6
1777450944.294692,2236,0,6
1777450944.29727,1970,0,6
1777450944.3046799,1756,0,6
1777450944.305216,1900,0,6
1777450944.306574,2247,0,6
1777450944.309778,2299,0,6
1777450944.314859,2120,0,6
1777450944.315209,1831,0,6
1777450944.318212,1762,0,6
1777450944.321176,2088,0,6
1777450944.324208,2322,0,6
1777450944.327204,2273,0,6
1777450944.3312378,2017,0,6
1777450944.334244,1750,0,6
1777450944.336812,1889,0,6
1777450944.339985,2237,0,6
1777450944.342932,2315,0,6
1777450944.345269,2168,0,6
1777450944.348206,1868,0,6
1777450944.3535922,1744,0,6
1777450944.354445,2032,0,6
1777450944.358211,2294,0,6
1777450944.3619819,2260,0,6
1777450944.3648262,2031,0,6
1777450944.367158,1760,0,6
1777450944.369716,1835,0,6
1777450944.3722932,2193,0,6
1777450944.37518,2338,0,6
1777450944.38237,2210,0,6
1777450944.382587,1937,0,6
1777450944.385021,1788,0,6
1777450944.388265,2032,0,6
1777450944.390514,2333,0,6
1777450944.393319,2329,0,6
1777450944.3964312,2148,0,6
1777450944.399204,1853,0,6
1777450944.4054441,1854,0,6
1777450944.405587,2226,0,6
1777450944.412405,2371,0,6
1777450944.417226,2261,0,6
1777450944.417547,2017,0,6
1777450944.417898,1765,0,6
1777450944.4202518,1986,0,6
1777450944.4231522,2285,0,6
1777450944.426801,2333,0,6
1777450944.4293592,2130,0,6
1777450944.43461,1812,0,6
1777450944.435565,1817,0,6
1777450944.439753,2136,0,6
1777450944.4415412,2290,0,6
1777450944.446539,2225,0,6
1777450944.448817,2011,0,6
1777450944.450249,1787,0,6
1777450944.4531782,1920,0,6
1777450944.4584918,2235,0,6
1777450944.461268,2280,0,6
1777450944.463093,2136,0,6
1777450944.4658408,1870,0,6
1777450944.470576,1781,0,6
1777450944.471174,2053,0,6
1777450944.474318,2281,0,6
1777450944.477223,2237,0,6
1777450944.480184,1996,0,6
1777450944.483181,1765,0,6
1777450944.49023,1860,0,6
1777450944.49183,2209,0,6
1777450944.494097,2320,0,6
1777450944.496512,2148,0,6
1777450944.498243,1865,0,6
1777450944.5013702,1769,0,6
1777450944.504193,2019,0,6
1777450944.507394,2285,0,6
1777450944.514766,2266,0,6
1777450944.5171351,2046,0,6
1777450944.517457,1739,0,6
1777450944.5197902,1799,0,6
1777450944.52377,2189,0,6
1777450944.529376,2324,0,6
1777450944.529454,2199,0,6
1777450944.531311,1939,0,6
1777450944.534189,1744,0,6
1777450944.537225,1999,0,6
