timestamp,ch1,ch2,label
1777451114.356699,2241,0,8
1777451114.361295,1848,0,8
1777451114.3650408,1714,0,8
1777451114.368455,2059,0,8
1777451114.3691719,2332,0,8
1777451114.371723,2293,0,8
1777451114.37475,2069,0,8
1777451114.3776882,1739,0,8
1777451114.384254,1841,0,8
1777451114.384345,2153,0,8
1777451114.387739,2360,0,8
1777451114.389855,2241,0,8
1777451114.393044,1896,0,8
1777451114.395711,1736,0,8
1777451114.398698,2042,0,8
1777451114.403546,2238,0,8
1777451114.4052181,2318,0,8
1777451114.409857,2124,0,8
1777451114.411637,1722,0,8
1777451114.414356,1817,0,8
1777451114.41693,2144,0,8
1777451114.419592,2327,0,8
1777451114.423836,2250,0,8
1777451114.426153,1932,0,8
1777451114.429186,1717,0,8
1777451114.4326222,1984,0,8
1777451114.4351768,2211,0,8
1777451114.437624,2318,0,8
1777451114.440585,2160,0,8
1777451114.444247,1768,0,8
1777451114.447875,1754,0,8
1777451114.450563,2088,0,8
1777451114.4529102,2321,0,8
1777451114.4556139,2262,0,8
1777451114.458606,1994,0,8
1777451114.464517,1699,0,8
1777451114.464882,1910,0,8
1777451114.467984,2266,0,8
1777451114.47141,2352,0,8
1777451114.474161,2177,0,8
1777451114.4767182,1804,0,8
1777451114.479567,1735,0,8
1777451114.484628,2103,0,8
1777451114.4867342,2319,0,8
1777451114.4891362,2278,0,8
1777451114.491863,2018,0,8
1777451114.494646,1712,0,8
1777451114.4975731,1876,0,8
1777451114.5005891,2241,0,8
1777451114.50474,2354,0,8
1777451114.5067542,2181,0,8
1777451114.511529,1840,0,8
1777451114.5131369,1726,0,8
1777451114.515688,2062,0,8
1777451114.518611,2288,0,8
1777451114.5251799,2299,0,8
1777451114.525507,2052,0,8
1777451114.528398,1711,0,8
1777451114.531195,1841,0,8
1777451114.533687,2177,0,8
1777451114.536577,2323,0,8
1777451114.5396092,2228,0,8
1777451114.5459998,1874,0,8
1777451114.546344,1702,0,8
1777451114.548691,2025,0,8
1777451114.552265,2286,0,8
1777451114.5548449,2314,0,8
1777451114.557608,2104,0,8
1777451114.5606132,1717,0,8
1777451114.5654342,1798,0,8
1777451114.567573,2132,0,8
1777451114.571486,2300,0,8
1777451114.5739038,2262,0,8
1777451114.575603,1928,0,8
1777451114.5786061,1712,0,8
1777451114.581575,1969,0,8
1777451114.58595,2257,0,8
1777451114.5880508,2321,0,8
1777451114.5920541,2172,0,8
1777451114.594592,1778,0,8
1777451114.596988,1752,0,8
1777451114.599583,2120,0,8
1777451114.602603,2312,0,8
1777451114.606566,2278,0,8
1777451114.609222,1967,0,8
1777451114.612861,1709,0,8
1777451114.61458,1921,0,8
1777451114.617582,2259,0,8
1777451114.620619,2337,0,8
1777451114.626224,2168,0,8
1777451114.626579,1778,0,8
1777451114.629982,1752,0,8
1777451114.6331441,2115,0,8
1777451114.635733,2285,0,8
1777451114.638575,2282,0,8
1777451114.641602,2036,0,8
1777451114.646591,1722,0,8
1777451114.64984,1834,0,8
1777451114.652735,2267,0,8
1777451114.6552022,2316,0,8
1777451114.65661,2185,0,8
1777451114.659572,1844,0,8
1777451114.6625779,1713,0,8
1777451114.6674292,2071,0,8
1777451114.670549,2286,0,8
1777451114.672939,2232,0,8
1777451114.675402,2052,0,8
1777451114.677957,1772,0,8
1777451114.680577,1840,0,8
1777451114.687867,2133,0,8
1777451114.6882439,2332,0,8
1777451114.6905,2149,0,8
1777451114.693268,1936,0,8
1777451114.69585,1808,0,8
1777451114.698577,2058,0,8
1777451114.7015748,2261,0,8
1777451114.7073169,2186,0,8
1777451114.708458,2099,0,8
1777451114.711073,1871,0,8
1777451114.714547,1871,0,8
1777451114.717103,2044,0,8
1777451114.719657,2271,0,8
1777451114.722583,2083,0,8
1777451114.728683,1816,0,8
1777451114.729599,1798,0,8
1777451114.7318459,2179,0,8
1777451114.736099,2397,0,8
1777451114.737579,2352,0,8
1777451114.740594,2123,0,8
1777451114.743569,1872,0,8
1777451114.747971,1875,0,8
1777451114.74987,2118,0,8
1777451114.753806,2143,0,8
1777451114.7564318,2015,0,8
1777451114.758992,1958,0,8
1777451114.76168,1969,0,8
1777451114.7645628,2017,0,8
1777451114.768714,2251,0,8
1777451114.7720141,2417,0,8
1777451114.774567,2224,0,8
1777451114.7771142,1844,0,8
1777451114.7796679,1807,0,8
1777451114.78258,2113,0,8
1777451114.7885308,2290,0,8
1777451114.789696,2177,0,8
1777451114.792326,1897,0,8
1777451114.794678,1689,0,8
1777451114.7981749,1816,0,8
1777451114.800765,2092,0,8
1777451114.8034801,2497,0,8
1777451114.8094568,2320,0,8
1777451114.809815,1702,0,8
1777451114.813835,1912,0,8
1777451114.816036,2051,0,8
1777451114.818796,2284,0,8
1777451114.821506,2395,0,8
1777451114.8244858,2136,0,8
1777451114.829066,1798,0,8
1777451114.830992,1577,0,8
1777451114.835885,2126,0,8
1777451114.837535,2350,0,8
1777451114.840085,2243,0,8
1777451114.8426392,1891,0,8
1777451114.8454468,1432,0,8
1777451114.849417,2018,0,8
1777451114.851517,2312,0,8
1777451114.8554199,2278,0,8
1777451114.857759,2337,0,8
1777451114.86049,1918,0,8
1777451114.86349,1748,0,8
1777451114.869517,2006,0,8
1777451114.869924,2203,0,8
1777451114.873323,2334,0,8
1777451114.875867,2436,0,8
1777451114.8786821,1295,0,8
1777451114.88145,1184,0,8
1777451114.884494,3005,0,8
1777451114.890065,2445,0,8
1777451114.890656,1862,0,8
1777451114.8938649,1789,0,8
1777451114.8972092,1798,0,8
1777451114.899853,1361,0,8
1777451114.9024708,2834,0,8
1777451114.9054651,3039,0,8
1777451114.909773,2137,0,8
1777451114.913253,1402,0,8
1777451114.915091,1994,0,8
1777451114.9175,2275,0,8
1777451114.92046,2572,0,8
1777451114.923456,1900,0,8
1777451114.927001,1409,0,8
1777451114.932071,1092,0,8
1777451114.9334168,3055,0,8
1777451114.9363189,2520,0,8
1777451114.939096,1764,0,8
1777451114.941654,2085,0,8
1777451114.9444559,2101,0,8
1777451114.9504828,2027,0,8
1777451114.9511511,1409,0,8
1777451114.954247,2054,0,8
1777451114.9565,2897,0,8
1777451114.9594822,2030,0,8
1777451114.962444,1420,0,8
1777451114.965481,1873,0,8
1777451114.971051,2018,0,8
1777451114.971679,2575,0,8
1777451114.9748302,2697,0,8
1777451114.978215,2119,0,8
1777451114.980924,1398,0,8
1777451114.983467,2017,0,8
1777451114.986476,2107,0,8
1777451114.990863,1888,0,8
1777451114.9929721,1706,0,8
1777451114.9958248,1751,0,8
1777451114.9994419,2031,0,8
1777451115.001994,2470,0,8
1777451115.004456,2283,0,8
1777451115.0074759,1760,0,8
1777451115.0130382,1767,0,8
1777451115.014399,1946,0,8
1777451115.0174599,2394,0,8
1777451115.020094,2218,0,8
1777451115.022651,2235,0,8
1777451115.025484,2024,0,8
1777451115.03166,1696,0,8
1777451115.032049,2024,0,8
1777451115.0357602,2222,0,8
1777451115.037889,2151,0,8
1777451115.040683,2144,0,8
1777451115.043478,1795,0,8
1777451115.046464,1788,0,8
1777451115.0525491,2005,0,8
1777451115.052918,2154,0,8
1777451115.0559711,2291,0,8
1777451115.05977,2162,0,8
1777451115.061484,1827,0,8
1777451115.064461,1902,0,8
1777451115.067473,2270,0,8
1777451115.072274,2342,0,8
1777451115.074083,2253,0,8
1777451115.078353,1976,0,8
1777451115.079859,1615,0,8
1777451115.082585,1897,0,8
1777451115.085456,2229,0,8
1777451115.088474,2295,0,8
1777451115.094217,2162,0,8
1777451115.094939,1757,0,8
1777451115.097718,1944,0,8
1777451115.10224,2366,0,8
1777451115.103662,2385,0,8
1777451115.106443,2230,0,8
1777451115.109447,1875,0,8
1777451115.115695,1597,0,8
1777451115.116024,1836,0,8
1777451115.118558,2042,0,8
1777451115.122806,2386,0,8
1777451115.1244931,2108,0,8
1777451115.127462,1924,0,8
1777451115.1304371,1869,0,8
1777451115.135372,2198,0,8
1777451115.137516,2313,0,8
1777451115.140384,2144,0,8
1777451115.14291,1872,0,8
1777451115.145416,1632,0,8
1777451115.148323,1945,0,8
1777451115.1513238,2143,0,8
1777451115.156954,2339,0,8
1777451115.1586921,2165,0,8
1777451115.161956,1745,0,8
1777451115.16362,1781,0,8
1777451115.167261,2241,0,8
1777451115.169923,2292,0,8
1777451115.1724339,2266,0,8
1777451115.175337,1924,0,8
1777451115.181254,1704,0,8
1777451115.183707,1901,0,8
1777451115.184521,2190,0,8
1777451115.187736,2262,0,8
1777451115.190315,2182,0,8
1777451115.193355,1869,0,8
1777451115.197043,1903,0,8
1777451115.201437,2175,0,8
1777451115.205811,2252,0,8
1777451115.20594,2268,0,8
1777451115.208401,2033,0,8
1777451115.212139,1745,0,8
1777451115.214836,1921,0,8
1777451115.217473,2197,0,8
1777451115.220418,2137,0,8
1777451115.225266,2124,0,8
1777451115.228085,1925,0,8
1777451115.229577,1814,0,8
1777451115.23344,2075,0,8
1777451115.235345,2249,0,8
1777451115.238328,2311,0,8
1777451115.2413309,2019,0,8
1777451115.248737,1724,0,8
1777451115.248851,1873,0,8
1777451115.2521741,2193,0,8
1777451115.254452,2287,0,8
1777451115.256448,2176,0,8
1777451115.259396,1785,0,8
1777451115.262322,1701,0,8
1777451115.265324,1979,0,8
1777451115.273558,2213,0,8
1777451115.273761,2221,0,8
1777451115.276263,1973,0,8
1777451115.278877,1684,0,8
1777451115.28085,1768,0,8
1777451115.2836668,2074,0,8
1777451115.2863271,2261,0,8
1777451115.289334,2191,0,8
1777451115.2947998,1969,0,8
1777451115.295854,1784,0,8
1777451115.299243,1970,0,8
1777451115.303503,2268,0,8
1777451115.305346,2327,0,8
1777451115.3079538,2078,0,8
1777451115.310515,1727,0,8
1777451115.31336,1762,0,8
1777451115.317585,2100,0,8
1777451115.319711,2288,0,8
1777451115.323083,2201,0,8
1777451115.326119,1897,0,8
1777451115.3287702,1697,0,8
1777451115.331331,1958,0,8
1777451115.3343658,2213,0,8
1777451115.339901,2281,0,8
1777451115.340619,2130,0,8
1777451115.344288,1743,0,8
1777451115.346497,1758,0,8
1777451115.350035,2072,0,8
1777451115.352598,2275,0,8
1777451115.355316,2205,0,8
1777451115.358347,1953,0,8
1777451115.364251,1717,0,8
1777451115.364405,1901,0,8
1777451115.3675818,2183,0,8
1777451115.370555,2336,0,8
1777451115.373342,2176,0,8
1777451115.376323,1755,0,8
1777451115.3793159,1763,0,8
1777451115.3841019,2098,0,8
1777451115.386005,2249,0,8
1777451115.38924,2288,0,8
1777451115.3920279,1987,0,8
1777451115.394733,1690,0,8
1777451115.397278,1846,0,8
1777451115.4002,2175,0,8
1777451115.4051929,2299,0,8
1777451115.406903,2171,0,8
1777451115.411049,1858,0,8
1777451115.414521,1746,0,8
1777451115.4158258,2092,0,8
1777451115.4183831,2296,0,8
1777451115.421212,2305,0,8
1777451115.4264681,2093,0,8
1777451115.428272,1750,0,8
1777451115.4309099,1845,0,8
1777451115.4343932,2163,0,8
1777451115.436223,2318,0,8
1777451115.439202,2231,0,8
1777451115.4422169,1854,0,8
1777451115.449325,1694,0,8
1777451115.4503198,2035,0,8
1777451115.451895,2223,0,8
1777451115.456289,2286,0,8
1777451115.457994,2095,0,8
1777451115.4605598,1720,0,8
1777451115.4631932,1786,0,8
1777451115.4689322,2151,0,8
1777451115.469876,2310,0,8
1777451115.4728918,2236,0,8
1777451115.477343,1945,0,8
1777451115.479029,1708,0,8
1777451115.4815779,1954,0,8
1777451115.4842398,2235,0,8
1777451115.4907122,2311,0,8
1777451115.4911559,2122,0,8
1777451115.4941702,1742,0,8
1777451115.498369,1767,0,8
1777451115.5000708,2102,0,8
1777451115.5026822,2312,0,8
1777451115.5052328,2266,0,8
1777451115.508207,1992,0,8
1777451115.511774,1736,0,8
1777451115.5151029,1937,0,8
1777451115.5177689,2185,0,8
1777451115.521146,2317,0,8
1777451115.523542,2180,0,8
1777451115.526222,1808,0,8
1777451115.5292,1780,0,8
1777451115.532989,2085,0,8
1777451115.5360682,2297,0,8
1777451115.538822,2261,0,8
1777451115.542356,2002,0,8
1777451115.5442078,1713,0,8
1777451115.547195,1894,0,8
1777451115.5502028,2183,0,8
1777451115.5546482,2312,0,8
1777451115.5568168,2172,0,8
1777451115.5599859,1821,0,8
1777451115.563047,1710,0,8
1777451115.565197,2049,0,8
1777451115.568202,2309,0,8
1777451115.571209,2304,0,8
1777451115.577049,2034,0,8
1777451115.577405,1723,0,8
1777451115.5811589,1836,0,8
1777451115.5844412,2172,0,8
1777451115.5862331,2336,0,8
1777451115.5891998,2240,0,8
1777451115.592201,1887,0,8
1777451115.5976598,1695,0,8
1777451115.598649,2012,0,8
1777451115.6022909,2250,0,8
1777451115.604285,2302,0,8
1777451115.607904,2124,0,8
1777451115.610462,1774,0,8
1777451115.613226,1772,0,8
1777451115.620033,2085,0,8
1777451115.620917,2349,0,8
1777451115.62339,2288,0,8
1777451115.6281002,1989,0,8
1777451115.6283221,1688,0,8
1777451115.631187,1955,0,8
1777451115.634179,2246,0,8
1777451115.641384,2331,0,8
1777451115.641811,2173,0,8
1777451115.6434,1746,0,8
1777451115.647568,1792,0,8
1777451115.649712,2105,0,8
1777451115.652488,2294,0,8
1777451115.655194,2280,0,8
1777451115.658185,2023,0,8
1777451115.6632261,1723,0,8
1777451115.665121,1978,0,8
1777451115.6674418,2337,0,8
1777451115.671586,2293,0,8
1777451115.673292,2060,0,8
1777451115.676244,1808,0,8
1777451115.6792252,1829,0,8
1777451115.682386,2091,0,8
1777451115.685983,2225,0,8
1777451115.689452,2235,0,8
1777451115.69414,2066,0,8
1777451115.694325,1798,0,8
1777451115.697074,1933,0,8
1777451115.701055,2282,0,8
1777451115.7036579,2306,0,8
1777451115.708086,2192,0,8
1777451115.709905,1848,0,8
1777451115.714017,1762,0,8
1777451115.716225,2059,0,8
1777451115.719111,2263,0,8
1777451115.721536,2287,0,8
1777451115.724092,2075,0,8
1777451115.7302,1717,0,8
1777451115.731071,1848,0,8
1777451115.733506,2180,0,8
1777451115.736504,2365,0,8
1777451115.740032,2269,0,8
1777451115.74259,1910,0,8
1777451115.745137,1709,0,8
1777451115.748069,2011,0,8
1777451115.752467,2311,0,8
1777451115.7549062,2374,0,8
1777451115.757927,2175,0,8
1777451115.7602592,1803,0,8
1777451115.76311,1851,0,8
1777451115.76669,2182,0,8
1777451115.7692358,2364,0,8
1777451115.773149,2333,0,8
1777451115.776861,1946,0,8
1777451115.779298,1751,0,8
1777451115.781507,2018,0,8
1777451115.784141,2276,0,8
1777451115.787082,2344,0,8
1777451115.7900648,2191,0,8
1777451115.794127,1790,0,8
1777451115.79651,1830,0,8
1777451115.800467,2189,0,8
1777451115.802727,2369,0,8
1777451115.805378,2303,0,8
1777451115.808079,2055,0,8
1777451115.811096,1761,0,8
1777451115.815784,1945,0,8
1777451115.8178911,2231,0,8
1777451115.822043,2373,0,8
1777451115.8242931,2206,0,8
1777451115.826114,1830,0,8
1777451115.829076,1775,0,8
1777451115.832107,2115,0,8
1777451115.837763,2316,0,8
1777451115.8384562,2327,0,8
1777451115.841642,2029,0,8
1777451115.8461409,1745,0,8
1777451115.847958,1901,0,8
1777451115.8503182,2231,0,8
1777451115.853102,2344,0,8
1777451115.85967,2226,0,8
1777451115.860002,1821,0,8
1777451115.862655,1734,0,8
1777451115.8672378,2058,0,8
1777451115.8686972,2268,0,8
1777451115.871263,2300,0,8
1777451115.874084,2073,0,8
1777451115.880382,1722,0,8
1777451115.880738,1820,0,8
1777451115.883935,2130,0,8
1777451115.8863502,2348,0,8
1777451115.890087,2244,0,8
1777451115.8926458,1899,0,8
1777451115.8951092,1713,0,8
1777451115.901224,2021,0,8
1777451115.901834,2239,0,8
1777451115.904639,2299,0,8
1777451115.9073012,2115,0,8
1777451115.910806,1749,0,8
1777451115.913099,1809,0,8
1777451115.916084,2140,0,8
1777451115.921798,2294,0,8
1777451115.922443,2251,0,8
1777451115.9259908,1941,0,8
1777451115.930184,1714,0,8
1777451115.931937,1958,0,8
1777451115.934484,2220,0,8
1777451115.937075,2342,0,8
1777451115.94285,2154,0,8
1777451115.943459,1757,0,8
1777451115.946403,1784,0,8
1777451115.951087,2150,0,8
1777451115.952595,2279,0,8
1777451115.955154,2266,0,8
1777451115.9581041,1995,0,8
1777451115.9638138,1714,0,8
1777451115.964693,1902,0,8
1777451115.9676092,2208,0,8
1777451115.97201,2317,0,8
1777451115.9737449,2175,0,8
1777451115.976529,1806,0,8
1777451115.97907,1748,0,8
1777451115.984871,2104,0,8
1777451115.985982,2307,0,8
1777451115.988445,2308,0,8
1777451115.9931562,2058,0,8
1777451115.994695,1745,0,8
1777451115.997029,1853,0,8
1777451115.99996,2175,0,8
1777451116.005333,2353,0,8
1777451116.006206,2228,0,8
1777451116.0091891,1852,0,8
1777451116.01359,1724,0,8
1777451116.015192,2065,0,8
1777451116.0179808,2290,0,8
1777451116.020983,2304,0,8
1777451116.0265868,2090,0,8
1777451116.027214,1704,0,8
1777451116.030022,1817,0,8
1777451116.0344572,2164,0,8
1777451116.036254,2338,0,8
1777451116.0389519,2261,0,8
1777451116.041941,1909,0,8
1777451116.047976,1709,0,8
1777451116.04893,2013,0,8
1777451116.05189,2261,0,8
1777451116.054255,2301,0,8
1777451116.0578308,2116,0,8
1777451116.0603788,1695,0,8
1777451116.062978,1781,0,8
1777451116.069014,2152,0,8
1777451116.0693371,2314,0,8
1777451116.072427,2253,0,8
1777451116.0770812,1962,0,8
1777451116.078837,1721,0,8
1777451116.0813818,1958,0,8
1777451116.0839832,2201,0,8
1777451116.089599,2337,0,8
1777451116.09027,2181,0,8
1777451116.0934741,1768,0,8
1777451116.097918,1754,0,8
1777451116.099639,2149,0,8
1777451116.102185,2346,0,8
1777451116.104945,2301,0,8
1777451116.111656,2002,0,8
1777451116.112405,1706,0,8
1777451116.115315,1913,0,8
1777451116.118033,2215,0,8
1777451116.120367,2321,0,8
1777451116.123302,2122,0,8
1777451116.125953,1789,0,8
1777451116.128955,1756,0,8
1777451116.134893,2105,0,8
1777451116.1355798,2277,0,8
1777451116.138149,2300,0,8
1777451116.144862,2049,0,8
1777451116.144926,1698,0,8
1777451116.147624,1819,0,8
1777451116.1502872,2185,0,8
1777451116.152971,2365,0,8
1777451116.160789,2218,0,8
1777451116.161116,1833,0,8
1777451116.163496,1744,0,8
1777451116.169018,2031,0,8
1777451116.16926,2289,0,8
1777451116.1712298,2307,0,8
1777451116.173959,2097,0,8
1777451116.1826189,1747,0,8
1777451116.183554,1814,0,8
1777451116.184588,2166,0,8
1777451116.189086,2298,0,8
1777451116.1895292,2224,0,8
1777451116.192669,1881,0,8
1777451116.195362,1720,0,8
1777451116.198015,2059,0,8
1777451116.2067251,2265,0,8
1777451116.209444,2302,0,8
1777451116.212256,2131,0,8
1777451116.215459,1765,0,8
1777451116.215619,1823,0,8
1777451116.217421,2147,0,8
1777451116.2189848,2307,0,8
1777451116.227656,2217,0,8
1777451116.2278569,1944,0,8
1777451116.2281349,1702,0,8
1777451116.233003,1957,0,8
1777451116.2357912,2240,0,8
1777451116.237878,2337,0,8
1777451116.24051,2163,0,8
1777451116.2429,1796,0,8
1777451116.2458508,1766,0,8
1777451116.2507699,2125,0,8
1777451116.2532291,2312,0,8
1777451116.255056,2270,0,8
1777451116.258253,1988,0,8
1777451116.2613099,1729,0,8
1777451116.2639391,1912,0,8
1777451116.266848,2213,0,8
1777451116.269852,2320,0,8
1777451116.277001,2179,0,8
1777451116.2786078,1764,0,8
1777451116.278889,1765,0,8
1777451116.282594,2084,0,8
1777451116.2865121,2283,0,8
1777451116.288554,2299,0,8
1777451116.2912068,2073,0,8
1777451116.297241,1729,0,8
1777451116.299001,1864,0,8
1777451116.3011572,2200,0,8
1777451116.304031,2317,0,8
1777451116.306816,2211,0,8
1777451116.3088288,1884,0,8
1777451116.311851,1723,0,8
1777451116.3148422,2042,0,8
1777451116.3178399,2249,0,8
1777451116.322737,2295,0,8
1777451116.3255,2061,0,8
1777451116.327594,1736,0,8
1777451116.333529,1826,0,8
1777451116.333872,2131,0,8
1777451116.335972,2321,0,8
1777451116.3388648,2241,0,8
1777451116.3453288,1927,0,8
1777451116.346133,1695,0,8
1777451116.348991,2017,0,8
1777451116.3528352,2199,0,8
1777451116.3558211,2291,0,8
1777451116.358015,2164,0,8
1777451116.3598468,1754,0,8
1777451116.362827,1766,0,8
1777451116.36583,2150,0,8
1777451116.3725991,2358,0,8
1777451116.373842,2266,0,8
1777451116.377037,1981,0,8
1777451116.380468,1760,0,8
1777451116.383821,1985,0,8
1777451116.3843,2218,0,8
1777451116.387834,2301,0,8
1777451116.390514,2130,0,8
1777451116.3966122,1769,0,8
1777451116.397931,1749,0,8
1777451116.400266,2109,0,8
1777451116.402369,2243,0,8
1777451116.406661,2265,0,8
1777451116.408798,1955,0,8
1777451116.4108312,1676,0,8
1777451116.413903,1989,0,8
1777451116.4168231,2243,0,8
1777451116.424247,2327,0,8
1777451116.4261692,2206,0,8
1777451116.429284,1867,0,8
1777451116.432398,1810,0,8
1777451116.4352388,2047,0,8
1777451116.4355252,2369,0,8
1777451116.4378529,2287,0,8
1777451116.44083,2036,0,8
1777451116.4477608,1700,0,8
1777451116.447864,1917,0,8
1777451116.4498508,2289,0,8
1777451116.4530492,2411,0,8
1777451116.457244,2279,0,8
1777451116.459477,1907,0,8
1777451116.462045,1746,0,8
1777451116.464818,2113,0,8
1777451116.467853,2303,0,8
1777451116.4744802,2333,0,8
1777451116.476187,2120,0,8
1777451116.4781382,1722,0,8
1777451116.481351,1790,0,8
1777451116.484185,2076,0,8
1777451116.486253,2304,0,8
1777451116.488821,2332,0,8
1777451116.4946392,1908,0,8
1777451116.495417,1692,0,8
1777451116.49987,1946,0,8
1777451116.502191,2250,0,8
1777451116.504874,2312,0,8
1777451116.5071108,2102,0,8
1777451116.5098372,1702,0,8
1777451116.512827,1758,0,8
1777451116.51583,2204,0,8
1777451116.522052,2306,0,8
1777451116.5240252,2303,0,8
1777451116.526345,1969,0,8
1777451116.529292,1641,0,8
1777451116.532149,2023,0,8
1777451116.534095,2204,0,8
1777451116.536855,2262,0,8
1777451116.54243,2160,0,8
1777451116.5429099,1828,0,8
1777451116.546596,1862,0,8
1777451116.5497768,2128,0,8
1777451116.5529191,2266,0,8
1777451116.5550709,2237,0,8
1777451116.5577111,2001,0,8
1777451116.5607,1782,0,8
1777451116.564447,1781,0,8
1777451116.5700428,2286,0,8
1777451116.570137,2121,0,8
1777451116.573965,2234,0,8
1777451116.575933,1914,0,8
1777451116.579971,1820,0,8
1777451116.58218,2234,0,8
1777451116.584739,2407,0,8
1777451116.5901089,2271,0,8
1777451116.591541,1994,0,8
1777451116.5946722,1579,0,8
1777451116.597981,1833,0,8
1777451116.6008031,2286,0,8
1777451116.602898,2276,0,8
1777451116.605705,2162,0,8
1777451116.6087291,1899,0,8
1777451116.611687,1640,0,8
1777451116.619763,2030,0,8
1777451116.6214862,2250,0,8
1777451116.621711,2505,0,8
1777451116.624609,1984,0,8
1777451116.629601,1889,0,8
1777451116.629878,1890,0,8
1777451116.6328409,2170,0,8
1777451116.6356978,2417,0,8
1777451116.6406028,2325,0,8
1777451116.642493,2028,0,8
1777451116.64591,1702,0,8
1777451116.650283,1928,0,8
1777451116.650763,2148,0,8
1777451116.654031,2183,0,8
1777451116.656716,2088,0,8
1777451116.6596942,1790,0,8
1777451116.6627111,1824,0,8
1777451116.668777,2111,0,8
1777451116.670082,2305,0,8
1777451116.673824,1744,0,8
1777451116.677034,2196,0,8
1777451116.6802728,1780,0,8
1777451116.68249,2199,0,8
1777451116.684054,2270,0,8
1777451116.6867042,2024,0,8
1777451116.6924381,2281,0,8
1777451116.6934159,1754,0,8
1777451116.697289,1792,0,8
1777451116.700932,1815,0,8
1777451116.704044,2382,0,8
1777451116.706037,2765,0,8
1777451116.707699,1914,0,8
1777451116.710699,1487,0,8
1777451116.713713,1906,0,8
1777451116.71683,2497,0,8
1777451116.722461,2051,0,8
1777451116.7244139,2040,0,8
1777451116.72667,2115,0,8
1777451116.7304058,1952,0,8
1777451116.733227,1959,0,8
1777451116.735507,2269,0,8
1777451116.738069,2280,0,8
1777451116.744,2036,0,8
1777451116.7451038,1431,0,8
1777451116.747794,1644,0,8
1777451116.7500958,2809,0,8
1777451116.753995,2420,0,8
1777451116.7561889,2034,0,8
1777451116.7587469,1676,0,8
1777451116.7616901,1785,0,8
1777451116.7647302,2093,0,8
1777451116.7699,2389,0,8
1777451116.772049,2322,0,8
1777451116.773993,2057,0,8
1777451116.7771509,1634,0,8
1777451116.7798662,1764,0,8
1777451116.782729,1744,0,8
1777451116.785737,2542,0,8
1777451116.789991,2562,0,8
1777451116.792521,1707,0,8
1777451116.795499,1364,0,8
1777451116.799965,2373,0,8
1777451116.801954,2634,0,8
1777451116.8037398,2147,0,8
1777451116.806735,1926,0,8
1777451116.809725,1991,0,8
1777451116.8152351,1769,0,8
1777451116.81644,2168,0,8
1777451116.819353,1994,0,8
1777451116.8229802,2572,0,8
1777451116.825443,2131,0,8
1777451116.8282921,1744,0,8
1777451116.8308392,1897,0,8
1777451116.833719,1978,0,8
1777451116.840589,1729,0,8
1777451116.841258,2522,0,8
1777451116.843997,2011,0,8
1777451116.847036,2065,0,8
1777451116.849542,1785,0,8
1777451116.852389,1953,0,8
1777451116.8548748,1935,0,8
1777451116.857627,2146,0,8
1777451116.860712,2236,0,8
1777451116.865215,2285,0,8
1777451116.8671832,2169,0,8
1777451116.870584,2005,0,8
1777451116.8746681,967,0,8
1777451116.876588,2240,0,8
1777451116.879149,2568,0,8
1777451116.881705,2326,0,8
1777451116.8846002,2306,0,8
1777451116.889338,2231,0,8
1777451116.892063,2128,0,8
1777451116.893908,1882,0,8
1777451116.897027,1941,0,8
1777451116.899615,2045,0,8
1777451116.902614,2043,0,8
1777451116.9055848,2026,0,8
1777451116.908602,1684,0,8
1777451116.9149098,1675,0,8
1777451116.915304,1874,0,8
1777451116.91885,2484,0,8
1777451116.920789,2468,0,8
1777451116.924868,2102,0,8
1777451116.926914,1579,0,8
1777451116.929594,2111,0,8
1777451116.932568,1335,0,8
1777451116.935585,2708,0,8
1777451116.940184,2480,0,8
1777451116.942406,1846,0,8
1777451116.9454982,1781,0,8
1777451116.949383,2109,0,8
1777451116.951326,2225,0,8
1777451116.953974,2419,0,8
1777451116.956609,2067,0,8
1777451116.959594,1614,0,8
1777451116.963477,1854,0,8
1777451116.9657621,2191,0,8
1777451116.968645,2050,0,8
1777451116.9726841,2437,0,8
1777451116.974603,2214,0,8
1777451116.977598,1827,0,8
1777451116.980563,1785,0,8
1777451116.9866219,1934,0,8
1777451116.9869728,2298,0,8
1777451116.990762,2241,0,8
1777451116.993407,1735,0,8
1777451116.995893,1815,0,8
1777451116.998612,2109,0,8
1777451117.001621,2491,0,8
1777451117.004565,2339,0,8
1777451117.010357,1925,0,8
1777451117.010742,1891,0,8
1777451117.014267,1882,0,8
1777451117.017287,2155,0,8
1777451117.019773,2155,0,8
1777451117.022573,2120,0,8
1777451117.025586,1984,0,8
1777451117.028579,1929,0,8
1777451117.0344992,1909,0,8
1777451117.0352461,2278,0,8
1777451117.038167,2377,0,8
1777451117.043585,1826,0,8
1777451117.043703,1860,0,8
1777451117.0465999,1630,0,8
1777451117.049576,2358,0,8
1777451117.0532322,2437,0,8
1777451117.0580852,2231,0,8
1777451117.058746,1631,0,8
1777451117.062144,1606,0,8
1777451117.066585,1980,0,8
1777451117.068515,2509,0,8
1777451117.0710862,2580,0,8
1777451117.073644,2071,0,8
1777451117.076607,1708,0,8
1777451117.081323,1861,0,8
1777451117.0839171,2161,0,8
1777451117.085845,2320,0,8
1777451117.089387,2226,0,8
1777451117.092045,1811,0,8
1777451117.09458,1641,0,8
1777451117.097568,1868,0,8
1777451117.102889,2105,0,8
1777451117.105176,2470,0,8
1777451117.107092,2222,0,8
1777451117.1096451,1848,0,8
1777451117.11376,1812,0,8
1777451117.116123,2106,0,8
1777451117.118614,2260,0,8
1777451117.121569,2232,0,8
1777451117.12588,1987,0,8
1777451117.127486,1710,0,8
1777451117.130461,1843,0,8
1777451117.1342452,2174,0,8
1777451117.136929,2333,0,8
1777451117.139478,2177,0,8
1777451117.1430988,1751,0,8
1777451117.148057,1802,0,8
1777451117.148685,2183,0,8
1777451117.151498,2281,0,8
1777451117.156703,2286,0,8
1777451117.1582358,1931,0,8
1777451117.160792,1565,0,8
1777451117.163479,1621,0,8
1777451117.166476,2623,0,8
1777451117.1716979,2647,0,8
1777451117.1730921,2266,0,8
1777451117.1770911,1862,0,8
1777451117.1795561,1914,0,8
1777451117.181452,2244,0,8
1777451117.1844852,2331,0,8
1777451117.187476,2253,0,8
1777451117.193227,2109,0,8
1777451117.1942039,1701,0,8
1777451117.196492,1731,0,8
1777451117.2018251,2094,0,8
1777451117.2033348,2288,0,8
1777451117.205896,2259,0,8
1777451117.2084658,1949,0,8
1777451117.211473,1789,0,8
1777451117.2154849,2078,0,8
1777451117.218579,2225,0,8
1777451117.2206368,2147,0,8
1777451117.224246,2039,0,8
1777451117.226841,1747,0,8
1777451117.2294688,1655,0,8
1777451117.2324722,1894,0,8
1777451117.23841,2399,0,8
1777451117.240361,2356,0,8
1777451117.241985,2035,0,8
1777451117.24473,2012,0,8
1777451117.248532,2095,0,8
1777451117.2511182,2188,0,8
1777451117.253671,2324,0,8
1777451117.256446,2255,0,8
1777451117.260272,1861,0,8
1777451117.262441,1648,0,8
1777451117.2656481,2017,0,8
1777451117.2692502,2104,0,8
1777451117.271849,2191,0,8
1777451117.2745779,2116,0,8
1777451117.277477,1771,0,8
1777451117.2829618,1984,0,8
1777451117.284529,2290,0,8
1777451117.286709,2353,0,8
1777451117.291306,2121,0,8
1777451117.293191,1792,0,8
1777451117.295743,1753,0,8
1777451117.298469,1982,0,8
1777451117.304021,2238,0,8
1777451117.305381,2257,0,8
1777451117.307769,2121,0,8
1777451117.310708,1822,0,8
1777451117.314452,1992,0,8
1777451117.317004,2162,0,8
1777451117.3195531,2280,0,8
1777451117.322442,2109,0,8
1777451117.326454,1851,0,8
1777451117.328751,1784,0,8
1777451117.332947,2103,0,8
1777451117.3352718,2259,0,8
1777451117.3378701,2274,0,8
1777451117.340446,2066,0,8
1777451117.343467,1744,0,8
1777451117.347809,1913,0,8
1777451117.3500412,2125,0,8
1777451117.353193,2252,0,8
1777451117.3565161,2066,0,8
1777451117.35845,1870,0,8
1777451117.361446,1795,0,8
1777451117.364448,2100,0,8
1777451117.369952,2304,0,8
1777451117.370636,2329,0,8
1777451117.373594,2142,0,8
1777451117.378433,1811,0,8
1777451117.380309,1860,0,8
1777451117.382854,2167,0,8
1777451117.38541,2305,0,8
1777451117.3914418,2195,0,8
1777451117.3923578,1880,0,8
1777451117.395301,1653,0,8
1777451117.399999,1969,0,8
1777451117.4003441,2322,0,8
1777451117.403337,2341,0,8
1777451117.4063108,2117,0,8
1777451117.4093142,1847,0,8
1777451117.412761,1823,0,8
1777451117.416012,2141,0,8
1777451117.421062,2327,0,8
1777451117.42135,2255,0,8
1777451117.424306,1966,0,8
1777451117.427306,1722,0,8
1777451117.430314,1966,0,8
1777451117.434378,2213,0,8
1777451117.436697,2309,0,8
1777451117.440913,2164,0,8
1777451117.44327,1835,0,8
1777451117.4459362,1822,0,8
1777451117.448491,2135,0,8
1777451117.45134,2290,0,8
1777451117.456447,2255,0,8
1777451117.458303,2028,0,8
1777451117.461458,1761,0,8
1777451117.464811,1926,0,8
1777451117.466601,2185,0,8
1777451117.4693382,2342,0,8
1777451117.472317,2186,0,8
1777451117.478528,1836,0,8
1777451117.479161,1767,0,8
1777451117.481343,2081,0,8
1777451117.486439,2292,0,8
1777451117.4881752,2284,0,8
1777451117.49074,2062,0,8
1777451117.493341,1769,0,8
1777451117.496304,1884,0,8
1777451117.499957,2180,0,8
1777451117.5043268,2291,0,8
1777451117.5472739,2204,0,8
1777451117.547391,1919,0,8
1777451117.547423,1799,0,8
1777451117.5474901,2081,0,8
1777451117.547513,2309,0,8
1777451117.547536,2314,0,8
1777451117.5475578,2124,0,8
1777451117.547581,1739,0,8
1777451117.548249,1813,0,8
1777451117.548355,2130,0,8
1777451117.5483809,2301,0,8
1777451117.548446,2220,0,8
1777451117.548522,1879,0,8
1777451117.548634,1696,0,8
1777451117.548736,1996,0,8
1777451117.550324,2239,0,8
1777451117.553345,2311,0,8
1777451117.5563362,2141,0,8
1777451117.559315,1762,0,8
1777451117.562319,1789,0,8
1777451117.565472,2124,0,8
1777451117.569644,2265,0,8
1777451117.571462,2271,0,8
1777451117.5745752,1988,0,8
1777451117.57825,1748,0,8
1777451117.580904,1948,0,8
1777451117.583462,2219,0,8
1777451117.586303,2277,0,8
1777451117.591697,2184,0,8
1777451117.592439,1790,0,8
1777451117.596087,1789,0,8
1777451117.598343,2101,0,8
1777451117.602408,2283,0,8
1777451117.605002,2260,0,8
1777451117.607552,2021,0,8
1777451117.6102982,1725,0,8
1777451117.613835,1920,0,8
1777451117.617472,2209,0,8
1777451117.6203551,2303,0,8
1777451117.622755,2196,0,8
1777451117.625497,1824,0,8
1777451117.628326,1795,0,8
1777451117.631319,2048,0,8
1777451117.636756,2317,0,8
1777451117.637389,2316,0,8
1777451117.640623,2007,0,8
1777451117.6453261,1712,0,8
1777451117.647031,1878,0,8
1777451117.649587,2180,0,8
1777451117.652189,2323,0,8
1777451117.655262,2217,0,8
1777451117.6589718,1869,0,8
1777451117.662229,1708,0,8
1777451117.665466,2059,0,8
1777451117.668109,2261,0,8
1777451117.670827,2304,0,8
1777451117.6732569,2103,0,8
1777451117.6762,1730,0,8
1777451117.6792371,1829,0,8
1777451117.6833339,2171,0,8
1777451117.6853771,2300,0,8
1777451117.6887171,2201,0,8
1777451117.692245,1972,0,8
1777451117.6942239,1794,0,8
1777451117.697196,1964,0,8
1777451117.700201,2218,0,8
1777451117.7031958,2273,0,8
1777451117.706958,2105,0,8
1777451117.709559,1768,0,8
1777451117.7122922,1811,0,8
1777451117.716453,2138,0,8
1777451117.7183738,2279,0,8
1777451117.721185,2279,0,8
1777451117.724181,1969,0,8
1777451117.730689,1721,0,8
1777451117.731068,1919,0,8
1777451117.7342799,2209,0,8
1777451117.737174,2243,0,8
1777451117.739567,2138,0,8
1777451117.7423282,1761,0,8
1777451117.7452302,1715,0,8
1777451117.748524,2083,0,8
1777451117.7541,2252,0,8
1777451117.754753,2234,0,8
1777451117.7573152,1976,0,8
1777451117.760222,1691,0,8
1777451117.7644842,1851,0,8
1777451117.766183,2141,0,8
1777451117.769192,2268,0,8
1777451117.772191,2176,0,8
1777451117.77631,1794,0,8
1777451117.778458,1770,0,8
1777451117.781635,2028,0,8
1777451117.785187,2270,0,8
1777451117.787803,2261,0,8
1777451117.790356,2019,0,8
1777451117.7932181,1669,0,8
1777451117.79909,1804,0,8
1777451117.799839,2147,0,8
1777451117.8029702,2253,0,8
1777451117.807913,2186,0,8
1777451117.8082051,1889,0,8
1777451117.811178,1708,0,8
1777451117.814206,2048,0,8
1777451117.817206,2268,0,8
1777451117.821942,2262,0,8
1777451117.823769,2090,0,8
1777451117.8280199,1770,0,8
1777451117.8304179,1766,0,8
1777451117.832298,2171,0,8
1777451117.835218,2334,0,8
1777451117.838218,2274,0,8
1777451117.8437629,2003,0,8
1777451117.844408,1695,0,8
1777451117.847397,1925,0,8
1777451117.85232,2262,0,8
1777451117.854081,2354,0,8
1777451117.856643,2111,0,8
1777451117.859205,1754,0,8
1777451117.862203,1772,0,8
1777451117.865961,2115,0,8
1777451117.869199,2324,0,8
1777451117.872119,2235,0,8
1777451117.874588,1995,0,8
1777451117.877292,1769,0,8
1777451117.880096,1952,0,8
1777451117.883063,2233,0,8
1777451117.888018,2302,0,8
1777451117.890342,2127,0,8
1777451117.892123,1787,0,8
1777451117.89664,1789,0,8
1777451117.898418,2116,0,8
1777451117.9010901,2275,0,8
1777451117.9041018,2266,0,8
1777451117.9102669,2004,0,8
1777451117.9106581,1723,0,8
1777451117.913594,1899,0,8
1777451117.918527,2205,0,8
1777451117.920037,2311,0,8
1777451117.922594,2189,0,8
1777451117.925143,1814,0,8
1777451117.928114,1748,0,8
1777451117.931288,2072,0,8
1777451117.934619,2297,0,8
1777451117.937263,2272,0,8
1777451117.941343,2058,0,8
1777451117.9437351,1738,0,8
1777451117.9462788,1864,0,8
1777451117.949075,2176,0,8
1777451117.952505,2331,0,8
1777451117.956471,2216,0,8
1777451117.959145,1865,0,8
1777451117.9615538,1759,0,8
1777451117.9641259,2040,0,8
1777451117.967094,2265,0,8
1777451117.970742,2303,0,8
1777451117.974211,2101,0,8
1777451117.976469,1743,0,8
1777451117.980526,1838,0,8
1777451117.982767,2144,0,8
1777451117.9853828,2314,0,8
1777451117.988086,2224,0,8
1777451117.991055,1939,0,8
1777451117.995678,1711,0,8
1777451117.9976902,1978,0,8
1777451118.00067,2241,0,8
1777451118.0040371,2313,0,8
1777451118.006659,2132,0,8
1777451118.009204,1743,0,8
1777451118.012068,1787,0,8
1777451118.0180821,2147,0,8
1777451118.019116,2298,0,8
1777451118.021287,2245,0,8
1777451118.025708,1963,0,8
1777451118.0275111,1718,0,8
1777451118.030088,1955,0,8
1777451118.0330648,2219,0,8
1777451118.0390038,2319,0,8
1777451118.0396118,2154,0,8
1777451118.042639,1789,0,8
1777451118.047379,1756,0,8
1777451118.0492449,2098,0,8
1777451118.0510888,2295,0,8
1777451118.054067,2272,0,8
1777451118.0570729,2031,0,8
1777451118.061006,1727,0,8
1777451118.0643148,1895,0,8
1777451118.066672,2194,0,8
1777451118.069085,2351,0,8
1777451118.0720608,2193,0,8
1777451118.075092,1818,0,8
1777451118.078088,1736,0,8
1777451118.082976,2071,0,8
1777451118.0846,2284,0,8
1777451118.088736,2281,0,8
1777451118.091083,2076,0,8
1777451118.093715,1721,0,8
1777451118.096323,1852,0,8
1777451118.099067,2182,0,8
1777451118.103887,2306,0,8
1777451118.10607,2206,0,8
1777451118.110058,1867,0,8
1777451118.1123729,1726,0,8
1777451118.114075,2012,0,8
1777451118.1169438,2250,0,8
1777451118.119936,2303,0,8
1777451118.125611,2118,0,8
1777451118.1265779,1745,0,8
1777451118.129494,1827,0,8
1777451118.134007,2149,0,8
1777451118.135498,2327,0,8
1777451118.138064,2274,0,8
1777451118.14095,1898,0,8
1777451118.147619,1716,0,8
1777451118.14826,1976,0,8
1777451118.150462,2246,0,8
1777451118.153396,2351,0,8
1777451118.157218,2138,0,8
1777451118.1589272,1720,0,8
1777451118.1619468,1743,0,8
1777451118.164923,2130,0,8
1777451118.16838,2315,0,8
1777451118.171975,2304,0,8
1777451118.174838,1976,0,8
1777451118.177126,1705,0,8
1777451118.1799319,1966,0,8
1777451118.1829388,2248,0,8
1777451118.185927,2391,0,8
1777451118.191149,2157,0,8
1777451118.19359,1803,0,8
1777451118.196126,1733,0,8
1777451118.198549,2089,0,8
1777451118.2011352,2300,0,8
1777451118.203933,2271,0,8
1777451118.206966,2029,0,8
1777451118.211295,1762,0,8
1777451118.213315,1904,0,8
1777451118.217403,2222,0,8
1777451118.2196019,2322,0,8
1777451118.2223082,2223,0,8
1777451118.22503,1842,0,8
1777451118.227962,1771,0,8
1777451118.2329469,2086,0,8
1777451118.234549,2290,0,8
1777451118.2371688,2274,0,8
1777451118.240627,2099,0,8
1777451118.2432718,1785,0,8
1777451118.2459588,1879,0,8
1777451118.2489579,2189,0,8
1777451118.253273,2334,0,8
1777451118.25526,2250,0,8
1777451118.258265,1870,0,8
1777451118.2615209,1762,0,8
1777451118.2641459,2051,0,8
1777451118.266934,2295,0,8
1777451118.269969,2329,0,8
1777451118.275219,2125,0,8
1777451118.277813,1800,0,8
1777451118.2795331,1849,0,8
1777451118.28283,2175,0,8
1777451118.285475,2357,0,8
1777451118.2879438,2253,0,8
1777451118.2909591,1927,0,8
1777451118.2957811,1754,0,8
1777451118.2979252,2012,0,8
1777451118.299986,2273,0,8
1777451118.304221,2321,0,8
1777451118.3059578,2172,0,8
1777451118.308962,1801,0,8
1777451118.3119638,1815,0,8
1777451118.317675,2147,0,8
1777451118.318337,2345,0,8
1777451118.321771,2289,0,8
1777451118.325959,2016,0,8
1777451118.32782,1741,0,8
1777451118.330376,1958,0,8
1777451118.332941,2241,0,8
1777451118.3387341,2336,0,8
1777451118.339725,2189,0,8
1777451118.3429482,1808,0,8
1777451118.345303,1790,0,8
1777451118.349113,2109,0,8
1777451118.351477,2320,0,8
1777451118.354035,2278,0,8
1777451118.356927,2029,0,8
1777451118.3609998,1744,0,8
1777451118.3649971,1886,0,8
1777451118.3675148,2197,0,8
1777451118.369673,2326,0,8
1777451118.3724,2195,0,8
1777451118.374947,1820,0,8
1777451118.377856,1739,0,8
1777451118.3825421,2054,0,8
1777451118.38466,2282,0,8
1777451118.388621,2285,0,8
1777451118.390786,2067,0,8
1777451118.392852,1733,0,8
1777451118.395809,1839,0,8
1777451118.398842,2172,0,8
1777451118.404164,2311,0,8
1777451118.404854,2197,0,8
1777451118.408184,1900,0,8
1777451118.412311,1719,0,8
1777451118.413972,2002,0,8
1777451118.416805,2249,0,8
1777451118.419806,2293,0,8
1777451118.425739,2119,0,8
1777451118.42634,1727,0,8
1777451118.429322,1801,0,8
1777451118.4340658,2165,0,8
1777451118.435869,2316,0,8
1777451118.43842,2223,0,8
1777451118.440972,1905,0,8
1777451118.443807,1724,0,8
1777451118.44866,1965,0,8
1777451118.450214,2247,0,8
1777451118.454286,2296,0,8
1777451118.456498,2134,0,8
1777451118.4591832,1791,0,8
1777451118.4618409,1785,0,8
1777451118.465416,2132,0,8
1777451118.468992,2329,0,8
1777451118.4714298,2266,0,8
1777451118.475384,1963,0,8
1777451118.477603,1705,0,8
1777451118.480222,1930,0,8
1777451118.482815,2208,0,8
1777451118.485831,2314,0,8
1777451118.4910662,2164,0,8
1777451118.492637,1803,0,8
1777451118.496554,1749,0,8
1777451118.4987168,2085,0,8
1777451118.501371,2290,0,8
1777451118.503841,2267,0,8
1777451118.506808,2058,0,8
1777451118.511872,1724,0,8
1777451118.513768,1856,0,8
1777451118.515883,2179,0,8
1777451118.52004,2327,0,8
1777451118.5218308,2200,0,8
1777451118.524864,1836,0,8
1777451118.527811,1742,0,8
1777451118.533647,2070,0,8
1777451118.5340219,2282,0,8
1777451118.53689,2284,0,8
1777451118.5412512,2063,0,8
1777451118.543016,1755,0,8
1777451118.545811,1771,0,8
1777451118.5488389,2177,0,8
1777451118.554962,2344,0,8
1777451118.5555992,2226,0,8
1777451118.558872,1830,0,8
1777451118.5613272,1726,0,8
1777451118.56479,2043,0,8
1777451118.567204,2302,0,8
1777451118.569876,2348,0,8
1777451118.572813,2089,0,8
1777451118.576585,1748,0,8
1777451118.580294,1799,0,8
1777451118.582051,2162,0,8
1777451118.58523,2312,0,8
1777451118.5879161,2238,0,8
1777451118.590861,1906,0,8
1777451118.593826,1717,0,8
1777451118.599308,1951,0,8
1777451118.600331,2232,0,8
1777451118.6032488,2335,0,8
1777451118.6083121,2164,0,8
1777451118.6100988,1773,0,8
1777451118.6116989,1779,0,8
1777451118.614698,2103,0,8
1777451118.617717,2315,0,8
1777451118.623104,2276,0,8
1777451118.625539,1994,0,8
1777451118.628129,1717,0,8
1777451118.63307,1881,0,8
1777451118.633763,2204,0,8
1777451118.635791,2329,0,8
1777451118.638721,2140,0,8
1777451118.644673,1841,0,8
1777451118.6475031,1805,0,8
1777451118.650323,2024,0,8
1777451118.651989,2138,0,8
1777451118.654896,2256,0,8
1777451118.656877,2141,0,8
1777451118.6596951,1734,0,8
1777451118.662702,1838,0,8
1777451118.6657379,2309,0,8
1777451118.6704159,2152,0,8
1777451118.675771,2062,0,8
1777451118.676609,2138,0,8
1777451118.678642,1712,0,8
1777451118.683339,1989,0,8
1777451118.683697,2320,0,8
1777451118.6867242,2301,0,8
1777451118.693669,2125,0,8
1777451118.693931,1655,0,8
1777451118.6964931,1879,0,8
1777451118.701358,2077,0,8
1777451118.701751,2243,0,8
1777451118.7047071,2138,0,8
1777451118.707714,1838,0,8
1777451118.710687,1854,0,8
1777451118.717197,2135,0,8
1777451118.717985,2077,0,8
1777451118.7218518,2507,0,8
1777451118.724452,2243,0,8
1777451118.727231,1932,0,8
1777451118.729395,1862,0,8
1777451118.732082,2185,0,8
1777451118.7386072,2113,0,8
1777451118.739404,2098,0,8
1777451118.743111,1917,0,8
1777451118.7442281,1720,0,8
1777451118.7485912,2178,0,8
1777451118.7502341,1727,0,8
1777451118.752728,2604,0,8
1777451118.755705,2244,0,8
1777451118.758697,1957,0,8
1777451118.764572,1529,0,8
1777451118.7653508,1256,0,8
1777451118.768724,2950,0,8
1777451118.7718139,2846,0,8
1777451118.7743309,1967,0,8
1777451118.7773728,1735,0,8
1777451118.7800472,1991,0,8
1777451118.785324,2146,0,8
1777451118.78786,2477,0,8
1777451118.793142,2433,0,8
1777451118.795784,1690,0,8
1777451118.796128,1412,0,8
1777451118.79833,2226,0,8
1777451118.801014,1925,0,8
1777451118.803709,2498,0,8
1777451118.8066869,2196,0,8
1777451118.815271,1239,0,8
1777451118.815545,1786,0,8
1777451118.8157911,2283,0,8
1777451118.819402,2934,0,8
1777451118.824279,1975,0,8
1777451118.824797,1557,0,8
1777451118.828247,2023,0,8
1777451118.831197,2375,0,8
1777451118.8360431,2222,0,8
1777451118.838855,2384,0,8
1777451118.841472,2184,0,8
1777451118.844716,1685,0,8
1777451118.8478029,1587,0,8
1777451118.8500962,1869,0,8
1777451118.851698,2067,0,8
1777451118.854692,2015,0,8
1777451118.8576949,1977,0,8
1777451118.864628,1956,0,8
1777451118.865201,1296,0,8
1777451118.8681338,2594,0,8
1777451118.870178,3092,0,8
1777451118.874028,2281,0,8
1777451118.8769689,1508,0,8
1777451118.8793411,1852,0,8
1777451118.882015,2078,0,8
1777451118.890774,2105,0,8
1777451118.8910348,2233,0,8
1777451118.892724,1605,0,8
1777451118.896012,1952,0,8
1777451118.900486,1286,0,8
1777451118.9010181,2447,0,8
1777451118.903275,2618,0,8
1777451118.9060218,1011,0,8
1777451118.9086442,2179,0,8
1777451118.911564,2825,0,8
1777451118.9183471,2371,0,8
1777451118.918845,1965,0,8
1777451118.921408,1885,0,8
1777451118.924479,2137,0,8
1777451118.9302158,2091,0,8
1777451118.9303071,1899,0,8
1777451118.932744,2092,0,8
1777451118.9355562,2065,0,8
1777451118.941099,1908,0,8
1777451118.942008,2186,0,8
1777451118.945479,1982,0,8
1777451118.948204,1823,0,8
1777451118.9525728,2024,0,8
1777451118.95489,2701,0,8
1777451118.9566011,1957,0,8
1777451118.9595678,1580,0,8
1777451118.962564,2103,0,8
1777451118.969186,1870,0,8
1777451118.9700649,1781,0,8
1777451118.9726021,2283,0,8
1777451118.974625,2266,0,8
1777451118.978223,1773,0,8
1777451118.981097,2030,0,8
1777451118.984289,2324,0,8
1777451118.986999,2418,0,8
1777451118.9924731,1959,0,8
1777451118.993294,1547,0,8
1777451118.996486,1355,0,8
1777451119.0009441,2353,0,8
1777451119.004004,2315,0,8
1777451119.006006,2344,0,8
1777451119.007573,1606,0,8
1777451119.0105689,1608,0,8
1777451119.0135832,2296,0,8
1777451119.016727,2211,0,8
1777451119.021043,2265,0,8
1777451119.0239449,2205,0,8
1777451119.025955,1741,0,8
1777451119.0325491,1706,0,8
1777451119.032783,2035,0,8
1777451119.03533,2256,0,8
1777451119.0378618,2484,0,8
1777451119.044619,1619,0,8
1777451119.0453062,1439,0,8
1777451119.0475242,2246,0,8
1777451119.04983,2451,0,8
1777451119.056372,2062,0,8
1777451119.056596,2429,0,8
1777451119.058934,2086,0,8
1777451119.061599,1697,0,8
1777451119.0645819,1741,0,8
1777451119.0675762,2498,0,8
1777451119.0744991,2320,0,8
1777451119.0745978,2187,0,8
1777451119.077246,1692,0,8
1777451119.0806541,1828,0,8
1777451119.083215,2043,0,8
1777451119.086328,2113,0,8
1777451119.088809,2451,0,8
1777451119.09159,1768,0,8
1777451119.097978,1881,0,8
1777451119.098793,2139,0,8
1777451119.10227,2117,0,8
1777451119.1047711,2144,0,8
1777451119.106665,1856,0,8
1777451119.10966,1981,0,8
1777451119.112753,2152,0,8
1777451119.1155899,2280,0,8
1777451119.118546,2420,0,8
1777451119.121663,2121,0,8
1777451119.131626,1551,0,8
1777451119.134018,1898,0,8
1777451119.13462,1913,0,8
1777451119.1348639,2337,0,8
1777451119.13861,2431,0,8
1777451119.141907,1899,0,8
1777451119.144304,1843,0,8
1777451119.145691,1723,0,8
1777451119.1485639,1935,0,8
1777451119.155078,2301,0,8
1777451119.1568441,2278,0,8
1777451119.160331,1554,0,8
1777451119.161685,1809,0,8
1777451119.166346,2348,0,8
1777451119.166768,2367,0,8
1777451119.169887,2344,0,8
1777451119.172559,2158,0,8
1777451119.1762528,1865,0,8
1777451119.179005,1790,0,8
1777451119.186917,2084,0,8
1777451119.187296,2194,0,8
1777451119.1890419,1925,0,8
1777451119.1910028,1751,0,8
1777451119.196348,1663,0,8
1777451119.1969411,1884,0,8
1777451119.2000551,2471,0,8
1777451119.2027662,2487,0,8
1777451119.208268,2166,0,8
1777451119.209622,1730,0,8
1777451119.2131891,1874,0,8
1777451119.215134,2198,0,8
1777451119.220153,2231,0,8
1777451119.2204401,2222,0,8
1777451119.2234502,2027,0,8
1777451119.226432,1809,0,8
1777451119.2294369,1884,0,8
1777451119.232436,2085,0,8
1777451119.2377658,2351,0,8
1777451119.240151,2215,0,8
1777451119.242285,1894,0,8
1777451119.245673,1887,0,8
1777451119.248721,1983,0,8
1777451119.251009,2387,0,8
1777451119.25356,2320,0,8
1777451119.260354,2018,0,8
1777451119.260771,1788,0,8
1777451119.263633,1861,0,8
1777451119.265826,2211,0,8
1777451119.270884,2301,0,8
1777451119.273209,2117,0,8
1777451119.274528,1842,0,8
1777451119.277428,1856,0,8
1777451119.280436,2107,0,8
1777451119.286735,2289,0,8
1777451119.287222,2304,0,8
1777451119.2894459,2102,0,8
1777451119.2928262,1797,0,8
1777451119.297232,1853,0,8
1777451119.299297,2150,0,8
1777451119.301863,2267,0,8
1777451119.307512,2197,0,8
1777451119.3078852,1937,0,8
1777451119.3119948,1722,0,8
1777451119.3181,1935,0,8
1777451119.318584,2289,0,8
1777451119.320982,2407,0,8
1777451119.3224409,2163,0,8
1777451119.3260942,1805,0,8
1777451119.3286452,1825,0,8
1777451119.3375602,2156,0,8
1777451119.337931,2320,0,8
1777451119.339765,2237,0,8
1777451119.341323,1929,0,8
1777451119.3469498,1713,0,8
1777451119.34714,1970,0,8
1777451119.350029,2245,0,8
1777451119.352708,2303,0,8
1777451119.3586612,2191,0,8
1777451119.361009,1817,0,8
1777451119.363203,1833,0,8
1777451119.369627,2181,0,8
1777451119.3698812,2298,0,8
1777451119.3722591,2268,0,8
1777451119.373673,2011,0,8
1777451119.37643,1718,0,8
1777451119.379427,1915,0,8
1777451119.386925,2172,0,8
1777451119.3877928,2309,0,8
1777451119.3892732,2164,0,8
1777451119.3919091,1796,0,8
1777451119.3977978,1790,0,8
1777451119.3979871,2090,0,8
1777451119.401036,2274,0,8
1777451119.403611,2250,0,8
1777451119.409729,2040,0,8
1777451119.411467,1733,0,8
1777451119.414266,1909,0,8
1777451119.4171252,2229,0,8
1777451119.420052,2267,0,8
1777451119.4223099,2251,0,8
1777451119.425081,1894,0,8
1777451119.427704,1749,0,8
1777451119.4304519,2070,0,8
1777451119.4371688,2305,0,8
1777451119.437661,2326,0,8
1777451119.442081,2127,0,8
1777451119.442482,1760,0,8
1777451119.448243,1841,0,8
1777451119.448491,2156,0,8
1777451119.4516091,2361,0,8
1777451119.454438,2312,0,8
1777451119.459399,1937,0,8
1777451119.46594,1710,0,8
1777451119.467531,2007,0,8
1777451119.467565,2273,0,8
1777451119.470675,2323,0,8
1777451119.4727879,2122,0,8
1777451119.475443,1743,0,8
1777451119.478417,1808,0,8
1777451119.481419,2130,0,8
1777451119.487063,2291,0,8
1777451119.4878569,2214,0,8
1777451119.490863,1949,0,8
1777451119.4939961,1707,0,8
1777451119.496798,1980,0,8
1777451119.499674,2237,0,8
1777451119.502451,2323,0,8
1777451119.507055,2149,0,8
1777451119.508794,1787,0,8
1777451119.511702,1793,0,8
1777451119.516503,2144,0,8
1777451119.518534,2294,0,8
1777451119.520452,2233,0,8
1777451119.5234408,1986,0,8
1777451119.5264409,1731,0,8
1777451119.531978,1906,0,8
1777451119.532491,2198,0,8
1777451119.536433,2299,0,8
1777451119.539416,2176,0,8
1777451119.5422258,1824,0,8
1777451119.54446,1768,0,8
1777451119.5474298,2103,0,8
1777451119.5521889,2271,0,8
1777451119.5543199,2275,0,8
1777451119.557708,2024,0,8
1777451119.559359,1736,0,8
1777451119.562359,1870,0,8
1777451119.565331,2190,0,8
1777451119.568332,2293,0,8
1777451119.571302,2165,0,8
1777451119.577645,1828,0,8
1777451119.5783749,1724,0,8
1777451119.5816572,1998,0,8
1777451119.584809,2206,0,8
1777451119.587749,2235,0,8
1777451119.589684,2014,0,8
1777451119.592392,1680,0,8
1777451119.5987341,1791,0,8
1777451119.598837,2094,0,8
1777451119.602411,2279,0,8
1777451119.6052248,2150,0,8
1777451119.607918,1847,0,8
1777451119.6107268,1709,0,8
1777451119.613311,2041,0,8
1777451119.6163049,2249,0,8
1777451119.6222458,2276,0,8
1777451119.622962,2127,0,8
1777451119.626395,1760,0,8
1777451119.629745,1810,0,8
1777451119.632467,2149,0,8
1777451119.6344929,2317,0,8
1777451119.63732,2243,0,8
1777451119.640312,1933,0,8
1777451119.6433332,1710,0,8
1777451119.647657,1963,0,8
1777451119.649855,2230,0,8
1777451119.653049,2343,0,8
1777451119.657213,2137,0,8
1777451119.6593401,1732,0,8
1777451119.6618948,1776,0,8
1777451119.664456,2110,0,8
1777451119.66734,2281,0,8
1777451119.67184,2252,0,8
1777451119.6742778,2018,0,8
1777451119.6769128,1739,0,8
1777451119.681552,1981,0,8
1777451119.6831129,2239,0,8
1777451119.685673,2318,0,8
1777451119.688336,2198,0,8
1777451119.691333,1792,0,8
1777451119.696602,1762,0,8
1777451119.698646,2107,0,8
1777451119.7007942,2261,0,8
1777451119.706134,2260,0,8
1777451119.706433,2071,0,8
1777451119.709295,1719,0,8
1777451119.712297,1880,0,8
1777451119.715992,2220,0,8
1777451119.722087,2387,0,8
1777451119.72402,2126,0,8
1777451119.724363,1829,0,8
1777451119.727543,1719,0,8
1777451119.73214,2066,0,8
1777451119.7342348,2314,0,8
1777451119.73699,2282,0,8
1777451119.752413,2023,0,8
1777451119.752757,1784,0,8
1777451119.754242,1887,0,8
1777451119.754605,2159,0,8
1777451119.754812,2385,0,8
1777451119.754847,2275,0,8
1777451119.757527,1886,0,8
1777451119.760349,1789,0,8
1777451119.763308,1951,0,8
1777451119.776083,2266,0,8
1777451119.77903,2300,0,8
1777451119.7824929,2106,0,8
1777451119.78257,1764,0,8
1777451119.7826838,1776,0,8
1777451119.782838,2102,0,8
1777451119.7871628,2352,0,8
1777451119.791349,2270,0,8
1777451119.8235269,1897,0,8
1777451119.825123,1746,0,8
1777451119.8315752,1983,0,8
1777451119.831628,2275,0,8
1777451119.831656,2284,0,8
1777451119.831775,2147,0,8
1777451119.8318028,1796,0,8
1777451119.831895,1760,0,8
1777451119.832042,2112,0,8
1777451119.832145,2313,0,8
1777451119.8321831,2276,0,8
1777451119.832208,2007,0,8
1777451119.832233,1721,0,8
1777451119.832256,1929,0,8
1777451119.832281,2242,0,8
1777451119.838722,2321,0,8
1777451119.839103,2184,0,8
1777451119.842349,1821,0,8
1777451119.8445818,1765,0,8
1777451119.848353,2103,0,8
1777451119.850386,2310,0,8
1777451119.853333,2289,0,8
1777451119.856307,2030,0,8
1777451119.8593018,1716,0,8
1777451119.863263,1913,0,8
1777451119.8669472,2207,0,8
1777451119.8686001,2342,0,8
1777451119.872767,2209,0,8
1777451119.8746839,1851,0,8
1777451119.8773289,1738,0,8
1777451119.8802938,2063,0,8
1777451119.883328,2277,0,8
1777451119.8872252,2287,0,8
1777451119.8894432,2073,0,8
1777451119.89278,1750,0,8
1777451119.896954,1836,0,8
1777451119.898874,2173,0,8
1777451119.901439,2331,0,8
1777451119.904325,2217,0,8
1777451119.90733,1896,0,8
1777451119.912095,1724,0,8
1777451119.914159,2020,0,8
1777451119.917603,2260,0,8
1777451119.92155,2316,0,8
1777451119.9234948,2115,0,8
1777451119.925208,1759,0,8
1777451119.928213,1802,0,8
1777451119.931207,2150,0,8
1777451119.936797,2316,0,8
1777451119.9390972,2269,0,8
1777451119.940923,1964,0,8
1777451119.9465668,1701,0,8
1777451119.9466681,1972,0,8
1777451119.949482,2234,0,8
1777451119.952223,2316,0,8
1777451119.955211,2118,0,8
1777451119.961279,1762,0,8
1777451119.962013,1789,0,8
1777451119.9654222,2127,0,8
1777451119.967283,2288,0,8
1777451119.9714718,2262,0,8
1777451119.9733062,2002,0,8
1777451119.9762099,1718,0,8
1777451119.979209,1909,0,8
1777451119.985389,2232,0,8
1777451119.985475,2328,0,8
1777451119.989204,2175,0,8
1777451119.992069,1803,0,8
1777451119.994677,1741,0,8
1777451119.997366,2084,0,8
1777451120.000208,2282,0,8
1777451120.003171,2271,0,8
1777451120.009108,2033,0,8
1777451120.0091898,1716,0,8
1777451120.012457,1872,0,8
1777451120.015328,2175,0,8
1777451120.019757,2305,0,8
1777451120.021162,2180,0,8
1777451120.02419,1859,0,8
1777451120.027157,1745,0,8
1777451120.031795,2045,0,8
1777451120.034019,2233,0,8
1777451120.0385761,2290,0,8
1777451120.041176,2079,0,8
1777451120.0426948,1720,0,8
1777451120.0452511,1838,0,8
1777451120.0481658,2169,0,8
1777451120.051191,2312,0,8
1777451120.0557818,2231,0,8
1777451120.057413,1914,0,8
1777451120.060375,1723,0,8
1777451120.064401,2027,0,8
1777451120.066319,2264,0,8
1777451120.0691981,2316,0,8
1777451120.072201,2124,0,8
1777451120.078182,1761,0,8
1777451120.079526,1811,0,8
1777451120.0821939,2138,0,8
1777451120.085224,2321,0,8
1777451120.08774,2237,0,8
1777451120.090511,1935,0,8
1777451120.0932019,1723,0,8
1777451120.0961769,1964,0,8
1777451120.102112,2234,0,8
1777451120.1028538,2329,0,8
1777451120.106029,2149,0,8
1777451120.1089249,1757,0,8
1777451120.111676,1763,0,8
1777451120.114422,2128,0,8
1777451120.1172018,2317,0,8
1777451120.120169,2244,0,8
1777451120.127191,2016,0,8
1777451120.1282449,1732,0,8
1777451120.1298401,1940,0,8
1777451120.1350589,2237,0,8
1777451120.135298,2353,0,8
1777451120.138206,2208,0,8
1777451120.141168,1811,0,8
1777451120.1441898,1764,0,8
1777451120.1492548,2122,0,8
1777451120.151411,2302,0,8
1777451120.153311,2265,0,8
1777451120.158474,2059,0,8
1777451120.1603148,1741,0,8
1777451120.1622012,1872,0,8
1777451120.165191,2189,0,8
1777451120.168183,2321,0,8
1777451120.172548,2220,0,8
1777451120.1746109,1848,0,8
1777451120.17786,1727,0,8
1777451120.181827,2045,0,8
1777451120.183567,2269,0,8
1777451120.186201,2299,0,8
1777451120.189165,2086,0,8
1777451120.1927092,1724,0,8
1777451120.1954129,1845,0,8
1777451120.1987689,2163,0,8
1777451120.203862,2327,0,8
1777451120.205346,2225,0,8
1777451120.207167,1916,0,8
1777451120.210167,1734,0,8
1777451120.213171,2010,0,8
1777451120.222264,2287,0,8
1777451120.223139,2300,0,8
1777451120.223215,2107,0,8
1777451120.225641,1742,0,8
1777451120.228907,1796,0,8
1777451120.232702,2144,0,8
1777451120.234452,2286,0,8
1777451120.2371578,2251,0,8
1777451120.2416158,1960,0,8
1777451120.2437692,1745,0,8
1777451120.247927,1987,0,8
1777451120.250345,2221,0,8
1777451120.252112,2317,0,8
1777451120.2557251,2151,0,8
1777451120.258274,1779,0,8
1777451120.263844,1761,0,8
1777451120.2651362,2100,0,8
1777451120.267776,2282,0,8
1777451120.2704399,2247,0,8
1777451120.273129,2007,0,8
1777451120.276048,1745,0,8
1777451120.279082,1923,0,8
1777451120.282722,2211,0,8
1777451120.286438,2341,0,8
1777451120.288267,2201,0,8
1777451120.291122,1819,0,8
1777451120.294889,1753,0,8
1777451120.2974799,2085,0,8
1777451120.300181,2286,0,8
1777451120.3030798,2290,0,8
1777451120.308031,2042,0,8
1777451120.3101718,1718,0,8
1777451120.3123672,1858,0,8
1777451120.3168929,2208,0,8
1777451120.3187032,2313,0,8
1777451120.321147,2211,0,8
1777451120.324079,1879,0,8
1777451120.3306508,1726,0,8
1777451120.3313122,2069,0,8
1777451120.333855,2275,0,8
1777451120.338964,2306,0,8
1777451120.339044,2079,0,8
1777451120.342081,1721,0,8
1777451120.3450408,1834,0,8
1777451120.348078,2153,0,8
1777451120.352074,2331,0,8
1777451120.356171,2267,0,8
1777451120.358672,1922,0,8
1777451120.360975,1712,0,8
1777451120.3636649,2024,0,8
1777451120.36624,2274,0,8
1777451120.369076,2304,0,8
1777451120.374505,2085,0,8
1777451120.375704,1747,0,8
1777451120.378313,1799,0,8
1777451120.383492,2155,0,8
1777451120.385195,2313,0,8
1777451120.387043,2249,0,8
1777451120.390038,1973,0,8
1777451120.3930519,1747,0,8
1777451120.396765,1961,0,8
1777451120.4004228,2228,0,8
1777451120.402179,2336,0,8
1777451120.40554,2182,0,8
1777451120.408252,1787,0,8
1777451120.4110389,1744,0,8
1777451120.414044,2113,0,8
1777451120.419263,2318,0,8
1777451120.420945,2285,0,8
1777451120.425096,1996,0,8
1777451120.4273438,1711,0,8
1777451120.4292648,1902,0,8
1777451120.4320939,2208,0,8
1777451120.435054,2308,0,8
1777451120.44061,2186,0,8
1777451120.441557,1790,0,8
1777451120.44453,1706,0,8
1777451120.449373,2064,0,8
1777451120.451143,2291,0,8
1777451120.4536982,2254,0,8
1777451120.456241,2041,0,8
1777451120.4590771,1768,0,8
1777451120.463205,1871,0,8
1777451120.4651148,2166,0,8
1777451120.4682748,2333,0,8
1777451120.4716082,2223,0,8
1777451120.474358,1830,0,8
1777451120.4770539,1660,0,8
1777451120.480052,2092,0,8
1777451120.484755,2318,0,8
1777451120.488213,2283,0,8
1777451120.48964,2089,0,8
1777451120.4934661,1733,0,8
1777451120.495362,1796,0,8
1777451120.498084,2190,0,8
1777451120.501076,2336,0,8
1777451120.5069718,2258,0,8
1777451120.507359,1809,0,8
1777451120.5109062,1639,0,8
1777451120.5137122,2046,0,8
1777451120.516085,2300,0,8
1777451120.519079,2299,0,8
1777451120.521918,2182,0,8
1777451120.52496,1796,0,8
1777451120.529254,1762,0,8
1777451120.5325298,2146,0,8
1777451120.5341709,2336,0,8
1777451120.537688,2197,0,8
1777451120.540373,1989,0,8
1777451120.542957,1781,0,8
1777451120.5459242,1865,0,8
1777451120.550611,2168,0,8
1777451120.552746,2348,0,8
1777451120.555648,2153,0,8
1777451120.559244,1661,0,8
1777451120.560967,1851,0,8
1777451120.5639548,2146,0,8
1777451120.566952,2452,0,8
1777451120.5724401,2407,0,8
1777451120.573389,1948,0,8
1777451120.5764768,1451,0,8
1777451120.5789928,1735,0,8
1777451120.5828888,2830,0,8
1777451120.5854552,2328,0,8
1777451120.587956,2356,0,8
1777451120.5909271,2111,0,8
1777451120.5946329,1286,0,8
1777451120.598121,2187,0,8
1777451120.600883,2788,0,8
1777451120.603162,2132,0,8
1777451120.605954,1147,0,8
1777451120.608948,1910,0,8
1777451120.611941,2708,0,8
1777451120.6161711,2388,0,8
1777451120.618303,1807,0,8
1777451120.6214132,2405,0,8
1777451120.624786,2409,0,8
1777451120.626949,1913,0,8
1777451120.629933,2151,0,8
1777451120.632923,2011,0,8
1777451120.63902,2209,0,8
1777451120.639412,1347,0,8
1777451120.64258,1707,0,8
1777451120.647394,2017,0,8
1777451120.6489952,2473,0,8
1777451120.651562,2364,0,8
1777451120.654119,2171,0,8
1777451120.669833,1905,0,8
1777451120.6722932,1857,0,8
1777451120.672412,1979,0,8
1777451120.672538,2041,0,8
1777451120.6726432,2111,0,8
1777451120.67271,2006,0,8
1777451120.675494,1741,0,8
1777451120.6784189,1629,0,8
1777451120.681015,1861,0,8
1777451120.683916,2322,0,8
1777451120.689695,1879,0,8
1777451120.690419,2523,0,8
1777451120.694207,2177,0,8
1777451120.6959481,2022,0,8
1777451120.699383,2136,0,8
1777451120.701974,2319,0,8
1777451120.704951,2438,0,8
1777451120.7079191,1917,0,8
1777451120.713085,1469,0,8
1777451120.715053,1804,0,8
1777451120.717164,2500,0,8
1777451120.721647,2088,0,8
1777451120.7234821,1942,0,8
1777451120.72595,1832,0,8
1777451120.728951,1994,0,8
1777451120.7319481,2247,0,8
1777451120.7356632,2287,0,8
1777451120.739079,2278,0,8
1777451120.741004,1766,0,8
1777451120.744388,1661,0,8
1777451120.747114,1348,0,8
1777451120.7499342,2346,0,8
1777451120.752914,2701,0,8
1777451120.757202,2213,0,8
1777451120.759626,1756,0,8
1777451120.762795,2290,0,8
1777451120.7661371,2099,0,8
1777451120.76793,2086,0,8
1777451120.770945,2251,0,8
1777451120.773953,2031,0,8
1777451120.779052,1668,0,8
1777451120.781448,1394,0,8
1777451120.783946,2255,0,8
1777451120.7881222,2654,0,8
1777451120.7896042,2217,0,8
1777451120.7921522,1494,0,8
1777451120.7949178,1995,0,8
1777451120.7979531,2342,0,8
1777451120.801884,2347,0,8
1777451120.8042061,1862,0,8
1777451120.807394,2370,0,8
1777451120.81091,1798,0,8
1777451120.812832,1940,0,8
1777451120.815852,2137,0,8
1777451120.818827,1943,0,8
1777451120.825127,2289,0,8
1777451120.825508,2120,0,8
1777451120.8287601,1563,0,8
1777451120.831254,1903,0,8
1777451120.833893,2354,0,8
1777451120.8367949,2224,0,8
1777451120.839797,1549,0,8
1777451120.8427992,2090,0,8
1777451120.847349,2380,0,8
1777451120.849209,1915,0,8
1777451120.85215,1721,0,8
1777451120.8559701,1949,0,8
1777451120.857823,2339,0,8
1777451120.860822,1598,0,8
1777451120.863791,2488,0,8
1777451120.869689,2129,0,8
1777451120.870379,2234,0,8
1777451120.873835,2163,0,8
1777451120.876197,1888,0,8
1777451120.878915,1919,0,8
1777451120.881788,2041,0,8
1777451120.884792,2074,0,8
1777451120.887799,2230,0,8
1777451120.8924851,1469,0,8
1777451120.89588,2175,0,8
1777451120.897599,1674,0,8
1777451120.9012659,2275,0,8
1777451120.9030452,2159,0,8
1777451120.905826,2367,0,8
1777451120.9088252,2121,0,8
1777451120.914837,1940,0,8
1777451120.915437,2175,0,8
1777451120.9193301,2287,0,8
1777451120.92122,2071,0,8
1777451120.923882,1523,0,8
1777451120.926831,2018,0,8
1777451120.930114,2003,0,8
1777451120.932798,2201,0,8
1777451120.9372852,2342,0,8
1777451120.939601,1684,0,8
1777451120.9424572,1993,0,8
1777451120.946594,2043,0,8
1777451120.948475,2272,0,8
1777451120.951034,1843,0,8
1777451120.953826,1965,0,8
1777451120.959996,2764,0,8
1777451120.9609559,1677,0,8
1777451120.963715,1814,0,8
1777451120.9664772,1904,0,8
1777451120.968832,2304,0,8
1777451120.971796,2758,0,8
1777451120.974792,2028,0,8
1777451120.977792,1415,0,8
1777451120.982476,2109,0,8
1777451120.984071,2005,0,8
1777451120.990442,2417,0,8
1777451120.9906108,2228,0,8
1777451120.993197,1814,0,8
1777451120.995924,1790,0,8
1777451120.998822,2336,0,8
1777451121.004179,2438,0,8
1777451121.00578,2145,0,8
1777451121.008907,1653,0,8
1777451121.012256,1173,0,8
1777451121.014029,1987,0,8
1777451121.0168278,2409,0,8
1777451121.019824,2036,0,8
1777451121.025439,1809,0,8
1777451121.0261068,1795,0,8
1777451121.0293891,1885,0,8
1777451121.0340931,1855,0,8
1777451121.035868,2299,0,8
1777451121.038419,2340,0,8
1777451121.0409799,1696,0,8
1777451121.043864,1615,0,8
1777451121.047345,1653,0,8
1777451121.050655,2379,0,8
1777451121.05643,2483,0,8
1777451121.056483,2043,0,8
1777451121.059082,1571,0,8
1777451121.061802,1567,0,8
1777451121.064821,2214,0,8
1777451121.06922,2426,0,8
1777451121.0715299,2455,0,8
1777451121.075606,1853,0,8
1777451121.078021,1564,0,8
1777451121.079813,2189,0,8
1777451121.082813,2500,0,8
1777451121.0857868,2280,0,8
1777451121.091237,2048,0,8
1777451121.092513,1828,0,8
1777451121.095732,1632,0,8
1777451121.097891,2046,0,8
1777451121.101727,2023,0,8
1777451121.104279,2402,0,8
1777451121.10682,2050,0,8
1777451121.109658,1656,0,8
1777451121.115649,2214,0,8
1777451121.115702,2177,0,8
1777451121.120129,2280,0,8
1777451121.1225212,2186,0,8
1777451121.125132,1766,0,8
1777451121.127687,1670,0,8
1777451121.1306581,1857,0,8
1777451121.135788,2404,0,8
1777451121.1378,2287,0,8
1777451121.1399848,2125,0,8
1777451121.144383,1956,0,8
1777451121.146134,2055,0,8
1777451121.1486862,2254,0,8
1777451121.151701,2313,0,8
1777451121.157721,2125,0,8
1777451121.1580641,1835,0,8
1777451121.161293,1748,0,8
1777451121.166102,2216,0,8
1777451121.167655,2206,0,8
1777451121.170277,2336,0,8
1777451121.172839,2109,0,8
1777451121.1756978,1728,0,8
1777451121.180908,1879,0,8
1777451121.183306,2333,0,8
1777451121.1850398,2355,0,8
1777451121.1903849,2227,0,8
1777451121.190701,1869,0,8
1777451121.193674,1679,0,8
1777451121.196694,1925,0,8
1777451121.1997068,2272,0,8
1777451121.2050428,2115,0,8
1777451121.2058198,2159,0,8
1777451121.209192,1849,0,8
1777451121.216477,1565,0,8
1777451121.2166631,2269,0,8
1777451121.2180579,2396,0,8
1777451121.221141,2242,0,8
1777451121.223764,1988,0,8
1777451121.230618,1776,0,8
1777451121.2330291,1985,0,8
1777451121.233433,2295,0,8
1777451121.237165,2256,0,8
1777451121.241724,1961,0,8
1777451121.24201,1791,0,8
1777451121.244847,1793,0,8
1777451121.2476811,2150,0,8
1777451121.2519438,2271,0,8
1777451121.254477,2219,0,8
1777451121.259638,1638,0,8
1777451121.260044,2173,0,8
1777451121.26312,2171,0,8
1777451121.266312,2153,0,8
1777451121.268916,2287,0,8
1777451121.2717,2101,0,8
1777451121.28086,1832,0,8
1777451121.281178,1815,0,8
1777451121.283628,2172,0,8
1777451121.284771,2118,0,8
1777451121.2896068,2305,0,8
1777451121.2902799,2015,0,8
1777451121.293032,1738,0,8
1777451121.295879,1936,0,8
1777451121.300315,2218,0,8
1777451121.304291,2337,0,8
1777451121.305171,2220,0,8
1777451121.310682,1795,0,8
1777451121.310864,1766,0,8
1777451121.3137238,2028,0,8
1777451121.316683,2252,0,8
1777451121.3196821,2245,0,8
1777451121.326431,1975,0,8
1777451121.327602,1753,0,8
1777451121.330653,1883,0,8
1777451121.332644,2299,0,8
1777451121.337048,2282,0,8
1777451121.338956,2205,0,8
1777451121.340688,1863,0,8
1777451121.347161,1776,0,8
1777451121.348062,1974,0,8
1777451121.349803,2266,0,8
1777451121.353079,2279,0,8
1777451121.3580968,2094,0,8
1777451121.359838,1836,0,8
1777451121.3616798,1913,0,8
1777451121.364675,2183,0,8
1777451121.3676648,2310,0,8
1777451121.372828,2229,0,8
1777451121.37588,1883,0,8
1777451121.377764,1830,0,8
1777451121.379792,2124,0,8
1777451121.384494,2282,0,8
1777451121.386741,2338,0,8
1777451121.3886888,2180,0,8
1777451121.3957381,1838,0,8
1777451121.396248,1911,0,8
1777451121.398241,2186,0,8
1777451121.404015,2310,0,8
1777451121.407139,2222,0,8
1777451121.407579,1959,0,8
1777451121.409989,1751,0,8
1777451121.412684,1992,0,8
1777451121.41556,2147,0,8
1777451121.418558,2165,0,8
1777451121.427218,2140,0,8
1777451121.427499,1825,0,8
1777451121.428829,1833,0,8
1777451121.430579,2118,0,8
1777451121.436383,2257,0,8
1777451121.436859,2243,0,8
1777451121.4398808,1984,0,8
1777451121.442556,1715,0,8
1777451121.449717,1882,0,8
1777451121.4514189,2162,0,8
1777451121.4539788,2230,0,8
1777451121.45562,2054,0,8
1777451121.461271,1773,0,8
1777451121.46156,1602,0,8
1777451121.464053,2025,0,8
1777451121.4667451,2461,0,8
1777451121.469553,2175,0,8
1777451121.4725661,1893,0,8
1777451121.479475,1742,0,8
1777451121.4821372,1932,0,8
1777451121.482475,2170,0,8
1777451121.486173,2250,0,8
1777451121.488735,2153,0,8
1777451121.494196,1796,0,8
1777451121.494294,1666,0,8
1777451121.496896,1992,0,8
1777451121.5046122,2262,0,8
1777451121.508001,2254,0,8
1777451121.509255,2024,0,8
1777451121.509897,1741,0,8
1777451121.512594,1892,0,8
1777451121.5157492,2172,0,8
1777451121.518021,2350,0,8
1777451121.52059,2213,0,8
1777451121.523524,1904,0,8
1777451121.5265431,1705,0,8
1777451121.532989,2039,0,8
1777451121.5342479,2227,0,8
1777451121.535669,2340,0,8
1777451121.538601,2087,0,8
1777451121.544378,1752,0,8
1777451121.544659,1831,0,8
1777451121.547621,2176,0,8
1777451121.550555,2336,0,8
1777451121.555512,2256,0,8
1777451121.557703,1958,0,8
1777451121.559764,1735,0,8
1777451121.566114,1990,0,8
1777451121.566348,2203,0,8
1777451121.5686321,2280,0,8
1777451121.5715609,2157,0,8
1777451121.574529,1796,0,8
1777451121.577539,1799,0,8
1777451121.583061,2139,0,8
1777451121.584341,2297,0,8
1777451121.588246,2267,0,8
1777451121.5901508,1957,0,8
1777451121.594974,1725,0,8
1777451121.597086,1922,0,8
1777451121.598569,2194,0,8
1777451121.60154,2321,0,8
1777451121.606729,2224,0,8
1777451121.6089869,1811,0,8
1777451121.611019,1777,0,8
1777451121.6145658,2065,0,8
1777451121.617815,2283,0,8
1777451121.619961,2300,0,8
1777451121.6225688,2054,0,8
1777451121.625599,1647,0,8
1777451121.628541,1883,0,8
1777451121.6348538,2161,0,8
1777451121.635713,2262,0,8
1777451121.639701,2249,0,8
1777451121.6415029,1917,0,8
1777451121.64667,1802,0,8
1777451121.64702,2004,0,8
1777451121.6495638,2257,0,8
1777451121.6525629,2297,0,8
1777451121.6607518,2066,0,8
1777451121.6608472,1711,0,8
1777451121.663349,1794,0,8
1777451121.666684,2138,0,8
1777451121.6698902,2295,0,8
1777451121.672062,2212,0,8
1777451121.6734579,1839,0,8
1777451121.676432,1734,0,8
1777451121.6794538,2041,0,8
1777451121.682492,2156,0,8
1777451121.6871722,2276,0,8
1777451121.689727,2180,0,8
1777451121.692356,1788,0,8
1777451121.6955929,1880,0,8
1777451121.700536,2175,0,8
1777451121.7010229,2305,0,8
1777451121.7035992,2241,0,8
1777451121.710101,1970,0,8
1777451121.7105799,1730,0,8
1777451121.71263,1962,0,8
1777451121.716892,2189,0,8
1777451121.7184892,2289,0,8
1777451121.7220101,2127,0,8
1777451121.724801,1733,0,8
1777451121.727472,1831,0,8
1777451121.730422,2144,0,8
1777451121.733431,2295,0,8
1777451121.740496,2257,0,8
1777451121.741177,2020,0,8
1777451121.7445052,1798,0,8
1777451121.746746,1881,0,8
1777451121.752447,2202,0,8
1777451121.7527978,2296,0,8
1777451121.755182,2205,0,8
1777451121.757816,1819,0,8
1777451121.764928,1756,0,8
1777451121.767285,2041,0,8
1777451121.767493,2236,0,8
1777451121.772057,2248,0,8
1777451121.773814,2013,0,8
1777451121.777092,1771,0,8
1777451121.7796102,1937,0,8
1777451121.781416,2185,0,8
1777451121.7844129,2281,0,8
1777451121.7874272,2227,0,8
1777451121.794212,1881,0,8
1777451121.7959838,1749,0,8
1777451121.797555,2016,0,8
1777451121.800232,2244,0,8
1777451121.80378,2276,0,8
1777451121.8072379,2100,0,8
1777451121.809728,1730,0,8
1777451121.811414,1878,0,8
1777451121.81458,2158,0,8
1777451121.821933,2294,0,8
1777451121.822219,2189,0,8
1777451121.825563,1924,0,8
1777451121.831409,1722,0,8
1777451121.831716,1945,0,8
1777451121.834039,2197,0,8
1777451121.835456,2256,0,8
1777451121.838458,2085,0,8
1777451121.841453,1767,0,8
1777451121.8483222,1789,0,8
1777451121.849223,2115,0,8
1777451121.851268,2284,0,8
1777451121.854075,2226,0,8
1777451121.856902,1935,0,8
1777451121.860034,1725,0,8
1777451121.862441,1968,0,8
1777451121.865448,2336,0,8
1777451121.8705359,2239,0,8
1777451121.873009,2040,0,8
1777451121.874924,1834,0,8
1777451121.87846,1808,0,8
1777451121.881536,2073,0,8
1777451121.8837771,2304,0,8
1777451121.886465,2252,0,8
1777451121.889448,1972,0,8
1777451121.892419,1705,0,8
1777451121.898867,1926,0,8
1777451121.899325,2228,0,8
1777451121.90243,2328,0,8
1777451121.9058838,2204,0,8
1777451121.909096,1803,0,8
1777451121.9113421,1738,0,8
1777451121.913907,2071,0,8
1777451121.920201,2279,0,8
1777451121.920634,2269,0,8
1777451121.9224598,2069,0,8
1777451121.925725,1755,0,8
1777451121.93011,1887,0,8
1777451121.9318259,2220,0,8
1777451121.934439,2311,0,8
1777451121.937963,2206,0,8
1777451121.940523,1884,0,8
1777451121.9457312,1745,0,8
1777451121.9478579,1994,0,8
1777451121.950164,2252,0,8
1777451121.953258,2330,0,8
1777451121.956059,2105,0,8
1777451121.958966,1747,0,8
1777451121.961525,1855,0,8
1777451121.96704,2138,0,8
1777451121.968645,2309,0,8
1777451121.9704618,2234,0,8
1777451121.973784,1900,0,8
1777451121.9766378,1720,0,8
1777451121.979404,2016,0,8
1777451121.9824471,2239,0,8
1777451121.9854112,2284,0,8
1777451121.988451,2136,0,8
1777451121.992747,1777,0,8
1777451121.9948711,1810,0,8
1777451121.998517,2139,0,8
1777451122.00262,2328,0,8
1777451122.004659,2244,0,8
1777451122.006324,1926,0,8
1777451122.013124,1743,0,8
1777451122.01383,1973,0,8
1777451122.0153432,2257,0,8
1777451122.018393,2300,0,8
1777451122.023021,2152,0,8
1777451122.025117,1798,0,8
1777451122.027675,1781,0,8
1777451122.030278,2096,0,8
1777451122.03331,2299,0,8
1777451122.0388732,2273,0,8
1777451122.0396311,2009,0,8
1777451122.043274,1721,0,8
1777451122.046162,1898,0,8
1777451122.048952,2196,0,8
1777451122.051894,2307,0,8
1777451122.0544472,2194,0,8
1777451122.058629,1826,0,8
1777451122.060918,1761,0,8
1777451122.0640378,2086,0,8
1777451122.068115,2290,0,8
1777451122.070106,2303,0,8
1777451122.072673,2041,0,8
1777451122.075444,1760,0,8
1777451122.078321,1877,0,8
1777451122.08305,2194,0,8
1777451122.084755,2321,0,8
1777451122.087766,2191,0,8
1777451122.0921972,1868,0,8
1777451122.094115,1744,0,8
1777451122.0966809,2057,0,8
1777451122.0992918,2266,0,8
1777451122.102319,2234,0,8
1777451122.107414,2098,0,8
1777451122.109081,1751,0,8
1777451122.111955,1844,0,8
1777451122.116429,2162,0,8
1777451122.1184158,2315,0,8
1777451122.1203341,2235,0,8
1777451122.123293,1904,0,8
1777451122.126291,1726,0,8
1777451122.131368,1981,0,8
1777451122.133703,2242,0,8
1777451122.1355221,2318,0,8
1777451122.1385589,2128,0,8
1777451122.141311,1782,0,8
1777451122.144279,1801,0,8
1777451122.1478841,2163,0,8
1777451122.150444,2318,0,8
1777451122.156725,2260,0,8
1777451122.157105,1970,0,8
1777451122.160552,1716,0,8
1777451122.162708,1933,0,8
1777451122.166573,2233,0,8
1777451122.1685739,2303,0,8
1777451122.171318,2161,0,8
1777451122.174282,1794,0,8
1777451122.177279,1757,0,8
1777451122.18175,2124,0,8
1777451122.184143,2312,0,8
1777451122.18686,2313,0,8
1777451122.191288,2009,0,8
1777451122.193239,1757,0,8
1777451122.195789,1938,0,8
1777451122.1982799,2242,0,8
1777451122.201298,2351,0,8
1777451122.205618,2206,0,8
1777451122.208179,1896,0,8
1777451122.2106721,1803,0,8
1777451122.215128,2108,0,8
1777451122.2170591,2329,0,8
1777451122.2196171,2360,0,8
1777451122.222296,2094,0,8
1777451122.225294,1784,0,8
1777451122.230264,1928,0,8
1777451122.232436,2230,0,8
1777451122.234424,2346,0,8
1777451122.2393441,2243,0,8
1777451122.241245,1868,0,8
1777451122.2437918,1701,0,8
1777451122.2463481,2062,0,8
1777451122.249318,2284,0,8
1777451122.254195,2332,0,8
1777451122.256869,2101,0,8
1777451122.258776,1780,0,8
1777451122.2638521,1815,0,8
1777451122.2657049,2185,0,8
1777451122.267314,2343,0,8
1777451122.270308,2233,0,8
1777451122.273294,1892,0,8
1777451122.278073,1696,0,8
1777451122.280276,1992,0,8
1777451122.2835891,2256,0,8
1777451122.287213,2291,0,8
1777451122.2891772,2099,0,8
1777451122.2917278,1814,0,8
1777451122.2942772,1835,0,8
1777451122.297289,2110,0,8
1777451122.301963,2267,0,8
1777451122.30392,2250,0,8
1777451122.306953,1964,0,8
1777451122.3107798,1722,0,8
1777451122.312335,1936,0,8
1777451122.315289,2269,0,8
1777451122.3182878,2302,0,8
1777451122.32128,2110,0,8
1777451122.3251898,1783,0,8
1777451122.3273878,1817,0,8
1777451122.330452,2190,0,8
1777451122.334357,2354,0,8
1777451122.336318,2208,0,8
1777451122.339175,1981,0,8
1777451122.34217,1726,0,8
1777451122.345161,1952,0,8
1777451122.349113,2194,0,8
1777451122.352722,2316,0,8
1777451122.354163,2181,0,8
1777451122.358016,1845,0,8
1777451122.3607628,1745,0,8
1777451122.363316,2071,0,8
1777451122.366163,2254,0,8
1777451122.372256,2266,0,8
1777451122.3726301,2067,0,8
1777451122.37603,1730,0,8
1777451122.379033,1806,0,8
1777451122.381532,2062,0,8
1777451122.384274,2355,0,8
1777451122.38718,2171,0,8
1777451122.390183,1897,0,8
1777451122.396231,1849,0,8
1777451122.3975601,2060,0,8
1777451122.400013,2253,0,8
1777451122.403336,2322,0,8
1777451122.405781,2166,0,8
1777451122.408489,1769,0,8
1777451122.411202,1811,0,8
1777451122.4142778,2194,0,8
1777451122.420028,2298,0,8
1777451122.4207108,2128,0,8
1777451122.423819,1789,0,8
1777451122.429213,1715,0,8
1777451122.429375,2066,0,8
1777451122.4321659,2173,0,8
1777451122.435159,2127,0,8
1777451122.438164,2413,0,8
1777451122.44398,1957,0,8
1777451122.444949,1877,0,8
1777451122.447384,2071,0,8
1777451122.450539,2316,0,8
1777451122.453228,2287,0,8
1777451122.456162,2033,0,8
1777451122.459723,1379,0,8
1777451122.46227,1926,0,8
1777451122.467086,2406,0,8
1777451122.4693382,2380,0,8
1777451122.471416,2193,0,8
1777451122.476235,1736,0,8
1777451122.478136,1817,0,8
1777451122.4807,2143,0,8
1777451122.483257,2249,0,8
1777451122.486187,1987,0,8
1777451122.49156,2058,0,8
1777451122.49356,1644,0,8
1777451122.495276,1355,0,8
1777451122.500306,2324,0,8
1777451122.5022368,2760,0,8
1777451122.504663,2319,0,8
1777451122.507303,1916,0,8
1777451122.5101922,1838,0,8
1777451122.5154922,2107,0,8
1777451122.517778,2262,0,8
1777451122.519532,2248,0,8
1777451122.524586,1922,0,8
1777451122.5265,1654,0,8
1777451122.5281768,1649,0,8
1777451122.531161,2244,0,8
1777451122.541034,2516,0,8
1777451122.541474,1963,0,8
1777451122.541954,1750,0,8
1777451122.544516,1948,0,8
1777451122.546509,2253,0,8
1777451122.5503948,2280,0,8
1777451122.552279,2336,0,8
1777451122.555158,1823,0,8
1777451122.560086,1793,0,8
1777451122.562603,1972,0,8
1777451122.5645561,2078,0,8
1777451122.5694551,2476,0,8
1777451122.571394,2289,0,8
1777451122.573162,1953,0,8
1777451122.576152,1626,0,8
1777451122.579165,1637,0,8
1777451122.583102,2332,0,8
1777451122.585425,2232,0,8
1777451122.588475,2223,0,8
1777451122.592052,1917,0,8
1777451122.5946932,1968,0,8
1777451122.597247,2118,0,8
1777451122.600178,2238,0,8
1777451122.606677,2240,0,8
1777451122.607306,2090,0,8
1777451122.609844,1837,0,8
1777451122.6126342,1878,0,8
1777451122.6163268,2210,0,8
1777451122.618173,2003,0,8
1777451122.621758,2042,0,8
1777451122.6243021,1752,0,8
1777451122.628619,1777,0,8
1777451122.630508,2372,0,8
1777451122.634767,2436,0,8
1777451122.637037,2440,0,8
1777451122.639766,2063,0,8
1777451122.6423192,1560,0,8
1777451122.645189,1560,0,8
1777451122.650941,2406,0,8
1777451122.6513312,2471,0,8
1777451122.6552892,2081,0,8
1777451122.658977,1830,0,8
1777451122.660819,1948,0,8
1777451122.663378,2111,0,8
1777451122.666175,2309,0,8
1777451122.6692858,2337,0,8
1777451122.673766,1939,0,8
1777451122.675423,1879,0,8
1777451122.682129,1899,0,8
1777451122.682355,2144,0,8
1777451122.684221,2191,0,8
1777451122.687833,1978,0,8
1777451122.6903942,1725,0,8
1777451122.6967309,2028,0,8
1777451122.697691,2004,0,8
1777451122.6992042,2404,0,8
1777451122.702556,2238,0,8
1777451122.706131,2051,0,8
1777451122.708152,1776,0,8
1777451122.711147,1761,0,8
1777451122.714155,2033,0,8
1777451122.721526,2379,0,8
1777451122.721951,2347,0,8
1777451122.7233212,1585,0,8
1777451122.726429,1905,0,8
1777451122.730272,1891,0,8
1777451122.732244,2178,0,8
1777451122.735183,2428,0,8
1777451122.738219,2269,0,8
1777451122.744384,1877,0,8
1777451122.744443,1699,0,8
1777451122.747875,2291,0,8
1777451122.7509131,2345,0,8
1777451122.753265,1927,0,8
1777451122.75619,2075,0,8
1777451122.7591848,1811,0,8
1777451122.762193,1953,0,8
1777451122.767951,2301,0,8
1777451122.768357,2089,0,8
1777451122.771474,2265,0,8
1777451122.776414,2073,0,8
1777451122.777911,1771,0,8
1777451122.7804701,2170,0,8
1777451122.783193,2065,0,8
1777451122.7861881,2377,0,8
1777451122.7908149,1765,0,8
1777451122.79247,1822,0,8
1777451122.7955992,1745,0,8
1777451122.799065,2042,0,8
1777451122.80198,2564,0,8
1777451122.8045309,2128,0,8
1777451122.807182,1771,0,8
1777451122.812879,1723,0,8
1777451122.813266,1986,0,8
1777451122.8163142,2255,0,8
1777451122.821475,2502,0,8
1777451122.82334,2002,0,8
1777451122.825162,1251,0,8
1777451122.828185,2084,0,8
1777451122.83116,2484,0,8
1777451122.8347268,2196,0,8
1777451122.8384058,2071,0,8
1777451122.841109,1940,0,8
1777451122.843554,1777,0,8
1777451122.8464499,1938,0,8
1777451122.849205,2169,0,8
1777451122.8529139,2003,0,8
1777451122.857273,2011,0,8
1777451122.859013,1870,0,8
1777451122.862006,2107,0,8
1777451122.865452,2116,0,8
1777451122.867258,2234,0,8
1777451122.8701508,2144,0,8
1777451122.87316,2154,0,8
1777451122.8795662,1651,0,8
1777451122.879952,1894,0,8
1777451122.883185,2030,0,8
1777451122.886024,1985,0,8
1777451122.8883991,1992,0,8
1777451122.891217,1924,0,8
1777451122.89419,2012,0,8
1777451122.8971908,2158,0,8
1777451122.9025002,1619,0,8
1777451122.9038742,2580,0,8
1777451122.90711,2469,0,8
1777451122.910483,1795,0,8
1777451122.912416,1819,0,8
1777451122.915183,2050,0,8
1777451122.918161,2618,0,8
1777451122.924368,2135,0,8
1777451122.925945,1793,0,8
1777451122.927667,1601,0,8
1777451122.932532,1992,0,8
1777451122.9340649,2335,0,8
1777451122.936543,2114,0,8
1777451122.939151,2070,0,8
1777451122.942187,1855,0,8
1777451122.9460301,1754,0,8
1777451122.9482381,2119,0,8
1777451122.952636,2420,0,8
1777451122.954956,2367,0,8
1777451122.957698,1923,0,8
1777451122.960248,1716,0,8
1777451122.963179,1952,0,8
1777451122.968045,2210,0,8
1777451122.97029,2135,0,8
1777451122.9726038,2041,0,8
1777451122.977134,1857,0,8
1777451122.9786391,1877,0,8
1777451122.981208,2072,0,8
1777451122.9841878,2370,0,8
1777451122.9905071,2153,0,8
1777451122.991213,1976,0,8
1777451122.9939032,1801,0,8
1777451122.9971578,2005,0,8
1777451122.999467,2145,0,8
1777451123.002207,2295,0,8
1777451123.0060391,2124,0,8
1777451123.0086331,1749,0,8
1777451123.014526,1983,0,8
1777451123.015211,2157,0,8
1777451123.018357,2194,0,8
1777451123.023215,2194,0,8
1777451123.023363,2009,0,8
1777451123.026382,1794,0,8
1777451123.0291572,2047,0,8
1777451123.032192,2240,0,8
1777451123.037388,2142,0,8
1777451123.038919,2178,0,8
1777451123.041993,1879,0,8
1777451123.045394,1666,0,8
1777451123.047319,2173,0,8
1777451123.050187,2213,0,8
1777451123.0531971,1933,0,8
1777451123.059486,2199,0,8
1777451123.060447,1804,0,8
1777451123.0630898,1985,0,8
1777451123.06625,2160,0,8
1777451123.068613,2278,0,8
1777451123.0711958,2295,0,8
1777451123.074188,1852,0,8
1777451123.077159,1775,0,8
1777451123.0817761,2101,0,8
1777451123.0838652,2258,0,8
1777451123.086862,2214,0,8
1777451123.090341,1984,0,8
1777451123.092192,1548,0,8
1777451123.095186,1800,0,8
1777451123.098189,1876,0,8
1777451123.104169,2698,0,8
1777451123.105082,2325,0,8
1777451123.107602,1910,0,8
1777451123.112598,1924,0,8
1777451123.1144068,2224,0,8
1777451123.116218,2369,0,8
1777451123.119189,2301,0,8
1777451123.122187,2096,0,8
1777451123.126127,1825,0,8
1777451123.128204,1766,0,8
1777451123.1323562,1734,0,8
1777451123.134691,2042,0,8
1777451123.137516,2329,0,8
1777451123.1401658,1900,0,8
1777451123.14316,1824,0,8
1777451123.148848,2205,0,8
1777451123.150201,2164,0,8
1777451123.153746,2422,0,8
1777451123.1584451,2111,0,8
1777451123.158543,1550,0,8
1777451123.161283,1997,0,8
1777451123.164205,2180,0,8
1777451123.167168,2325,0,8
1777451123.1722932,2145,0,8
1777451123.174123,1503,0,8
1777451123.176575,1975,0,8
1777451123.180796,2244,0,8
1777451123.182685,2253,0,8
1777451123.185235,2346,0,8
1777451123.18815,2071,0,8
1777451123.194241,1896,0,8
1777451123.195222,1891,0,8
1777451123.197751,2128,0,8
1777451123.20065,2022,0,8
1777451123.203163,2448,0,8
1777451123.206173,2069,0,8
1777451123.209194,1562,0,8
1777451123.212168,2065,0,8
1777451123.2171252,2287,0,8
1777451123.219022,2273,0,8
1777451123.222135,2210,0,8
1777451123.225606,1831,0,8
1777451123.227503,1772,0,8
1777451123.2301881,1924,0,8
1777451123.233182,2340,0,8
1777451123.2393641,2419,0,8
1777451123.239978,1957,0,8
1777451123.243205,1739,0,8
1777451123.247914,1923,0,8
1777451123.248192,2250,0,8
1777451123.2511868,2413,0,8
1777451123.254147,2263,0,8
1777451123.25791,1857,0,8
1777451123.261869,1744,0,8
1777451123.263477,1982,0,8
1777451123.266405,2141,0,8
1777451123.270206,2086,0,8
1777451123.272821,1776,0,8
1777451123.275261,1977,0,8
1777451123.2781692,1752,0,8
1777451123.283536,2285,0,8
1777451123.284543,2494,0,8
1777451123.287507,2165,0,8
1777451123.292347,1808,0,8
1777451123.294097,1734,0,8
1777451123.2966459,2097,0,8
1777451123.299202,2325,0,8
1777451123.302191,2307,0,8
1777451123.306046,2040,0,8
1777451123.309331,1502,0,8
1777451123.311302,1728,0,8
1777451123.314826,2242,0,8
1777451123.3174772,2418,0,8
1777451123.320194,2256,0,8
1777451123.3231812,1938,0,8
1777451123.328605,1826,0,8
1777451123.329219,2040,0,8
1777451123.332381,2230,0,8
1777451123.33704,2262,0,8
1777451123.338944,2070,0,8
1777451123.341493,1738,0,8
1777451123.344169,1780,0,8
1777451123.347167,2120,0,8
1777451123.35077,2282,0,8
1777451123.3540428,2244,0,8
1777451123.356871,1976,0,8
1777451123.359194,1732,0,8
1777451123.362276,1957,0,8
1777451123.365184,2199,0,8
1777451123.368184,2274,0,8
1777451123.373843,2142,0,8
1777451123.3749561,1774,0,8
1777451123.379036,1818,0,8
1777451123.381336,2187,0,8
1777451123.383208,2332,0,8
1777451123.386189,2245,0,8
1777451123.389184,2010,0,8
1777451123.394752,1709,0,8
1777451123.3953831,1926,0,8
1777451123.398589,2244,0,8
1777451123.403418,2327,0,8
1777451123.4051871,2191,0,8
1777451123.407756,1869,0,8
1777451123.410305,1808,0,8
1777451123.413192,2102,0,8
1777451123.417689,2285,0,8
1777451123.419471,2283,0,8
1777451123.422213,2060,0,8
1777451123.4261298,1760,0,8
1777451123.428848,1846,0,8
1777451123.431394,2165,0,8
1777451123.434156,2309,0,8
1777451123.439491,2211,0,8
1777451123.4403808,1695,0,8
1777451123.4438322,1768,0,8
1777451123.4484422,2263,0,8
1777451123.45018,2320,0,8
1777451123.452756,2287,0,8
1777451123.455296,2070,0,8
1777451123.458163,1776,0,8
1777451123.4620469,1856,0,8
1777451123.464266,2167,0,8
1777451123.467405,2325,0,8
1777451123.4708638,2170,0,8
1777451123.473577,1826,0,8
1777451123.4761758,1711,0,8
1777451123.479163,2048,0,8
1777451123.484948,2321,0,8
1777451123.4865909,2292,0,8
1777451123.488849,2107,0,8
1777451123.493981,1756,0,8
1777451123.49423,1786,0,8
1777451123.497173,2152,0,8
1777451123.5002391,2257,0,8
1777451123.503167,2235,0,8
1777451123.509015,1930,0,8
1777451123.509965,1725,0,8
1777451123.513524,1976,0,8
1777451123.516491,2245,0,8
1777451123.5189571,2348,0,8
1777451123.521129,2129,0,8
1777451123.5241752,1752,0,8
1777451123.527147,1763,0,8
1777451123.544352,2125,0,8
1777451123.544394,2283,0,8
1777451123.544418,2239,0,8
1777451123.544441,1982,0,8
1777451123.5444999,1715,0,8
1777451123.546544,1981,0,8
1777451123.578018,2232,0,8
1777451123.5780969,2312,0,8
1777451123.578186,2191,0,8
1777451123.5782452,1807,0,8
1777451123.578296,1773,0,8
1777451123.578453,2094,0,8
1777451123.578515,2282,0,8
1777451123.578592,2281,0,8
1777451123.578685,2025,0,8
1777451123.578748,1753,0,8
1777451123.5788002,1894,0,8
1777451123.582199,2212,0,8
1777451123.584137,2354,0,8
1777451123.5871801,2198,0,8
1777451123.590142,1859,0,8
1777451123.593131,1795,0,8
1777451123.600172,2046,0,8
1777451123.600698,2211,0,8
1777451123.603002,2264,0,8
1777451123.60582,2110,0,8
1777451123.610671,1757,0,8
1777451123.611238,1871,0,8
1777451123.614142,2174,0,8
1777451123.621326,2300,0,8
1777451123.622171,2223,0,8
1777451123.625439,1908,0,8
1777451123.626987,1757,0,8
1777451123.630831,2015,0,8
1777451123.633121,2169,0,8
1777451123.635793,2292,0,8
1777451123.6383371,2137,0,8
1777451123.641174,1778,0,8
1777451123.6514401,1814,0,8
1777451123.6528032,2161,0,8
1777451123.6554592,2305,0,8
1777451123.655688,2236,0,8
1777451123.658431,1941,0,8
1777451123.6606872,1728,0,8
1777451123.662187,1942,0,8
1777451123.667979,2234,0,8
1777451123.6686661,2307,0,8
1777451123.6731598,2123,0,8
1777451123.675127,1803,0,8
1777451123.679654,1825,0,8
1777451123.6817942,2126,0,8
1777451123.68318,2284,0,8
1777451123.686188,2225,0,8
1777451123.689184,2027,0,8
1777451123.6945632,1742,0,8
1777451123.695306,1949,0,8
1777451123.698698,2206,0,8
1777451123.704132,2305,0,8
1777451123.704365,2131,0,8
1777451123.70719,1765,0,8
1777451123.710169,1752,0,8
1777451123.713182,2110,0,8
1777451123.7187378,2113,0,8
1777451123.719452,2322,0,8
1777451123.7229922,2154,0,8
1777451123.7260742,1826,0,8
1777451123.728812,1941,0,8
1777451123.731199,2241,0,8
1777451123.734189,2326,0,8
1777451123.737685,2247,0,8
1777451123.743187,1882,0,8
1777451123.7436008,1722,0,8
1777451123.747775,2027,0,8
1777451123.7501671,2217,0,8
1777451123.752764,2238,0,8
1777451123.755471,2110,0,8
1777451123.7581928,1758,0,8
1777451123.761162,1887,0,8
1777451123.768297,2241,0,8
1777451123.768754,2341,0,8
1777451123.772112,2236,0,8
1777451123.773889,1924,0,8
1777451123.77768,1787,0,8
1777451123.779496,2026,0,8
1777451123.7821481,2230,0,8
1777451123.790853,2313,0,8
1777451123.792421,2144,0,8
1777451123.7943628,1817,0,8
1777451123.7967858,1825,0,8
1777451123.7997282,2158,0,8
1777451123.8003001,2247,0,8
1777451123.803264,2252,0,8
1777451123.806174,2015,0,8
1777451123.809165,1758,0,8
1777451123.8187258,2059,0,8
1777451123.818933,2255,0,8
1777451123.8213508,2324,0,8
1777451123.82221,2147,0,8
1777451123.824779,1828,0,8
1777451123.8279731,1803,0,8
1777451123.830234,2103,0,8
1777451123.833171,2250,0,8
1777451123.839792,2218,0,8
1777451123.8413508,2037,0,8
1777451123.8429492,1758,0,8
1777451123.8493938,1924,0,8
1777451123.849866,2207,0,8
1777451123.852103,2336,0,8
1777451123.854733,2247,0,8
1777451123.857352,1770,0,8
1777451123.8601658,1770,0,8
1777451123.869431,2058,0,8
1777451123.8713212,2313,0,8
1777451123.871874,2271,0,8
1777451123.8732622,2066,0,8
1777451123.875744,1742,0,8
1777451123.878817,1878,0,8
1777451123.88185,2197,0,8
1777451123.884775,2300,0,8
1777451123.889984,2179,0,8
1777451123.890773,1839,0,8
1777451123.8939788,1726,0,8
1777451123.90017,2043,0,8
1777451123.9007518,2273,0,8
1777451123.902886,2302,0,8
1777451123.90551,2093,0,8
1777451123.9081652,1784,0,8
1777451123.911031,1855,0,8
1777451123.916787,2175,0,8
1777451123.9196491,2331,0,8
1777451123.921421,2200,0,8
1777451123.925409,1886,0,8
1777451123.928385,1746,0,8
1777451123.930725,2055,0,8
1777451123.9321358,2236,0,8
1777451123.9350579,2309,0,8
1777451123.939496,2092,0,8
1777451123.941775,1750,0,8
1777451123.945487,1859,0,8
1777451123.947393,2179,0,8
1777451123.9503071,2287,0,8
1777451123.953351,2218,0,8
1777451123.9560618,1932,0,8
1777451123.959041,1749,0,8
1777451123.962105,2005,0,8
1777451123.967896,2276,0,8
1777451123.968399,2292,0,8
1777451123.971848,2119,0,8
1777451123.975883,1775,0,8
1777451123.979077,1795,0,8
1777451123.981518,2173,0,8
1777451123.983063,2314,0,8
1777451123.990487,2248,0,8
1777451123.991094,1985,0,8
1777451123.99378,1747,0,8
1777451123.9964979,1926,0,8
1777451123.998152,2206,0,8
1777451124.003066,2293,0,8
1777451124.0055628,2169,0,8
1777451124.00705,1779,0,8
1777451124.01005,1770,0,8
1777451124.013888,2126,0,8
1777451124.0210712,2292,0,8
1777451124.021991,2248,0,8
1777451124.02401,2024,0,8
1777451124.0266938,1753,0,8
1777451124.028563,1908,0,8
1777451124.033275,2191,0,8
1777451124.035392,2338,0,8
1777451124.037034,2210,0,8
1777451124.040056,1853,0,8
1777451124.045704,1764,0,8
1777451124.0463822,2075,0,8
1777451124.050248,2303,0,8
1777451124.052624,2298,0,8
1777451124.0571609,2073,0,8
1777451124.059579,1743,0,8
1777451124.061056,1854,0,8
1777451124.0640872,2167,0,8
1777451124.067777,2311,0,8
1777451124.0747871,2219,0,8
1777451124.075299,1891,0,8
1777451124.077867,1713,0,8
1777451124.0795789,2044,0,8
1777451124.0838661,2266,0,8
1777451124.086821,2267,0,8
1777451124.0892491,2099,0,8
1777451124.091043,1768,0,8
1777451124.098662,1803,0,8
1777451124.098834,2178,0,8
1777451124.1010718,2336,0,8
1777451124.1032069,2237,0,8
1777451124.110236,1947,0,8
1777451124.110433,1723,0,8
1777451124.113045,1974,0,8
1777451124.115031,2238,0,8
1777451124.1180391,2312,0,8
1777451124.121067,2137,0,8
1777451124.124089,1785,0,8
1777451124.128709,1785,0,8
1777451124.1316512,2109,0,8
1777451124.133514,2305,0,8
1777451124.140981,2275,0,8
1777451124.141264,1980,0,8
1777451124.143593,1735,0,8
1777451124.145062,1916,0,8
1777451124.152081,2193,0,8
1777451124.15294,2360,0,8
1777451124.155067,2170,0,8
1777451124.158178,1789,0,8
1777451124.160649,1770,0,8
1777451124.163612,2140,0,8
1777451124.166593,2281,0,8
1777451124.169157,2259,0,8
1777451124.1720178,1984,0,8
1777451124.175051,1697,0,8
1777451124.181659,1941,0,8
1777451124.1839821,2256,0,8
1777451124.184118,2337,0,8
1777451124.187686,2156,0,8
1777451124.193017,1843,0,8
1777451124.1933591,1762,0,8
1777451124.196275,2106,0,8
1777451124.199053,2255,0,8
1777451124.204324,2227,0,8
1777451124.205832,2068,0,8
1777451124.208788,1780,0,8
1777451124.212472,1871,0,8
1777451124.215699,2157,0,8
1777451124.218076,2344,0,8
1777451124.220649,2260,0,8
1777451124.223222,1947,0,8
1777451124.226064,1723,0,8
1777451124.233414,2009,0,8
1777451124.23356,2202,0,8
1777451124.2362082,2263,0,8
1777451124.238326,2090,0,8
1777451124.2417622,1752,0,8
1777451124.244747,1833,0,8
1777451124.247066,2153,0,8
1777451124.2500281,2303,0,8
1777451124.2553012,2216,0,8
1777451124.2572212,1913,0,8
1777451124.2606342,1712,0,8
1777451124.263041,1967,0,8
1777451124.267499,2223,0,8
1777451124.269544,2331,0,8
1777451124.271062,2140,0,8
1777451124.2740328,1758,0,8
1777451124.27703,1789,0,8
1777451124.2800581,2141,0,8
1777451124.285322,2290,0,8
1777451124.2880309,2208,0,8
1777451124.289943,1965,0,8
1777451124.2935581,1735,0,8
1777451124.296376,1932,0,8
1777451124.29876,2209,0,8
1777451124.301285,2291,0,8
1777451124.308705,2174,0,8
1777451124.30917,1793,0,8
1777451124.31053,1788,0,8
1777451124.3143291,2133,0,8
1777451124.316727,2247,0,8
1777451124.320189,2229,0,8
1777451124.323045,1985,0,8
1777451124.325655,1700,0,8
1777451124.328299,1915,0,8
1777451124.3310552,2189,0,8
1777451124.33866,2304,0,8
1777451124.339267,2210,0,8
1777451124.3442502,1867,0,8
1777451124.345475,1791,0,8
1777451124.346036,2117,0,8
1777451124.3523068,2290,0,8
1777451124.3527942,2264,0,8
1777451124.355364,2077,0,8
1777451124.35805,1737,0,8
1777451124.364803,1805,0,8
1777451124.3649879,2132,0,8
1777451124.368324,2299,0,8
1777451124.371437,2237,0,8
1777451124.3749068,1869,0,8
1777451124.378141,1742,0,8
1777451124.3807201,1987,0,8
1777451124.38208,2245,0,8
1777451124.385033,2354,0,8
1777451124.388033,2170,0,8
1777451124.391051,1774,0,8
1777451124.39687,1796,0,8
1777451124.397951,2137,0,8
1777451124.40173,2277,0,8
1777451124.404442,2191,0,8
1777451124.406654,1862,0,8
1777451124.409834,1808,0,8
1777451124.4124439,2003,0,8
1777451124.415054,2204,0,8
1777451124.421124,2290,0,8
1777451124.4215748,2107,0,8
1777451124.425799,1707,0,8
1777451124.42754,1800,0,8
1777451124.43246,2159,0,8
1777451124.434366,2335,0,8
1777451124.436029,2195,0,8
1777451124.439021,1962,0,8
1777451124.442071,1601,0,8
1777451124.44952,1865,0,8
1777451124.451605,2335,0,8
1777451124.4518452,2407,0,8
1777451124.454922,2183,0,8
1777451124.457183,1750,0,8
1777451124.460107,1710,0,8
1777451124.463093,2145,0,8
1777451124.466023,2269,0,8
1777451124.471024,2193,0,8
1777451124.472908,1998,0,8
1777451124.475949,1716,0,8
1777451124.478546,1925,0,8
1777451124.481337,2210,0,8
1777451124.484331,2287,0,8
1777451124.487068,2149,0,8
1777451124.490016,1831,0,8
1777451124.493056,1713,0,8
1777451124.498453,2008,0,8
1777451124.499636,2233,0,8
1777451124.502866,2217,0,8
1777451124.506243,2030,0,8
1777451124.5090072,1754,0,8
1777451124.51124,1922,0,8
1777451124.5140631,2164,0,8
1777451124.520148,2290,0,8
1777451124.5205498,2222,0,8
1777451124.54083,1881,0,8
1777451124.540873,1726,0,8
1777451124.5409029,1988,0,8
1777451124.5413089,2166,0,8
1777451124.541363,2217,0,8
1777451124.541394,2066,0,8
1777451124.541462,1729,0,8
1777451124.563421,1810,0,8
1777451124.563474,2153,0,8
1777451124.5635042,2239,0,8
1777451124.564883,2180,0,8
1777451124.564925,1941,0,8
1777451124.565004,1677,0,8
1777451124.565033,1968,0,8
1777451124.565311,2206,0,8
1777451124.574213,2273,0,8
1777451124.574353,2139,0,8
1777451124.574962,1768,0,8
1777451124.587069,1768,0,8
1777451124.5871518,2105,0,8
1777451124.587192,2272,0,8
1777451124.587223,2215,0,8
1777451124.589047,1981,0,8
1777451124.592015,1726,0,8
1777451124.595038,1901,0,8
1777451124.6017148,2172,0,8
1777451124.602622,2306,0,8
1777451124.60498,2162,0,8
1777451124.607094,1844,0,8
1777451124.610743,1764,0,8
1777451124.6137202,2106,0,8
1777451124.61604,2286,0,8
1777451124.6190422,2228,0,8
1777451124.62391,2025,0,8
1777451124.6264188,1764,0,8
1777451124.6283321,1907,0,8
1777451124.631701,2165,0,8
1777451124.634541,2288,0,8
1777451124.6374972,2187,0,8
1777451124.640053,1841,0,8
1777451124.64304,1766,0,8
1777451124.646162,2063,0,8
1777451124.6501818,2271,0,8
1777451124.652651,2287,0,8
1777451124.6561248,2039,0,8
1777451124.660508,1735,0,8
1777451124.662409,1848,0,8
1777451124.6640441,2161,0,8
1777451124.6670542,2341,0,8
1777451124.670645,2234,0,8
1777451124.673295,1880,0,8
1777451124.676516,1716,0,8
1777451124.680898,2032,0,8
1777451124.682666,2268,0,8
1777451124.6852422,2276,0,8
1777451124.688031,2107,0,8
1777451124.6910532,1757,0,8
1777451124.696854,1818,0,8
1777451124.6975691,2156,0,8
1777451124.701207,2295,0,8
1777451124.703155,2223,0,8
1777451124.706928,1921,0,8
1777451124.709125,1740,0,8
1777451124.712048,1973,0,8
1777451124.7150238,2194,0,8
1777451124.7180521,2281,0,8
1777451124.722264,2131,0,8
1777451124.724638,1780,0,8
1777451124.72821,1821,0,8
1777451124.732057,2129,0,8
1777451124.734237,2285,0,8
1777451124.7360508,2229,0,8
1777451124.7390301,1965,0,8
1777451124.742028,1735,0,8
1777451124.747375,1909,0,8
1777451124.7494981,2161,0,8
1777451124.751277,2327,0,8
1777451124.756479,2208,0,8
1777451124.7582378,1785,0,8
1777451124.760053,1744,0,8
1777451124.76302,2131,0,8
1777451124.766051,2286,0,8
1777451124.771116,2276,0,8
1777451124.7732558,2023,0,8
1777451124.775713,1726,0,8
1777451124.7781591,1890,0,8
1777451124.782065,2206,0,8
1777451124.7846248,2321,0,8
1777451124.78719,2196,0,8
1777451124.790019,1836,0,8
1777451124.795446,1745,0,8
1777451124.796223,2064,0,8
1777451124.7996092,2300,0,8
1777451124.802608,2259,0,8
1777451124.8050728,2036,0,8
1777451124.8080268,1756,0,8
1777451124.811052,1900,0,8
1777451124.814017,2189,0,8
1777451124.819783,2305,0,8
1777451124.820191,2218,0,8
1777451124.823644,1930,0,8
1777451124.828896,1739,0,8
1777451124.829109,1943,0,8
1777451124.832051,2208,0,8
1777451124.8350232,2314,0,8
1777451124.838055,2130,0,8
1777451124.844682,1771,0,8
1777451124.844755,1825,0,8
1777451124.847625,2165,0,8
1777451124.850614,2338,0,8
1777451124.85309,2236,0,8
1777451124.856024,1970,0,8
1777451124.859047,1773,0,8
1777451124.862025,1926,0,8
1777451124.867954,2192,0,8
1777451124.868059,2303,0,8
1777451124.8717382,2170,0,8
1777451124.876638,1836,0,8
1777451124.876974,1823,0,8
1777451124.879929,2168,0,8
1777451124.8828979,2319,0,8
1777451124.88593,2283,0,8
1777451124.89257,2021,0,8
1777451124.892664,1740,0,8
1777451124.895749,1893,0,8
1777451124.898782,2171,0,8
1777451124.9010382,2324,0,8
1777451124.903934,2165,0,8
1777451124.9069371,1815,0,8
1777451124.9099278,1725,0,8
1777451124.914701,2097,0,8
1777451124.916805,2291,0,8
1777451124.919961,2294,0,8
1777451124.923423,2050,0,8
1777451124.925217,1744,0,8
1777451124.927892,1882,0,8
1777451124.9315462,2175,0,8
1777451124.937564,2309,0,8
1777451124.938248,2203,0,8
1777451124.941492,1864,0,8
1777451124.943233,1743,0,8
1777451124.946593,2038,0,8
1777451124.948884,2299,0,8
1777451124.951989,2260,0,8
1777451124.954893,2028,0,8
1777451124.9612522,1751,0,8
1777451124.961959,1847,0,8
1777451124.965281,2158,0,8
1777451124.966965,2310,0,8
1777451124.972713,2203,0,8
1777451124.973234,1908,0,8
1777451124.975928,1700,0,8
1777451124.9788811,2020,0,8
1777451124.985475,2269,0,8
1777451124.9858408,2271,0,8
1777451124.989136,2073,0,8
1777451124.991162,1769,0,8
1777451124.994563,1823,0,8
1777451124.997151,2144,0,8
1777451124.9999402,2295,0,8
1777451125.002903,2244,0,8
1777451125.0084858,1963,0,8
1777451125.010449,1755,0,8
1777451125.01214,2017,0,8
1777451125.017076,2174,0,8
1777451125.019001,2301,0,8
1777451125.0215511,2182,0,8
1777451125.0241091,1802,0,8
1777451125.0269282,1759,0,8
1777451125.031308,2122,0,8
1777451125.0334,2292,0,8
1777451125.036267,2265,0,8
1777451125.0400908,2008,0,8
1777451125.04207,1740,0,8
1777451125.044927,1931,0,8
1777451125.047901,2187,0,8
1777451125.053997,2300,0,8
1777451125.0541,2164,0,8
1777451125.0577931,1830,0,8
1777451125.060607,1776,0,8
1777451125.062921,2091,0,8
1777451125.06589,2301,0,8
1777451125.068937,2262,0,8
1777451125.071899,2027,0,8
1777451125.076694,1724,0,8
1777451125.078996,1857,0,8
1777451125.081314,2154,0,8
1777451125.085751,2353,0,8
1777451125.08739,2185,0,8
1777451125.089926,1870,0,8
1777451125.0928938,1740,0,8
1777451125.095905,2058,0,8
1777451125.100096,2279,0,8
1777451125.1019452,2286,0,8
1777451125.106334,2093,0,8
1777451125.1087658,1748,0,8
1777451125.1115541,1845,0,8
1777451125.114105,2146,0,8
1777451125.116914,2252,0,8
1777451125.119935,2204,0,8
1777451125.123639,1896,0,8
1777451125.12603,1734,0,8
1777451125.129354,2043,0,8
1777451125.13274,2276,0,8
1777451125.135496,2301,0,8
1777451125.138052,2131,0,8
1777451125.1408849,1773,0,8
1777451125.146523,1822,0,8
1777451125.1469078,2152,0,8
1777451125.1502771,2315,0,8
1777451125.1556191,2245,0,8
1777451125.155921,1941,0,8
1777451125.1589172,1723,0,8
1777451125.161916,1943,0,8
1777451125.164924,2255,0,8
1777451125.169218,2321,0,8
1777451125.1716301,2175,0,8
1777451125.174557,1790,0,8
1777451125.178677,1776,0,8
1777451125.180564,2115,0,8
1777451125.1831229,2289,0,8
1777451125.185913,2269,0,8
1777451125.18893,1976,0,8
1777451125.1925418,1727,0,8
1777451125.194954,1952,0,8
1777451125.1981812,2206,0,8
1777451125.201558,2344,0,8
1777451125.204176,2197,0,8
1777451125.206896,1820,0,8
1777451125.209884,1779,0,8
1777451125.215727,2102,0,8
1777451125.2161732,2291,0,8
1777451125.220611,2270,0,8
1777451125.225279,2022,0,8
1777451125.225406,1745,0,8
1777451125.22814,1913,0,8
1777451125.230925,2205,0,8
1777451125.233952,2315,0,8
1777451125.239532,2218,0,8
1777451125.2399302,1864,0,8
1777451125.243428,1800,0,8
1777451125.246359,2101,0,8
1777451125.2498748,2291,0,8
1777451125.2524312,2291,0,8
1777451125.254986,2119,0,8
1777451125.257893,1718,0,8
1777451125.262822,1838,0,8
1777451125.26461,2242,0,8
1777451125.268712,2332,0,8
1777451125.270921,2267,0,8
1777451125.2738361,1933,0,8
1777451125.2763882,1746,0,8
1777451125.2789361,2047,0,8
1777451125.2840152,2291,0,8
1777451125.2862358,2342,0,8
1777451125.288331,2125,0,8
1777451125.2928362,1774,0,8
1777451125.294662,1829,0,8
1777451125.297208,2138,0,8
1777451125.299925,2307,0,8
1777451125.302909,2233,0,8
1777451125.306669,1975,0,8
1777451125.310592,1776,0,8
1777451125.312578,2013,0,8
1777451125.315916,2283,0,8
1777451125.317879,2309,0,8
1777451125.320884,2202,0,8
1777451125.324445,1851,0,8
1777451125.3294358,1835,0,8
1777451125.330359,2197,0,8
1777451125.3332748,2393,0,8
1777451125.337852,2289,0,8
1777451125.339674,2026,0,8
1777451125.342431,1765,0,8
1777451125.344984,1951,0,8
1777451125.347915,2203,0,8
1777451125.352226,2340,0,8
1777451125.3548439,2228,0,8
1777451125.3569212,1828,0,8
1777451125.360179,1770,0,8
1777451125.362954,2083,0,8
1777451125.365886,2329,0,8
1777451125.368913,2320,0,8
1777451125.375196,2028,0,8
1777451125.375296,1754,0,8
1777451125.378525,1908,0,8
1777451125.381697,2190,0,8
1777451125.384398,2312,0,8
1777451125.387006,2219,0,8
1777451125.389906,1878,0,8
1777451125.3950982,1736,0,8
1777451125.397008,2066,0,8
1777451125.399103,2292,0,8
1777451125.40348,2295,0,8
1777451125.40534,2098,0,8
1777451125.407925,1775,0,8
1777451125.41091,1856,0,8
1777451125.416266,2132,0,8
1777451125.418009,2294,0,8
1777451125.420865,2247,0,8
1777451125.4253912,1934,0,8
1777451125.426978,1709,0,8
1777451125.429539,1986,0,8
1777451125.4320939,2158,0,8
1777451125.43489,2293,0,8
1777451125.439611,2137,0,8
1777451125.442094,1727,0,8
1777451125.44519,1784,0,8
1777451125.447501,2133,0,8
1777451125.45019,2214,0,8
1777451125.452918,2164,0,8
1777451125.455939,1943,0,8
1777451125.461092,1642,0,8
1777451125.4643269,1883,0,8
1777451125.465048,2225,0,8
1777451125.468058,2244,0,8
1777451125.472118,2088,0,8
1777451125.473897,1762,0,8
1777451125.4768882,1762,0,8
1777451125.479896,2070,0,8
1777451125.483974,2265,0,8
1777451125.486198,2238,0,8
1777451125.489009,1920,0,8
1777451125.492633,1687,0,8
1777451125.494774,1878,0,8
1777451125.497789,2137,0,8
1777451125.5007958,2246,0,8
1777451125.5059159,2188,0,8
1777451125.507873,1786,0,8
1777451125.511225,1746,0,8
1777451125.514633,2052,0,8
1777451125.51647,2249,0,8
1777451125.519018,2248,0,8
1777451125.5217652,2024,0,8
1777451125.5285702,1676,0,8
1777451125.528926,1840,0,8
1777451125.530925,2126,0,8
1777451125.5340438,2250,0,8
1777451125.539503,2120,0,8
1777451125.54191,1833,0,8
1777451125.543276,1719,0,8
1777451125.5462668,2011,0,8
1777451125.551564,2215,0,8
1777451125.5526102,2249,0,8
1777451125.555968,2065,0,8
1777451125.560755,1705,0,8
1777451125.5609221,1809,0,8
1777451125.563786,2112,0,8
1777451125.567567,2266,0,8
1777451125.5701618,2167,0,8
1777451125.5773509,1926,0,8
1777451125.578388,1712,0,8
1777451125.579542,2001,0,8
1777451125.5829551,2208,0,8
1777451125.586431,2283,0,8
1777451125.588323,2101,0,8
1777451125.590882,1756,0,8
1777451125.5938718,1776,0,8
1777451125.596768,2080,0,8
1777451125.599896,2298,0,8
1777451125.60895,2253,0,8
1777451125.610951,1967,0,8
1777451125.6113899,1730,0,8
1777451125.6121721,1951,0,8
1777451125.616755,2212,0,8
1777451125.618638,2292,0,8
1777451125.621202,2146,0,8
1777451125.6261492,1792,0,8
1777451125.626851,1730,0,8
1777451125.630162,2102,0,8
1777451125.635041,2308,0,8
1777451125.636831,2251,0,8
1777451125.639392,2016,0,8
1777451125.6419652,1728,0,8
1777451125.6447701,1909,0,8
1777451125.647935,2177,0,8
1777451125.654906,2320,0,8
1777451125.654995,2203,0,8
1777451125.656836,1838,0,8
1777451125.661939,1743,0,8
1777451125.66374,2087,0,8
1777451125.666305,2301,0,8
1777451125.668857,2296,0,8
1777451125.6717691,2073,0,8
1777451125.6751108,1737,0,8
1777451125.679303,1832,0,8
1777451125.6812842,2195,0,8
1777451125.684271,2321,0,8
1777451125.688035,2211,0,8
1777451125.689923,1863,0,8
1777451125.69278,1765,0,8
