timestamp,ch1,ch2,label
1777450734.312896,2146,0,S_1
1777450734.3179038,2197,0,S_1
1777450734.323972,2143,0,S_1
1777450734.326134,2003,0,S_1
1777450734.326431,1923,0,S_1
1777450734.328406,2049,0,S_1
1777450734.3311281,2183,0,S_1
1777450734.3338912,2161,0,S_1
1777450734.33695,2064,0,S_1
1777450734.341711,1918,0,S_1
1777450734.3449621,1988,0,S_1
1777450734.347321,2085,0,S_1
1777450734.349639,2143,0,S_1
1777450734.352234,2110,0,S_1
1777450734.354906,1979,0,S_1
1777450734.3619368,1910,0,S_1
1777450734.362985,2024,0,S_1
1777450734.365828,2115,0,S_1
1777450734.3690398,2141,0,S_1
1777450734.370783,2067,0,S_1
1777450734.3733382,1920,0,S_1
1777450734.375904,1913,0,S_1
1777450734.378895,2073,0,S_1
1777450734.3827782,2131,0,S_1
1777450734.385868,2104,0,S_1
1777450734.3889768,1983,0,S_1
1777450734.390941,1897,0,S_1
1777450734.393905,1967,0,S_1
1777450734.396949,2100,0,S_1
1777450734.4031959,2129,0,S_1
1777450734.4039109,2066,0,S_1
1777450734.4067159,1931,0,S_1
1777450734.410076,1923,0,S_1
1777450734.4118762,2072,0,S_1
1777450734.41488,2132,0,S_1
1777450734.4179049,2108,0,S_1
1777450734.423452,2006,0,S_1
1777450734.4244359,1898,0,S_1
1777450734.427163,1969,0,S_1
1777450734.430367,2104,0,S_1
1777450734.4331892,2160,0,S_1
1777450734.435951,2088,0,S_1
1777450734.438904,1950,0,S_1
1777450734.443532,1899,0,S_1
1777450734.445602,2050,0,S_1
1777450734.448564,2142,0,S_1
1777450734.451989,2132,0,S_1
1777450734.454565,2023,0,S_1
1777450734.456984,1896,0,S_1
1777450734.4598742,1937,0,S_1
1777450734.464082,2088,0,S_1
1777450734.466124,2159,0,S_1
1777450734.469097,2103,0,S_1
1777450734.4725409,1965,0,S_1
1777450734.475091,1910,0,S_1
1777450734.47787,2011,0,S_1
1777450734.4841878,2162,0,S_1
1777450734.484297,2134,0,S_1
1777450734.48769,2050,0,S_1
1777450734.491084,1897,0,S_1
1777450734.492942,1931,0,S_1
1777450734.495788,2098,0,S_1
1777450734.49878,2171,0,S_1
1777450734.504707,2132,0,S_1
1777450734.505078,1991,0,S_1
1777450734.507925,1894,0,S_1
1777450734.511223,2006,0,S_1
1777450734.513994,2152,0,S_1
1777450734.516751,2174,0,S_1
1777450734.5197902,2063,0,S_1
1777450734.5244648,1905,0,S_1
1777450734.5267258,1938,0,S_1
1777450734.5295591,2098,0,S_1
1777450734.532829,2189,0,S_1
1777450734.5354052,2147,0,S_1
1777450734.5379682,2004,0,S_1
1777450734.54075,1895,0,S_1
1777450734.5468428,1999,0,S_1
1777450734.547022,2149,0,S_1
1777450734.55098,2174,0,S_1
1777450734.5535228,2107,0,S_1
1777450734.556067,1954,0,S_1
1777450734.558778,1901,0,S_1
1777450734.5654678,2075,0,S_1
1777450734.5658329,2193,0,S_1
1777450734.5692108,2149,0,S_1
1777450734.571427,2043,0,S_1
1777450734.573914,1907,0,S_1
1777450734.576755,1984,0,S_1
1777450734.579766,2137,0,S_1
1777450734.585124,2171,0,S_1
1777450734.587146,2092,0,S_1
1777450734.58885,1969,0,S_1
1777450734.593639,1932,0,S_1
1777450734.594928,2067,0,S_1
1777450734.597771,2139,0,S_1
1777450734.600767,2135,0,S_1
1777450734.6057322,2041,0,S_1
1777450734.607548,1920,0,S_1
1777450734.61159,1965,0,S_1
1777450734.61411,2107,0,S_1
1777450734.615781,2180,0,S_1
1777450734.618749,2104,0,S_1
1777450734.6217852,1990,0,S_1
1777450734.626164,1916,0,S_1
1777450734.627855,2016,0,S_1
1777450734.631927,2169,0,S_1
1777450734.634507,2145,0,S_1
1777450734.637048,2057,0,S_1
1777450734.639791,1916,0,S_1
1777450734.646497,1928,0,S_1
1777450734.647181,2098,0,S_1
1777450734.64959,2163,0,S_1
1777450734.6530938,2109,0,S_1
1777450734.6547682,1995,0,S_1
1777450734.65777,1930,0,S_1
1777450734.660753,2034,0,S_1
1777450734.666133,2149,0,S_1
1777450734.667131,2181,0,S_1
1777450734.669937,2104,0,S_1
1777450734.673416,1884,0,S_1
1777450734.676215,1916,0,S_1
1777450734.678772,2091,0,S_1
1777450734.681779,2188,0,S_1
1777450734.6865,2121,0,S_1
1777450734.688462,2017,0,S_1
1777450734.691357,1876,0,S_1
1777450734.694997,1961,0,S_1
1777450734.696778,2135,0,S_1
1777450734.69978,2202,0,S_1
1777450734.702739,2097,0,S_1
1777450734.707092,1936,0,S_1
1777450734.709743,1871,0,S_1
1777450734.711821,2062,0,S_1
1777450734.715033,2194,0,S_1
1777450734.717819,2166,0,S_1
1777450734.720754,2046,0,S_1
1777450734.726683,1862,0,S_1
1777450734.72732,1932,0,S_1
1777450734.730386,2118,0,S_1
1777450734.732803,2182,0,S_1
1777450734.736228,2103,0,S_1
1777450734.738792,1943,0,S_1
1777450734.741782,1873,0,S_1
1777450734.746735,2016,0,S_1
1777450734.7490602,2175,0,S_1
1777450734.751152,2196,0,S_1
1777450734.7887402,2071,0,S_1
1777450734.7896068,1872,0,S_1
1777450734.789741,1909,0,S_1
1777450734.789838,2105,0,S_1
1777450734.7898781,2209,0,S_1
1777450734.789907,2143,0,S_1
1777450734.7899299,1985,0,S_1
1777450734.789997,1824,0,S_1
1777450734.790058,2015,0,S_1
1777450734.7900958,2179,0,S_1
1777450734.7901561,2195,0,S_1
1777450734.7902179,2106,0,S_1
1777450734.7903202,1900,0,S_1
1777450734.792901,1898,0,S_1
1777450734.795765,2116,0,S_1
1777450734.7987578,2204,0,S_1
1777450734.8019588,2185,0,S_1
1777450734.804786,2022,0,S_1
1777450734.808079,1853,0,S_1
1777450734.813635,1953,0,S_1
1777450734.8143349,2143,0,S_1
1777450734.8174121,2199,0,S_1
1777450734.821253,2102,0,S_1
1777450734.8231559,1899,0,S_1
1777450734.8258371,1857,0,S_1
1777450734.8287601,2066,0,S_1
1777450734.835864,2178,0,S_1
1777450734.836241,2185,0,S_1
1777450734.83785,2001,0,S_1
1777450734.840897,1849,0,S_1
1777450734.8445902,1920,0,S_1
1777450734.8471448,2122,0,S_1
1777450734.8498318,2210,0,S_1
1777450734.852779,2118,0,S_1
1777450734.856808,1928,0,S_1
1777450734.8590531,1855,0,S_1
1777450734.8633778,2057,0,S_1
1777450734.865901,2177,0,S_1
1777450734.867784,2176,0,S_1
1777450734.870755,2033,0,S_1
1777450734.873756,1850,0,S_1
1777450734.878582,1891,0,S_1
1777450734.880088,2120,0,S_1
1777450734.8842392,2173,0,S_1
1777450734.886751,2079,0,S_1
1777450734.889309,1932,0,S_1
1777450734.891861,1847,0,S_1
1777450734.898253,1996,0,S_1
1777450734.898672,2199,0,S_1
1777450734.9021802,2182,0,S_1
1777450734.904576,2054,0,S_1
1777450734.907242,1891,0,S_1
1777450734.9097972,1953,0,S_1
1777450734.912776,2088,0,S_1
1777450734.9189372,2200,0,S_1
1777450734.919282,2158,0,S_1
1777450734.922724,1976,0,S_1
1777450734.9259992,1816,0,S_1
1777450734.927785,1948,0,S_1
1777450734.930733,2189,0,S_1
1777450734.933737,2197,0,S_1
1777450734.94081,2044,0,S_1
1777450734.942335,1853,0,S_1
1777450734.944028,1890,0,S_1
1777450734.9474099,2116,0,S_1
1777450734.948838,2197,0,S_1
1777450734.951778,2101,0,S_1
1777450734.9547698,2033,0,S_1
1777450734.95776,1852,0,S_1
1777450734.965067,1954,0,S_1
1777450734.966902,2176,0,S_1
1777450734.9670248,2229,0,S_1
1777450734.970243,2082,0,S_1
1777450734.9731379,1915,0,S_1
1777450734.975839,1863,0,S_1
1777450734.978743,2040,0,S_1
1777450734.9818199,2167,0,S_1
1777450734.9878771,2170,0,S_1
1777450734.989103,2015,0,S_1
1777450734.991651,1846,0,S_1
1777450734.99405,1884,0,S_1
1777450734.996871,2159,0,S_1
1777450734.99975,2243,0,S_1
1777450735.002778,2120,0,S_1
1777450735.008814,1955,0,S_1
1777450735.01108,1875,0,S_1
1777450735.013749,2055,0,S_1
1777450735.0162518,2195,0,S_1
1777450735.0194209,2112,0,S_1
1777450735.020807,2017,0,S_1
1777450735.023764,1876,0,S_1
1777450735.0267498,1979,0,S_1
1777450735.036191,2095,0,S_1
1777450735.042507,2093,0,S_1
1777450735.042565,2154,0,S_1
1777450735.042593,1831,0,S_1
1777450735.0426161,1869,0,S_1
1777450735.045686,2018,0,S_1
1777450735.048342,2227,0,S_1
1777450735.0511549,2212,0,S_1
1777450735.0592608,2023,0,S_1
1777450735.061257,1931,0,S_1
1777450735.0616992,2048,0,S_1
1777450735.0661771,2155,0,S_1
1777450735.066567,2082,0,S_1
1777450735.0693948,2157,0,S_1
1777450735.072075,1882,0,S_1
1777450735.074761,1966,0,S_1
1777450735.080943,2046,0,S_1
1777450735.081433,2178,0,S_1
1777450735.083818,2167,0,S_1
1777450735.087017,2231,0,S_1
1777450735.089906,1908,0,S_1
1777450735.092742,1932,0,S_1
1777450735.0957708,2205,0,S_1
1777450735.0987442,2208,0,S_1
1777450735.104752,2141,0,S_1
1777450735.1055171,1950,0,S_1
1777450735.108635,1828,0,S_1
1777450735.112004,1986,0,S_1
1777450735.115155,2092,0,S_1
1777450735.116758,2291,0,S_1
1777450735.1197429,2176,0,S_1
1777450735.1227598,1963,0,S_1
1777450735.1314518,1839,0,S_1
1777450735.1335602,2055,0,S_1
1777450735.1343858,2220,0,S_1
1777450735.134783,2229,0,S_1
1777450735.1384609,2036,0,S_1
1777450735.141252,1831,0,S_1
1777450735.143809,1959,0,S_1
1777450735.146744,2144,0,S_1
1777450735.153634,2229,0,S_1
1777450735.153766,2182,0,S_1
1777450735.1561651,1937,0,S_1
1777450735.159565,1847,0,S_1
1777450735.162341,2108,0,S_1
1777450735.165183,2244,0,S_1
1777450735.167792,2206,0,S_1
1777450735.170741,1987,0,S_1
1777450735.177193,1863,0,S_1
1777450735.177637,1920,0,S_1
1777450735.1801898,2073,0,S_1
1777450735.183411,2155,0,S_1
1777450735.18642,2251,0,S_1
1777450735.1892889,1988,0,S_1
1777450735.191843,1846,0,S_1
1777450735.19474,2028,0,S_1
1777450735.201903,2191,0,S_1
1777450735.2030652,2217,0,S_1
1777450735.204723,2099,0,S_1
1777450735.2081962,1857,0,S_1
1777450735.210907,1886,0,S_1
1777450735.2131882,2131,0,S_1
1777450735.2157829,2271,0,S_1
1777450735.2187362,2169,0,S_1
1777450735.221774,1965,0,S_1
1777450735.225985,1816,0,S_1
1777450735.2285938,1979,0,S_1
1777450735.2313778,2154,0,S_1
1777450735.234771,2126,0,S_1
1777450735.236824,2042,0,S_1
1777450735.239649,1868,0,S_1
1777450735.242652,1856,0,S_1
1777450735.2456162,2086,0,S_1
1777450735.249838,2150,0,S_1
1777450735.2544,2194,0,S_1
1777450735.255168,2023,0,S_1
1777450735.2588,1870,0,S_1
1777450735.2608378,1961,0,S_1
1777450735.263669,2112,0,S_1
1777450735.266622,2152,0,S_1
1777450735.26969,2100,0,S_1
1777450735.2745442,1947,0,S_1
1777450735.276047,1816,0,S_1
1777450735.279996,2079,0,S_1
1777450735.285015,2191,0,S_1
1777450735.285391,2187,0,S_1
1777450735.2876449,2015,0,S_1
1777450735.290654,1889,0,S_1
1777450735.298353,1967,0,S_1
1777450735.2985659,2130,0,S_1
1777450735.3005881,2163,0,S_1
1777450735.305749,2117,0,S_1
1777450735.3060238,1956,0,S_1
1777450735.309115,1847,0,S_1
1777450735.311739,2046,0,S_1
1777450735.3146272,2191,0,S_1
1777450735.322848,2232,0,S_1
1777450735.325408,2025,0,S_1
1777450735.3257759,1932,0,S_1
1777450735.328633,1921,0,S_1
1777450735.333312,2135,0,S_1
1777450735.333708,2185,0,S_1
1777450735.3360279,2131,0,S_1
1777450735.338635,1929,0,S_1
1777450735.3450618,1866,0,S_1
1777450735.347575,2034,0,S_1
1777450735.347734,2163,0,S_1
1777450735.351555,2287,0,S_1
1777450735.355176,2088,0,S_1
1777450735.357045,1880,0,S_1
1777450735.359767,1963,0,S_1
1777450735.362675,2133,0,S_1
1777450735.365624,2199,0,S_1
1777450735.37119,2150,0,S_1
1777450735.372447,1951,0,S_1
1777450735.377103,1857,0,S_1
1777450735.378289,1985,0,S_1
1777450735.3817759,2205,0,S_1
1777450735.3840158,2251,0,S_1
1777450735.386633,2070,0,S_1
1777450735.392566,1882,0,S_1
1777450735.393781,1898,0,S_1
1777450735.396801,2104,0,S_1
1777450735.398988,2250,0,S_1
1777450735.402443,2182,0,S_1
1777450735.4046578,2047,0,S_1
1777450735.407638,1849,0,S_1
1777450735.410624,1949,0,S_1
1777450735.413642,2163,0,S_1
1777450735.421016,2231,0,S_1
1777450735.421321,2123,0,S_1
1777450735.423178,1902,0,S_1
1777450735.4284852,1853,0,S_1
1777450735.428869,2081,0,S_1
1777450735.431642,2179,0,S_1
1777450735.434638,2179,0,S_1
1777450735.4417222,2029,0,S_1
1777450735.443739,1865,0,S_1
1777450735.4449742,1930,0,S_1
1777450735.447673,2160,0,S_1
1777450735.449642,2201,0,S_1
1777450735.4532669,2104,0,S_1
1777450735.45583,1946,0,S_1
1777450735.458661,1877,0,S_1
1777450735.461642,2056,0,S_1
1777450735.4674501,2213,0,S_1
1777450735.472018,2181,0,S_1
1777450735.472932,2101,0,S_1
1777450735.475994,1861,0,S_1
1777450735.480064,1920,0,S_1
1777450735.480345,2142,0,S_1
1777450735.483028,2210,0,S_1
1777450735.488671,2173,0,S_1
1777450735.489939,1988,0,S_1
1777450735.4932852,1849,0,S_1
1777450735.496743,2017,0,S_1
1777450735.4992561,2179,0,S_1
1777450735.501359,2218,0,S_1
1777450735.5042272,2111,0,S_1
1777450735.507046,1885,0,S_1
1777450735.5097659,1924,0,S_1
1777450735.514858,2135,0,S_1
1777450735.517955,2228,0,S_1
1777450735.520708,2147,0,S_1
1777450735.522263,1980,0,S_1
1777450735.526392,1850,0,S_1
1777450735.529093,1989,0,S_1
1777450735.530632,2189,0,S_1
1777450735.5382888,2227,0,S_1
1777450735.5406249,2104,0,S_1
1777450735.540998,1892,0,S_1
1777450735.543521,1887,0,S_1
1777450735.546926,2096,0,S_1
1777450735.549056,2228,0,S_1
1777450735.552256,2179,0,S_1
1777450735.554969,2014,0,S_1
1777450735.557697,1884,0,S_1
1777450735.560639,1963,0,S_1
1777450735.567144,2172,0,S_1
1777450735.5703292,2218,0,S_1
1777450735.5708869,2121,0,S_1
1777450735.574974,1940,0,S_1
1777450735.577256,1877,0,S_1
1777450735.5798929,2057,0,S_1
1777450735.58163,2196,0,S_1
1777450735.5901031,2184,0,S_1
1777450735.597087,2038,0,S_1
1777450735.599236,1882,0,S_1
1777450735.6000059,1950,0,S_1
1777450735.600368,2156,0,S_1
1777450735.60252,2226,0,S_1
1777450735.602894,2150,0,S_1
1777450735.605632,1960,0,S_1
1777450735.608654,1849,0,S_1
1777450735.611626,2043,0,S_1
1777450735.61998,2192,0,S_1
1777450735.621558,2197,0,S_1
1777450735.621789,2044,0,S_1
1777450735.6242628,1866,0,S_1
1777450735.6273,1930,0,S_1
1777450735.630971,2128,0,S_1
1777450735.632621,2230,0,S_1
1777450735.635686,2152,0,S_1
1777450735.6400409,1951,0,S_1
1777450735.64224,1841,0,S_1
1777450735.6453602,2025,0,S_1
1777450735.649101,2176,0,S_1
1777450735.6511722,2207,0,S_1
1777450735.653755,2054,0,S_1
1777450735.656629,1872,0,S_1
1777450735.6596448,1914,0,S_1
1777450735.664544,2110,0,S_1
1777450735.667051,2233,0,S_1
1777450735.668848,2163,0,S_1
1777450735.671926,1994,0,S_1
1777450735.67586,1855,0,S_1
1777450735.6776488,1997,0,S_1
1777450735.680644,2151,0,S_1
1777450735.683651,2206,0,S_1
1777450735.68996,2098,0,S_1
1777450735.690416,1878,0,S_1
1777450735.694349,1872,0,S_1
1777450735.696359,2071,0,S_1
1777450735.6996648,2235,0,S_1
1777450735.7017028,2184,0,S_1
1777450735.704642,2020,0,S_1
1777450735.7076108,1825,0,S_1
1777450735.7106419,1936,0,S_1
1777450735.71473,2173,0,S_1
1777450735.718616,2204,0,S_1
1777450735.720117,2107,0,S_1
1777450735.724185,1916,0,S_1
1777450735.725843,1843,0,S_1
1777450735.728645,2071,0,S_1
1777450735.731617,2184,0,S_1
1777450735.734644,2158,0,S_1
1777450735.738783,2046,0,S_1
1777450735.7410219,1830,0,S_1
1777450735.7441862,1927,0,S_1
1777450735.7475991,2114,0,S_1
1777450735.7496479,2185,0,S_1
1777450735.752645,2131,0,S_1
1777450735.755646,1929,0,S_1
1777450735.761792,1834,0,S_1
1777450735.762432,2040,0,S_1
1777450735.7661738,2171,0,S_1
1777450735.767998,2181,0,S_1
1777450735.771158,2044,0,S_1
1777450735.7739751,1851,0,S_1
1777450735.77664,1878,0,S_1
1777450735.779646,2110,0,S_1
1777450735.786206,2210,0,S_1
1777450735.7870421,2146,0,S_1
1777450735.78987,1957,0,S_1
1777450735.7932239,1848,0,S_1
1777450735.79517,2009,0,S_1
1777450735.798003,2168,0,S_1
1777450735.8006458,2220,0,S_1
1777450735.803621,2088,0,S_1
1777450735.809789,1883,0,S_1
1777450735.8099048,1869,0,S_1
1777450735.813272,2086,0,S_1
1777450735.816535,2229,0,S_1
1777450735.8186848,2159,0,S_1
1777450735.82161,1981,0,S_1
1777450735.8246431,1821,0,S_1
1777450735.827641,1961,0,S_1
1777450735.834209,2170,0,S_1
1777450735.834968,2182,0,S_1
1777450735.8378072,2064,0,S_1
1777450735.840724,1887,0,S_1
1777450735.842837,1862,0,S_1
1777450735.845664,2064,0,S_1
1777450735.8486452,2185,0,S_1
1777450735.8516412,2155,0,S_1
1777450735.856896,1967,0,S_1
1777450735.858819,1841,0,S_1
1777450735.860835,1942,0,S_1
1777450735.8651452,2153,0,S_1
1777450735.8670561,2190,0,S_1
1777450735.86962,2116,0,S_1
1777450735.872633,1885,0,S_1
1777450735.875627,1832,0,S_1
1777450735.881896,2090,0,S_1
1777450735.881983,2196,0,S_1
1777450735.8870468,2190,0,S_1
1777450735.888719,2038,0,S_1
1777450735.890573,1828,0,S_1
1777450735.894043,1928,0,S_1
1777450735.896657,2137,0,S_1
1777450735.899498,2237,0,S_1
1777450735.91002,2122,0,S_1
1777450735.910131,1923,0,S_1
1777450735.9102452,1836,0,S_1
1777450735.9170501,2013,0,S_1
1777450735.9176068,2180,0,S_1
1777450735.9182458,2176,0,S_1
1777450735.9217558,2056,0,S_1
1777450735.923499,1878,0,S_1
1777450735.9315488,1875,0,S_1
1777450735.9316459,2127,0,S_1
1777450735.9364,2219,0,S_1
1777450735.936943,2114,0,S_1
1777450735.9404612,1957,0,S_1
1777450735.9429219,1824,0,S_1
1777450735.944544,1948,0,S_1
1777450735.947501,2156,0,S_1
1777450735.950497,2171,0,S_1
1777450735.95917,2092,0,S_1
1777450735.960892,1890,0,S_1
1777450735.963475,1882,0,S_1
1777450735.967223,2054,0,S_1
1777450735.9674618,2202,0,S_1
1777450735.969436,2155,0,S_1
1777450735.971993,2007,0,S_1
1777450735.976726,1843,0,S_1
1777450735.9789739,1945,0,S_1
1777450735.9808571,2159,0,S_1
1777450735.983798,2184,0,S_1
1777450735.9875681,2091,0,S_1
1777450735.99013,1897,0,S_1
1777450735.9926898,1877,0,S_1
1777450735.995507,2058,0,S_1
1777450736.0000808,2205,0,S_1
1777450736.001908,2125,0,S_1
1777450736.004574,1977,0,S_1
1777450736.008023,1819,0,S_1
1777450736.010853,1913,0,S_1
1777450736.013584,2102,0,S_1
1777450736.016507,2189,0,S_1
1777450736.022061,2098,0,S_1
1777450736.022503,1896,0,S_1
1777450736.025606,1860,0,S_1
1777450736.0302,2067,0,S_1
1777450736.032005,2189,0,S_1
1777450736.0345721,2206,0,S_1
1777450736.037503,2031,0,S_1
1777450736.0436869,1886,0,S_1
1777450736.044062,1909,0,S_1
1777450736.047461,2131,0,S_1
1777450736.050422,2208,0,S_1
1777450736.052556,2115,0,S_1
1777450736.055521,1937,0,S_1
1777450736.058536,1843,0,S_1
1777450736.0615182,2001,0,S_1
1777450736.065797,2193,0,S_1
1777450736.0679371,2213,0,S_1
1777450736.072364,2058,0,S_1
1777450736.074173,1869,0,S_1
1777450736.076906,1911,0,S_1
1777450736.0795689,2123,0,S_1
1777450736.082519,2208,0,S_1
1777450736.088696,2156,0,S_1
1777450736.089076,1982,0,S_1
1777450736.0924768,1866,0,S_1
1777450736.096725,1985,0,S_1
1777450736.0980248,2179,0,S_1
1777450736.100904,2208,0,S_1
1777450736.103484,2084,0,S_1
1777450736.106534,1877,0,S_1
1777450736.112489,1885,0,S_1
1777450736.112929,2108,0,S_1
1777450736.116333,2228,0,S_1
1777450736.121158,2177,0,S_1
1777450736.121614,2015,0,S_1
1777450736.124684,1854,0,S_1
1777450736.127506,1979,0,S_1
1777450736.130511,2176,0,S_1
1777450736.13642,2267,0,S_1
1777450736.1372879,2059,0,S_1
1777450736.139586,1929,0,S_1
1777450736.1441112,1881,0,S_1
1777450736.146032,2074,0,S_1
1777450736.1488562,2217,0,S_1
1777450736.1515121,2176,0,S_1
1777450736.160727,2034,0,S_1
1777450736.1614451,1875,0,S_1
1777450736.162935,1971,0,S_1
1777450736.164535,2141,0,S_1
1777450736.1665962,2217,0,S_1
1777450736.169845,2114,0,S_1
1777450736.1726668,1910,0,S_1
1777450736.17552,1843,0,S_1
1777450736.178493,2022,0,S_1
1777450736.185447,2171,0,S_1
1777450736.186162,2126,0,S_1
1777450736.188926,2037,0,S_1
1777450736.1918972,1835,0,S_1
1777450736.193913,1907,0,S_1
1777450736.196519,2108,0,S_1
1777450736.199528,2196,0,S_1
1777450736.20248,2136,0,S_1
1777450736.208389,1929,0,S_1
1777450736.209111,1834,0,S_1
1777450736.211843,1976,0,S_1
1777450736.2146869,2173,0,S_1
1777450736.218133,2170,0,S_1
1777450736.2206988,2049,0,S_1
1777450736.223549,1850,0,S_1
1777450736.22649,1877,0,S_1
1777450736.231046,2083,0,S_1
1777450736.23276,2197,0,S_1
1777450736.2357812,2160,0,S_1
1777450736.238699,1955,0,S_1
1777450736.241518,1814,0,S_1
1777450736.2444842,1943,0,S_1
1777450736.247515,2189,0,S_1
1777450736.252008,2197,0,S_1
1777450736.253945,2077,0,S_1
1777450736.258243,1895,0,S_1
1777450736.260139,1898,0,S_1
1777450736.2628748,2080,0,S_1
1777450736.2655098,2238,0,S_1
1777450736.268558,2179,0,S_1
1777450736.273472,2004,0,S_1
1777450736.2756531,1862,0,S_1
1777450736.2779279,1956,0,S_1
1777450736.282015,2166,0,S_1
1777450736.283872,2216,0,S_1
1777450736.286528,2112,0,S_1
1777450736.289518,1916,0,S_1
1777450736.295409,1883,0,S_1
1777450736.295779,2092,0,S_1
1777450736.299668,2228,0,S_1
1777450736.302172,2210,0,S_1
1777450736.305812,2072,0,S_1
1777450736.307513,1879,0,S_1
1777450736.310511,1964,0,S_1
1777450736.313515,2196,0,S_1
1777450736.318377,2265,0,S_1
1777450736.320232,2170,0,S_1
1777450736.323466,1992,0,S_1
1777450736.32648,1889,0,S_1
1777450736.329175,2107,0,S_1
1777450736.3317251,2264,0,S_1
1777450736.3345191,2229,0,S_1
1777450736.340182,2099,0,S_1
1777450736.34086,1921,0,S_1
1777450736.344322,1974,0,S_1
1777450736.348541,2192,0,S_1
1777450736.3500018,2280,0,S_1
1777450736.352549,2184,0,S_1
1777450736.3555148,2001,0,S_1
1777450736.3617768,1899,0,S_1
1777450736.362994,2085,0,S_1
1777450736.3652759,2200,0,S_1
1777450736.368268,2241,0,S_1
1777450736.3716302,2104,0,S_1
1777450736.3735209,1878,0,S_1
1777450736.376501,1912,0,S_1
1777450736.379502,2102,0,S_1
1777450736.383979,2231,0,S_1
1777450736.385553,2135,0,S_1
1777450736.388557,1993,0,S_1
1777450736.391511,1823,0,S_1
1777450736.394516,1990,0,S_1
1777450736.397485,2165,0,S_1
1777450736.4005299,2218,0,S_1
1777450736.405581,2095,0,S_1
1777450736.407792,1897,0,S_1
1777450736.409665,1891,0,S_1
1777450736.413864,2110,0,S_1
1777450736.415722,2218,0,S_1
1777450736.418516,2194,0,S_1
1777450736.421511,2012,0,S_1
1777450736.428106,1833,0,S_1
1777450736.428181,1941,0,S_1
1777450736.430728,2133,0,S_1
1777450736.4335449,2228,0,S_1
1777450736.437001,2122,0,S_1
1777450736.4396732,1897,0,S_1
1777450736.4425201,1840,0,S_1
1777450736.4484239,2079,0,S_1
1777450736.448877,2207,0,S_1
1777450736.452299,2191,0,S_1
1777450736.454874,2034,0,S_1
1777450736.458368,1861,0,S_1
1777450736.460922,1934,0,S_1
1777450736.4635022,2158,0,S_1
1777450736.466594,2221,0,S_1
1777450736.470033,2137,0,S_1
1777450736.473749,1949,0,S_1
1777450736.476423,1852,0,S_1
1777450736.479545,2044,0,S_1
1777450736.4820962,2206,0,S_1
1777450736.4846542,2193,0,S_1
1777450736.4875112,2054,0,S_1
1777450736.491957,1861,0,S_1
1777450736.494548,1930,0,S_1
1777450736.4973109,2119,0,S_1
1777450736.5004642,2209,0,S_1
1777450736.5030432,2156,0,S_1
1777450736.505613,1984,0,S_1
1777450736.508659,1917,0,S_1
1777450736.511894,2019,0,S_1
1777450736.515535,2185,0,S_1
1777450736.5197551,2217,0,S_1
1777450736.521486,2087,0,S_1
1777450736.5240362,1871,0,S_1
1777450736.526598,1935,0,S_1
1777450736.532245,2115,0,S_1
1777450736.532583,2192,0,S_1
1777450736.536371,2146,0,S_1
1777450736.540575,1997,0,S_1
1777450736.5422132,1861,0,S_1
1777450736.5447779,1990,0,S_1
1777450736.547487,2173,0,S_1
1777450736.553613,2215,0,S_1
1777450736.555433,2076,0,S_1
1777450736.5572748,1917,0,S_1
1777450736.559669,1863,0,S_1
1777450736.563124,2109,0,S_1
1777450736.56563,2193,0,S_1
1777450736.568394,2168,0,S_1
1777450736.574005,2024,0,S_1
1777450736.57488,1839,0,S_1
1777450736.577575,1959,0,S_1
1777450736.581782,2170,0,S_1
1777450736.583468,2217,0,S_1
1777450736.5863838,2116,0,S_1
1777450736.5893602,1919,0,S_1
1777450736.595911,1876,0,S_1
1777450736.596215,2083,0,S_1
1777450736.599113,2208,0,S_1
1777450736.603286,2191,0,S_1
1777450736.6051142,2029,0,S_1
1777450736.607664,1874,0,S_1
1777450736.6104121,1922,0,S_1
1777450736.6163788,2142,0,S_1
1777450736.617098,2211,0,S_1
1777450736.620249,2136,0,S_1
1777450736.622601,1941,0,S_1
1777450736.626067,1862,0,S_1
1777450736.628612,2033,0,S_1
1777450736.63138,2181,0,S_1
1777450736.637123,2174,0,S_1
1777450736.6382878,2026,0,S_1
1777450736.640939,1845,0,S_1
1777450736.6453938,1886,0,S_1
1777450736.647121,2129,0,S_1
1777450736.649675,2191,0,S_1
1777450736.6523662,2103,0,S_1
1777450736.6587589,1961,0,S_1
1777450736.658823,1849,0,S_1
1777450736.6621702,2003,0,S_1
1777450736.664522,2169,0,S_1
1777450736.668027,2193,0,S_1
1777450736.6705978,2062,0,S_1
1777450736.673377,1874,0,S_1
1777450736.6764858,1923,0,S_1
1777450736.680417,2112,0,S_1
1777450736.6832378,2202,0,S_1
1777450736.686102,2170,0,S_1
1777450736.689273,2007,0,S_1
1777450736.69183,1859,0,S_1
1777450736.6944032,2002,0,S_1
1777450736.6974778,2200,0,S_1
1777450736.700972,2232,0,S_1
1777450736.704276,2122,0,S_1
1777450736.707007,1899,0,S_1
1777450736.71036,1898,0,S_1
1777450736.712917,2104,0,S_1
1777450736.715466,2228,0,S_1
1777450736.718431,2188,0,S_1
1777450736.72176,1999,0,S_1
1777450736.7256472,1891,0,S_1
1777450736.7277691,1914,0,S_1
1777450736.731199,2177,0,S_1
1777450736.733741,2303,0,S_1
1777450736.736393,2177,0,S_1
1777450736.742097,1960,0,S_1
1777450736.74246,1839,0,S_1
1777450736.745737,2103,0,S_1
1777450736.750145,2221,0,S_1
1777450736.751839,2195,0,S_1
1777450736.754393,2033,0,S_1
1777450736.757389,1860,0,S_1
1777450736.763453,1911,0,S_1
1777450736.763825,2125,0,S_1
1777450736.767183,2216,0,S_1
1777450736.771474,2082,0,S_1
1777450736.772897,1939,0,S_1
1777450736.7754529,1858,0,S_1
1777450736.778383,2074,0,S_1
1777450736.784437,2253,0,S_1
1777450736.7854002,2263,0,S_1
1777450736.78812,2122,0,S_1
1777450736.790664,1884,0,S_1
1777450736.794071,1904,0,S_1
1777450736.796627,2054,0,S_1
1777450736.799386,2224,0,S_1
1777450736.804833,2208,0,S_1
1777450736.805708,2045,0,S_1
1777450736.809032,1897,0,S_1
1777450736.812882,1884,0,S_1
1777450736.8145401,2120,0,S_1
1777450736.817374,2233,0,S_1
1777450736.820389,2044,0,S_1
1777450736.8266602,2051,0,S_1
1777450736.827053,1924,0,S_1
1777450736.836746,2017,0,S_1
1777450736.837068,2308,0,S_1
1777450736.837139,2153,0,S_1
1777450736.838448,2136,0,S_1
1777450736.8413498,1740,0,S_1
1777450736.844363,2037,0,S_1
1777450736.8510358,2241,0,S_1
1777450736.8514938,2119,0,S_1
1777450736.853396,1982,0,S_1
1777450736.856694,1741,0,S_1
1777450736.860105,1773,0,S_1
1777450736.8623538,2086,0,S_1
1777450736.865371,2294,0,S_1
1777450736.868384,2202,0,S_1
1777450736.874084,2048,0,S_1
1777450736.875037,1853,0,S_1
1777450736.878158,1968,0,S_1
1777450736.8811672,2155,0,S_1
1777450736.883533,2228,0,S_1
1777450736.88642,2073,0,S_1
1777450736.8893929,1892,0,S_1
1777450736.892401,1838,0,S_1
1777450736.8992178,2029,0,S_1
1777450736.901182,2202,0,S_1
1777450736.903154,2214,0,S_1
1777450736.906555,2084,0,S_1
1777450736.908671,1890,0,S_1
1777450736.910818,1946,0,S_1
1777450736.913436,2168,0,S_1
1777450736.916403,2245,0,S_1
1777450736.919401,2171,0,S_1
1777450736.924248,1971,0,S_1
1777450736.9262989,1885,0,S_1
1777450736.931241,2067,0,S_1
1777450736.9314811,2235,0,S_1
1777450736.9355872,2193,0,S_1
1777450736.937373,2078,0,S_1
1777450736.940373,1866,0,S_1
1777450736.9433742,1931,0,S_1
1777450736.949413,2163,0,S_1
1777450736.952086,2251,0,S_1
1777450736.952405,2156,0,S_1
1777450736.957454,1987,0,S_1
1777450736.96159,1874,0,S_1
1777450736.961735,2054,0,S_1
1777450736.964362,2169,0,S_1
1777450736.9738638,2191,0,S_1
1777450736.974355,2110,0,S_1
1777450736.9751801,1871,0,S_1
1777450736.979136,1924,0,S_1
1777450736.979445,2131,0,S_1
1777450736.982392,2177,0,S_1
1777450736.9853609,2123,0,S_1
1777450736.988364,2006,0,S_1
1777450736.9955058,1858,0,S_1
1777450736.997108,2041,0,S_1
1777450736.9975228,2127,0,S_1
1777450737.00262,2247,0,S_1
1777450737.005117,2119,0,S_1
1777450737.007211,1887,0,S_1
1777450737.0097039,1955,0,S_1
1777450737.0164962,2120,0,S_1
1777450737.017021,2145,0,S_1
1777450737.020496,2093,0,S_1
1777450737.023435,1982,0,S_1
1777450737.025642,1812,0,S_1
1777450737.0279648,1875,0,S_1
1777450737.030607,2218,0,S_1
1777450737.033365,2273,0,S_1
1777450737.036479,1955,0,S_1
1777450737.04179,1865,0,S_1
1777450737.0435798,1873,0,S_1
1777450737.047362,2102,0,S_1
1777450737.050123,2192,0,S_1
1777450737.0525131,2149,0,S_1
1777450737.054723,1988,0,S_1
1777450737.057371,1847,0,S_1
1777450737.0656378,1960,0,S_1
1777450737.068029,2166,0,S_1
1777450737.069348,2216,0,S_1
1777450737.070734,2126,0,S_1
1777450737.072468,2038,0,S_1
1777450737.0769439,1911,0,S_1
1777450737.078357,1954,0,S_1
1777450737.0813582,2164,0,S_1
1777450737.084237,2177,0,S_1
1777450737.093877,2034,0,S_1
1777450737.094082,1881,0,S_1
1777450737.09435,1948,0,S_1
1777450737.097426,2122,0,S_1
1777450737.099961,2228,0,S_1
1777450737.102336,2209,0,S_1
1777450737.105332,1970,0,S_1
1777450737.1082802,1877,0,S_1
1777450737.11293,1963,0,S_1
1777450737.115138,2223,0,S_1
1777450737.1181598,2203,0,S_1
1777450737.1222222,2051,0,S_1
1777450737.124325,1838,0,S_1
1777450737.1268868,1861,0,S_1
1777450737.129442,2087,0,S_1
1777450737.132264,2198,0,S_1
1777450737.138508,2122,0,S_1
1777450737.139482,1991,0,S_1
1777450737.142609,1809,0,S_1
1777450737.144547,1960,0,S_1
1777450737.148465,2207,0,S_1
1777450737.150557,2219,0,S_1
1777450737.1532428,2114,0,S_1
1777450737.158201,1901,0,S_1
1777450737.1609201,1875,0,S_1
1777450737.162859,2105,0,S_1
1777450737.1659951,2194,0,S_1
1777450737.168313,2190,0,S_1
1777450737.1712892,1998,0,S_1
1777450737.174276,1864,0,S_1
1777450737.177254,1919,0,S_1
1777450737.1837099,2131,0,S_1
1777450737.184984,2223,0,S_1
1777450737.186538,2107,0,S_1
1777450737.1896892,1928,0,S_1
1777450737.193901,1852,0,S_1
1777450737.1960168,2033,0,S_1
1777450737.198587,2230,0,S_1
1777450737.2041888,2179,0,S_1
1777450737.204354,2008,0,S_1
1777450737.2087061,1847,0,S_1
1777450737.211603,1932,0,S_1
1777450737.213828,2178,0,S_1
1777450737.216764,2237,0,S_1
1777450737.219318,2156,0,S_1
1777450737.222223,1958,0,S_1
1777450737.2252438,1834,0,S_1
1777450737.2292,2023,0,S_1
1777450737.2320588,2201,0,S_1
1777450737.234665,2223,0,S_1
1777450737.239511,2104,0,S_1
1777450737.2416918,1909,0,S_1
1777450737.243268,1904,0,S_1
1777450737.24997,2131,0,S_1
1777450737.2507231,2252,0,S_1
1777450737.252293,2145,0,S_1
1777450737.25529,2021,0,S_1
1777450737.259875,1875,0,S_1
1777450737.2621188,2034,0,S_1
1777450737.264808,2153,0,S_1
1777450737.267497,2223,0,S_1
1777450737.270261,2103,0,S_1
1777450737.276672,1902,0,S_1
1777450737.2780201,1869,0,S_1
1777450737.280724,2072,0,S_1
1777450737.28316,2254,0,S_1
1777450737.286742,2195,0,S_1
1777450737.288924,2013,0,S_1
1777450737.291496,1838,0,S_1
1777450737.297139,2009,0,S_1
1777450737.298044,2181,0,S_1
1777450737.301837,2215,0,S_1
1777450737.303927,2108,0,S_1
1777450737.309275,1908,0,S_1
1777450737.31116,1860,0,S_1
1777450737.312547,2064,0,S_1
1777450737.315226,2210,0,S_1
1777450737.3182342,2216,0,S_1
1777450737.321245,2021,0,S_1
1777450737.328246,1825,0,S_1
1777450737.3305368,1935,0,S_1
1777450737.330862,2149,0,S_1
1777450737.334929,2259,0,S_1
1777450737.337111,2098,0,S_1
1777450737.339539,1921,0,S_1
1777450737.3427079,1847,0,S_1
1777450737.345325,2057,0,S_1
1777450737.3537521,2212,0,S_1
1777450737.355424,2211,0,S_1
1777450737.355954,2047,0,S_1
1777450737.3583858,1870,0,S_1
1777450737.3623521,1930,0,S_1
1777450737.3647869,2135,0,S_1
1777450737.366247,2199,0,S_1
1777450737.3692632,2153,0,S_1
1777450737.372236,1935,0,S_1
1777450737.379334,1826,0,S_1
1777450737.379935,2042,0,S_1
1777450737.382633,2205,0,S_1
1777450737.385706,2208,0,S_1
1777450737.387368,2059,0,S_1
1777450737.3914309,1862,0,S_1
1777450737.393871,1897,0,S_1
1777450737.396538,2104,0,S_1
1777450737.405526,2227,0,S_1
1777450737.4058251,2175,0,S_1
1777450737.407958,1946,0,S_1
1777450737.408928,1818,0,S_1
1777450737.411783,2005,0,S_1
1777450737.41434,2186,0,S_1
1777450737.4174058,2200,0,S_1
1777450737.420236,2072,0,S_1
1777450737.4232562,1883,0,S_1
1777450737.426235,1852,0,S_1
1777450737.4318342,2062,0,S_1
1777450737.4332318,2176,0,S_1
1777450737.436494,2144,0,S_1
1777450737.438406,1994,0,S_1
1777450737.4429069,1846,0,S_1
1777450737.4452171,1968,0,S_1
1777450737.4477792,2163,0,S_1
1777450737.4532568,2222,0,S_1
1777450737.453643,2104,0,S_1
1777450737.456265,1900,0,S_1
1777450737.4595032,1836,0,S_1
1777450737.4637692,2063,0,S_1
1777450737.465672,2188,0,S_1
1777450737.468265,2166,0,S_1
1777450737.471227,2036,0,S_1
1777450737.474272,1830,0,S_1
1777450737.479976,1951,0,S_1
1777450737.480465,2160,0,S_1
1777450737.483754,2201,0,S_1
1777450737.487205,2127,0,S_1
1777450737.489386,1938,0,S_1
1777450737.4923131,1835,0,S_1
1777450737.495271,2052,0,S_1
1777450737.4982579,2206,0,S_1
1777450737.504736,2185,0,S_1
1777450737.5051908,2079,0,S_1
1777450737.5072908,1884,0,S_1
1777450737.5111969,1905,0,S_1
1777450737.514656,2100,0,S_1
1777450737.516747,2209,0,S_1
1777450737.5193331,2147,0,S_1
1777450737.525246,1951,0,S_1
1777450737.526401,1830,0,S_1
1777450737.529023,1981,0,S_1
1777450737.532607,2152,0,S_1
1777450737.5347252,2199,0,S_1
1777450737.537677,2067,0,S_1
1777450737.540247,1854,0,S_1
1777450737.54322,1886,0,S_1
1777450737.549695,2100,0,S_1
1777450737.550134,2165,0,S_1
1777450737.552574,2137,0,S_1
1777450737.555331,1959,0,S_1
1777450737.5597172,1808,0,S_1
1777450737.5617752,1997,0,S_1
1777450737.564342,2177,0,S_1
1777450737.567235,2201,0,S_1
1777450737.570265,2096,0,S_1
1777450737.575104,1886,0,S_1
1777450737.5775738,1871,0,S_1
1777450737.5795178,2079,0,S_1
1777450737.582726,2207,0,S_1
1777450737.586675,2165,0,S_1
1777450737.588224,2019,0,S_1
1777450737.5912519,1824,0,S_1
1777450737.594226,1933,0,S_1
1777450737.598814,2151,0,S_1
1777450737.601419,2210,0,S_1
1777450737.603285,2115,0,S_1
1777450737.606316,1897,0,S_1
1777450737.6102731,1866,0,S_1
1777450737.6128361,2063,0,S_1
1777450737.61539,2203,0,S_1
1777450737.6181178,2167,0,S_1
1777450737.622926,2030,0,S_1
1777450737.62518,1881,0,S_1
1777450737.631875,1926,0,S_1
1777450737.631964,2151,0,S_1
1777450737.633947,2219,0,S_1
1777450737.636514,2103,0,S_1
1777450737.639135,1894,0,S_1
1777450737.642108,1830,0,S_1
1777450737.646801,2010,0,S_1
1777450737.64978,2162,0,S_1
1777450737.65166,2193,0,S_1
1777450737.654882,2000,0,S_1
1777450737.6571379,1848,0,S_1
1777450737.660112,1893,0,S_1
1777450737.6631098,2173,0,S_1
1777450737.6661088,2267,0,S_1
1777450737.673434,2174,0,S_1
1777450737.675043,1922,0,S_1
1777450737.675252,1895,0,S_1
1777450737.678731,2020,0,S_1
1777450737.681969,2149,0,S_1
1777450737.684107,2187,0,S_1
1777450737.6871119,2042,0,S_1
1777450737.690112,1860,0,S_1
1777450737.698068,1936,0,S_1
1777450737.698156,2104,0,S_1
1777450737.699688,2206,0,S_1
1777450737.7026439,2160,0,S_1
1777450737.706642,1991,0,S_1
1777450737.7087219,1850,0,S_1
1777450737.711273,2003,0,S_1
1777450737.714112,2217,0,S_1
1777450737.71714,2194,0,S_1
1777450737.722007,2026,0,S_1
1777450737.723629,1866,0,S_1
1777450737.726488,1869,0,S_1
1777450737.730326,2070,0,S_1
1777450737.732362,2197,0,S_1
1777450737.735147,2170,0,S_1
1777450737.738139,2024,0,S_1
1777450737.7411358,1837,0,S_1
1777450737.7452748,1895,0,S_1
1777450737.7475169,2110,0,S_1
1777450737.7504709,2235,0,S_1
1777450737.754364,2131,0,S_1
1777450737.7563038,1911,0,S_1
1777450737.759131,1829,0,S_1
1777450737.762107,2063,0,S_1
1777450737.768615,2170,0,S_1
1777450737.7693498,2188,0,S_1
1777450737.7726169,2039,0,S_1
1777450737.775548,1863,0,S_1
1777450737.777448,1914,0,S_1
1777450737.780255,2160,0,S_1
1777450737.783129,2210,0,S_1
1777450737.786151,2162,0,S_1
1777450737.791023,1968,0,S_1
1777450737.793236,1852,0,S_1
1777450737.795253,2050,0,S_1
1777450737.799793,2170,0,S_1
1777450737.801638,2185,0,S_1
1777450737.8041978,2048,0,S_1
1777450737.807134,1848,0,S_1
1777450737.810125,1897,0,S_1
1777450737.813474,2127,0,S_1
1777450737.817408,2216,0,S_1
1777450737.820308,2142,0,S_1
1777450737.822324,1981,0,S_1
1777450737.8251321,1849,0,S_1
1777450737.8281422,2019,0,S_1
1777450737.831094,2187,0,S_1
1777450737.835937,2193,0,S_1
1777450737.838301,2074,0,S_1
1777450737.840265,1836,0,S_1
1777450737.844758,1876,0,S_1
1777450737.846339,2154,0,S_1
1777450737.8491259,2236,0,S_1
1777450737.852132,2143,0,S_1
1777450737.855124,1992,0,S_1
1777450737.8589828,1864,0,S_1
1777450737.8629088,1979,0,S_1
1777450737.864657,2154,0,S_1
1777450737.8678799,2201,0,S_1
1777450737.870662,2100,0,S_1
1777450737.873219,1890,0,S_1
1777450737.8760939,1876,0,S_1
1777450737.881346,2099,0,S_1
1777450737.88373,2205,0,S_1
1777450737.8854349,2151,0,S_1
1777450737.890153,2022,0,S_1
1777450737.892134,1849,0,S_1
1777450737.894687,1949,0,S_1
1777450737.89725,2136,0,S_1
1777450737.9001112,2209,0,S_1
1777450737.904253,2113,0,S_1
1777450737.9061089,1922,0,S_1
1777450737.90917,1861,0,S_1
1777450737.9124212,2073,0,S_1
1777450737.915261,2214,0,S_1
1777450737.9181068,2176,0,S_1
1777450737.9211361,2025,0,S_1
1777450737.926178,1853,0,S_1
1777450737.92863,1943,0,S_1
1777450737.9307032,2131,0,S_1
1777450737.934976,2211,0,S_1
1777450737.936811,2115,0,S_1
1777450737.93936,1930,0,S_1
1777450737.942179,1881,0,S_1
1777450737.948527,2071,0,S_1
1777450737.94891,2214,0,S_1
1777450737.9520488,2214,0,S_1
1777450737.95484,2074,0,S_1
1777450737.958409,1897,0,S_1
1777450737.960098,1960,0,S_1
1777450737.96375,2187,0,S_1
1777450737.9663029,2244,0,S_1
1777450737.970641,2196,0,S_1
1777450737.972518,2013,0,S_1
1777450737.975513,1864,0,S_1
1777450737.978467,2049,0,S_1
1777450737.9814138,2223,0,S_1
1777450737.9841201,2255,0,S_1
1777450737.9871309,2101,0,S_1
1777450737.9921331,1868,0,S_1
1777450737.993954,1900,0,S_1
1777450737.998004,2143,0,S_1
1777450737.999885,2234,0,S_1
1777450738.00265,2179,0,S_1
1777450738.0051992,1989,0,S_1
1777450738.0081332,1856,0,S_1
1777450738.0138292,1977,0,S_1
1777450738.0150368,2182,0,S_1
1777450738.017301,2223,0,S_1
1777450738.02045,2097,0,S_1
1777450738.024141,1902,0,S_1
1777450738.026691,1918,0,S_1
1777450738.029258,2078,0,S_1
1777450738.032172,2196,0,S_1
1777450738.035563,2173,0,S_1
1777450738.039032,2024,0,S_1
1777450738.042005,1869,0,S_1
1777450738.045235,1940,0,S_1
1777450738.0471292,2167,0,S_1
1777450738.0500998,2219,0,S_1
1777450738.053132,2145,0,S_1
1777450738.0573802,1915,0,S_1
1777450738.059229,1865,0,S_1
1777450738.0633721,2068,0,S_1
1777450738.065356,2214,0,S_1
1777450738.068091,2205,0,S_1
1777450738.0710988,2048,0,S_1
1777450738.074142,1853,0,S_1
1777450738.079419,1963,0,S_1
1777450738.081266,2158,0,S_1
1777450738.083282,2210,0,S_1
1777450738.087557,2141,0,S_1
1777450738.0894039,1984,0,S_1
1777450738.0921211,1885,0,S_1
1777450738.0951302,2044,0,S_1
1777450738.098162,2206,0,S_1
1777450738.1016588,2203,0,S_1
1777450738.1051981,2070,0,S_1
1777450738.108182,1886,0,S_1
1777450738.110155,1934,0,S_1
1777450738.1130939,2121,0,S_1
1777450738.1161332,2212,0,S_1
1777450738.119136,2157,0,S_1
1777450738.123242,1974,0,S_1
1777450738.1252759,1838,0,S_1
1777450738.128281,2020,0,S_1
1777450738.132577,2221,0,S_1
1777450738.134096,2234,0,S_1
1777450738.137127,2097,0,S_1
1777450738.140106,1921,0,S_1
1777450738.144932,1880,0,S_1
1777450738.146705,2126,0,S_1
1777450738.1496918,2233,0,S_1
1777450738.152971,2177,0,S_1
1777450738.155664,1996,0,S_1
1777450738.158211,1851,0,S_1
1777450738.16113,1975,0,S_1
1777450738.167118,2172,0,S_1
1777450738.167517,2232,0,S_1
1777450738.1709802,2144,0,S_1
1777450738.173418,1905,0,S_1
1777450738.176657,1874,0,S_1
1777450738.179424,2085,0,S_1
1777450738.1820958,2218,0,S_1
1777450738.1852338,2191,0,S_1
1777450738.1889448,2073,0,S_1
1777450738.1919959,1850,0,S_1
1777450738.1951401,1955,0,S_1
1777450738.197243,2160,0,S_1
1777450738.200139,2238,0,S_1
1777450738.2030988,2110,0,S_1
1777450738.206096,1935,0,S_1
1777450738.2109241,1868,0,S_1
1777450738.213066,2061,0,S_1
1777450738.21521,2239,0,S_1
1777450738.219122,2209,0,S_1
1777450738.2211258,2116,0,S_1
1777450738.224125,1874,0,S_1
1777450738.227129,1959,0,S_1
1777450738.2321439,2166,0,S_1
1777450738.234058,2258,0,S_1
1777450738.237279,2165,0,S_1
1777450738.240205,1959,0,S_1
1777450738.2421298,1862,0,S_1
1777450738.2451031,2044,0,S_1
1777450738.248128,2189,0,S_1
1777450738.252909,2211,0,S_1
1777450738.255071,2057,0,S_1
1777450738.257175,1885,0,S_1
1777450738.260989,1924,0,S_1
1777450738.2636318,2132,0,S_1
1777450738.266183,2211,0,S_1
1777450738.2689972,2172,0,S_1
1777450738.274644,1988,0,S_1
1777450738.275032,1866,0,S_1
1777450738.280096,2005,0,S_1
1777450738.2819588,2175,0,S_1
1777450738.284578,2234,0,S_1
1777450738.287128,2099,0,S_1
1777450738.290004,1892,0,S_1
1777450738.294755,1893,0,S_1
1777450738.296906,2090,0,S_1
1777450738.299843,2220,0,S_1
1777450738.302794,2184,0,S_1
1777450738.305378,2008,0,S_1
1777450738.308005,1858,0,S_1
1777450738.311501,1975,0,S_1
1777450738.315989,2165,0,S_1
1777450738.317945,2225,0,S_1
1777450738.3210518,2108,0,S_1
1777450738.32402,1907,0,S_1
1777450738.326008,1891,0,S_1
1777450738.3290188,2095,0,S_1
1777450738.332,2227,0,S_1
1777450738.33723,2175,0,S_1
1777450738.338955,2004,0,S_1
1777450738.341718,1846,0,S_1
1777450738.345242,1969,0,S_1
1777450738.347043,2152,0,S_1
1777450738.349998,2206,0,S_1
1777450738.35301,2137,0,S_1
1777450738.3580842,1948,0,S_1
1777450738.360182,1886,0,S_1
1777450738.36214,2080,0,S_1
1777450738.3658502,2211,0,S_1
1777450738.367991,2205,0,S_1
1777450738.370987,2072,0,S_1
1777450738.3739882,1889,0,S_1
1777450738.379523,1919,0,S_1
1777450738.3804932,2148,0,S_1
1777450738.383206,2221,0,S_1
1777450738.387607,2164,0,S_1
1777450738.3893461,1961,0,S_1
1777450738.391994,1855,0,S_1
1777450738.3949912,2040,0,S_1
1777450738.40107,2184,0,S_1
1777450738.4026701,2200,0,S_1
1777450738.404495,2053,0,S_1
1777450738.408503,1876,0,S_1
1777450738.410305,1918,0,S_1
1777450738.413005,2113,0,S_1
1777450738.416,2242,0,S_1
1777450738.421241,2153,0,S_1
1777450738.42318,1976,0,S_1
1777450738.42506,1866,0,S_1
1777450738.429194,1958,0,S_1
1777450738.4309802,2180,0,S_1
1777450738.433999,2198,0,S_1
1777450738.437003,2083,0,S_1
1777450738.441986,1871,0,S_1
1777450738.444025,1896,0,S_1
1777450738.446162,2106,0,S_1
1777450738.450033,2219,0,S_1
1777450738.452,2180,0,S_1
1777450738.4550111,2040,0,S_1
1777450738.458011,1844,0,S_1
1777450738.4641018,1979,0,S_1
1777450738.4641778,2174,0,S_1
1777450738.467306,2236,0,S_1
1777450738.471285,2123,0,S_1
1777450738.473145,1920,0,S_1
1777450738.475996,1876,0,S_1
1777450738.4789991,2089,0,S_1
1777450738.4846451,2230,0,S_1
1777450738.485565,2220,0,S_1
1777450738.48803,2042,0,S_1
1777450738.492367,1879,0,S_1
1777450738.494153,1960,0,S_1
1777450738.497001,2172,0,S_1
1777450738.499995,2243,0,S_1
1777450738.5031009,2149,0,S_1
1777450738.506897,1945,0,S_1
1777450738.509086,1873,0,S_1
1777450738.512327,2085,0,S_1
1777450738.515141,2216,0,S_1
1777450738.517963,2195,0,S_1
1777450738.520958,2066,0,S_1
1777450738.523959,1858,0,S_1
1777450738.528189,1937,0,S_1
1777450738.529977,2151,0,S_1
1777450738.534135,2215,0,S_1
1777450738.536015,2119,0,S_1
1777450738.53899,1989,0,S_1
1777450738.541964,1836,0,S_1
1777450738.54499,2035,0,S_1
1777450738.549527,2175,0,S_1
1777450738.551753,2205,0,S_1
1777450738.554871,2085,0,S_1
1777450738.5579362,1881,0,S_1
1777450738.560492,1890,0,S_1
1777450738.5630348,2117,0,S_1
1777450738.565971,2236,0,S_1
1777450738.5707679,2147,0,S_1
1777450738.572801,1951,0,S_1
1777450738.575837,1838,0,S_1
1777450738.578877,2017,0,S_1
1777450738.580983,2183,0,S_1
1777450738.583982,2134,0,S_1
1777450738.58699,2093,0,S_1
1777450738.591659,1861,0,S_1
1777450738.5936608,1848,0,S_1
1777450738.5995588,2115,0,S_1
1777450738.5996711,2207,0,S_1
1777450738.6022332,2106,0,S_1
1777450738.60496,1990,0,S_1
1777450738.607957,1898,0,S_1
1777450738.612627,1943,0,S_1
1777450738.6142669,2130,0,S_1
1777450738.6198962,2284,0,S_1
1777450738.620039,2069,0,S_1
1777450738.622994,1961,0,S_1
1777450738.62598,1971,0,S_1
1777450738.6289809,2050,0,S_1
1777450738.632742,2083,0,S_1
1777450738.6362429,2184,0,S_1
1777450738.638818,1925,0,S_1
1777450738.641984,1850,0,S_1
1777450738.644533,2016,0,S_1
1777450738.647077,2198,0,S_1
1777450738.649973,2112,0,S_1
1777450738.654297,2050,0,S_1
1777450738.656301,1929,0,S_1
1777450738.659167,1931,0,S_1
1777450738.662074,1995,0,S_1
1777450738.6650019,2323,0,S_1
1777450738.66797,2181,0,S_1
1777450738.6745348,2109,0,S_1
1777450738.6759832,1745,0,S_1
1777450738.678355,1881,0,S_1
1777450738.6811268,2023,0,S_1
1777450738.68299,2218,0,S_1
1777450738.685997,2097,0,S_1
1777450738.688969,1973,0,S_1
1777450738.692,1788,0,S_1
1777450738.6967602,1968,0,S_1
1777450738.6981509,2135,0,S_1
1777450738.701264,2181,0,S_1
1777450738.704253,2148,0,S_1
1777450738.7070029,1957,0,S_1
1777450738.709978,1903,0,S_1
1777450738.7129998,2103,0,S_1
1777450738.71762,2203,0,S_1
1777450738.7192352,2120,0,S_1
1777450738.7234292,1976,0,S_1
1777450738.725339,1854,0,S_1
1777450738.727993,2006,0,S_1
1777450738.731018,2189,0,S_1
1777450738.734004,2224,0,S_1
1777450738.739212,2083,0,S_1
1777450738.741929,1867,0,S_1
1777450738.743698,1985,0,S_1
1777450738.7466629,2094,0,S_1
1777450738.749255,2118,0,S_1
1777450738.7520058,2172,0,S_1
1777450738.75499,2077,0,S_1
1777450738.759564,1935,0,S_1
1777450738.7613251,2038,0,S_1
1777450738.7652779,2059,0,S_1
1777450738.767009,2163,0,S_1
1777450738.770001,2052,0,S_1
1777450738.772969,1936,0,S_1
1777450738.776004,1933,0,S_1
1777450738.7806342,2070,0,S_1
1777450738.782181,2241,0,S_1
1777450738.7861602,1999,0,S_1
1777450738.78806,2137,0,S_1
1777450738.791001,1882,0,S_1
1777450738.793994,1860,0,S_1
1777450738.796999,2132,0,S_1
1777450738.80078,2321,0,S_1
1777450738.804353,1988,0,S_1
1777450738.806008,1941,0,S_1
1777450738.809005,1900,0,S_1
1777450738.8119721,2079,0,S_1
1777450738.8150039,2183,0,S_1
1777450738.8179672,2249,0,S_1
1777450738.822955,2010,0,S_1
1777450738.82499,1840,0,S_1
1777450738.827165,1902,0,S_1
1777450738.831415,2111,0,S_1
1777450738.833187,2222,0,S_1
1777450738.83598,2093,0,S_1
1777450738.8389812,1899,0,S_1
1777450738.844929,1748,0,S_1
1777450738.845702,1882,0,S_1
1777450738.849129,2228,0,S_1
1777450738.851101,1823,0,S_1
1777450738.854249,1990,0,S_1
1777450738.857142,2364,0,S_1
1777450738.859877,2126,0,S_1
1777450738.862853,2114,0,S_1
1777450738.8740811,2129,0,S_1
1777450738.874939,2363,0,S_1
1777450738.8770418,1827,0,S_1
1777450738.879056,1701,0,S_1
1777450738.879345,2368,0,S_1
1777450738.8813848,2270,0,S_1
1777450738.884016,2025,0,S_1
1777450738.891049,2039,0,S_1
1777450738.891337,1850,0,S_1
1777450738.893901,1840,0,S_1
1777450738.896148,2353,0,S_1
1777450738.900052,2339,0,S_1
1777450738.9018822,1953,0,S_1
1777450738.904852,1929,0,S_1
1777450738.907856,1842,0,S_1
1777450738.915044,1870,0,S_1
1777450738.915193,2147,0,S_1
1777450738.9184058,2220,0,S_1
1777450738.9199848,2057,0,S_1
1777450738.923734,1900,0,S_1
1777450738.9258702,2024,0,S_1
1777450738.928861,2042,0,S_1
1777450738.93186,2145,0,S_1
1777450738.9395142,2182,0,S_1
1777450738.939735,2125,0,S_1
1777450738.942258,1810,0,S_1
1777450738.946835,1960,0,S_1
1777450738.94881,2150,0,S_1
1777450738.950329,2285,0,S_1
1777450738.952988,2119,0,S_1
1777450738.955866,1819,0,S_1
1777450738.962073,1752,0,S_1
1777450738.96322,1926,0,S_1
1777450738.966787,2224,0,S_1
1777450738.968411,2301,0,S_1
1777450738.971915,2221,0,S_1
1777450738.974112,1820,0,S_1
1777450738.976876,1891,0,S_1
1777450738.982891,2209,0,S_1
1777450738.984997,2117,0,S_1
1777450738.9870028,2144,0,S_1
1777450738.990635,1966,0,S_1
1777450738.99306,1828,0,S_1
1777450738.9952629,2007,0,S_1
1777450738.9979048,2188,0,S_1
1777450739.000853,2214,0,S_1
1777450739.003862,2086,0,S_1
1777450739.0102909,1865,0,S_1
1777450739.012032,1919,0,S_1
1777450739.015483,2085,0,S_1
1777450739.016302,2183,0,S_1
1777450739.019809,2165,0,S_1
1777450739.022163,1960,0,S_1
1777450739.024864,1839,0,S_1
1777450739.030806,2012,0,S_1
1777450739.0315971,2199,0,S_1
1777450739.035143,2208,0,S_1
1777450739.038239,2092,0,S_1
1777450739.04054,1839,0,S_1
1777450739.042882,1912,0,S_1
1777450739.045859,2128,0,S_1
1777450739.0488498,2236,0,S_1
1777450739.051836,2159,0,S_1
1777450739.056562,2050,0,S_1
1777450739.059541,1882,0,S_1
1777450739.061526,1971,0,S_1
1777450739.0648918,2173,0,S_1
1777450739.06746,2209,0,S_1
1777450739.0698612,2125,0,S_1
1777450739.072845,1940,0,S_1
1777450739.0781949,1874,0,S_1
1777450739.0793102,2052,0,S_1
1777450739.082884,2237,0,S_1
1777450739.084895,2185,0,S_1
1777450739.088594,2055,0,S_1
1777450739.0908659,1821,0,S_1
1777450739.093834,1940,0,S_1
1777450739.096839,2185,0,S_1
1777450739.104409,2168,0,S_1
1777450739.104896,2122,0,S_1
1777450739.10708,1945,0,S_1
1777450739.1089869,1867,0,S_1
1777450739.114272,2043,0,S_1
1777450739.1163788,2195,0,S_1
1777450739.117847,2169,0,S_1
1777450739.120866,2032,0,S_1
1777450739.123868,1826,0,S_1
1777450739.130228,1867,0,S_1
1777450739.131127,2114,0,S_1
1777450739.1354501,2207,0,S_1
1777450739.136051,2125,0,S_1
1777450739.1411169,1943,0,S_1
1777450739.143563,1834,0,S_1
1777450739.144934,2063,0,S_1
1777450739.147883,2161,0,S_1
1777450739.1530309,2183,0,S_1
1777450739.1551769,2042,0,S_1
1777450739.157901,1882,0,S_1
1777450739.160707,1958,0,S_1
1777450739.1630561,2117,0,S_1
1777450739.166125,2210,0,S_1
1777450739.168884,2143,0,S_1
1777450739.1718578,1991,0,S_1
1777450739.1748328,1819,0,S_1
1777450739.180383,1974,0,S_1
1777450739.182487,2194,0,S_1
1777450739.185359,2218,0,S_1
1777450739.188075,2095,0,S_1
1777450739.1904309,1864,0,S_1
1777450739.19287,1869,0,S_1
1777450739.195841,2089,0,S_1
1777450739.2012851,2212,0,S_1
1777450739.202909,2194,0,S_1
1777450739.2061849,1975,0,S_1
1777450739.20948,1851,0,S_1
1777450739.2118201,1967,0,S_1
1777450739.213956,2169,0,S_1
1777450739.216865,2205,0,S_1
1777450739.219836,2125,0,S_1
1777450739.222859,1896,0,S_1
1777450739.22784,1894,0,S_1
1777450739.229279,2052,0,S_1
1777450739.232461,2166,0,S_1
1777450739.235908,2174,0,S_1
1777450739.238508,2046,0,S_1
1777450739.2409759,1846,0,S_1
1777450739.243864,1932,0,S_1
1777450739.250441,2141,0,S_1
1777450739.252384,2230,0,S_1
1777450739.254522,2184,0,S_1
1777450739.256999,1939,0,S_1
1777450739.2611709,1872,0,S_1
1777450739.263485,2049,0,S_1
1777450739.2648408,2178,0,S_1
1777450739.2678652,2169,0,S_1
1777450739.270859,2092,0,S_1
1777450739.273906,1843,0,S_1
1777450739.2795148,1906,0,S_1
1777450739.2820082,2171,0,S_1
1777450739.2838311,2216,0,S_1
1777450739.286607,2157,0,S_1
1777450739.290661,1986,0,S_1
1777450739.293111,1862,0,S_1
1777450739.294861,2014,0,S_1
1777450739.302264,2187,0,S_1
1777450739.30413,2224,0,S_1
1777450739.30425,2094,0,S_1
1777450739.308171,1867,0,S_1
1777450739.310143,1911,0,S_1
1777450739.314357,2113,0,S_1
1777450739.31674,2231,0,S_1
1777450739.3194182,2148,0,S_1
1777450739.322038,1991,0,S_1
1777450739.324867,1853,0,S_1
1777450739.3321202,1988,0,S_1
1777450739.333133,2186,0,S_1
1777450739.335362,2210,0,S_1
1777450739.338079,2122,0,S_1
1777450739.341635,1897,0,S_1
1777450739.344167,1869,0,S_1
1777450739.3461409,2107,0,S_1
1777450739.348944,2267,0,S_1
1777450739.356768,2151,0,S_1
1777450739.357367,1971,0,S_1
1777450739.359369,1847,0,S_1
1777450739.3610601,1941,0,S_1
1777450739.3674119,2155,0,S_1
1777450739.367635,2177,0,S_1
1777450739.370014,2090,0,S_1
1777450739.372869,1898,0,S_1
1777450739.37586,1859,0,S_1
1777450739.378864,2072,0,S_1
1777450739.386218,2188,0,S_1
1777450739.387719,2175,0,S_1
1777450739.3879108,2037,0,S_1
1777450739.393781,1857,0,S_1
1777450739.393981,1930,0,S_1
1777450739.398528,2084,0,S_1
1777450739.399864,2177,0,S_1
1777450739.402854,2102,0,S_1
1777450739.408793,1926,0,S_1
1777450739.411063,1813,0,S_1
1777450739.4140291,2026,0,S_1
1777450739.417133,2162,0,S_1
1777450739.4193978,2168,0,S_1
1777450739.421877,2029,0,S_1
1777450739.424457,1839,0,S_1
1777450739.427018,1907,0,S_1
1777450739.429843,2100,0,S_1
1777450739.435759,2202,0,S_1
1777450739.436574,2108,0,S_1
1777450739.438928,1931,0,S_1
1777450739.442545,1828,0,S_1
1777450739.4465652,2008,0,S_1
1777450739.448861,2159,0,S_1
1777450739.451423,2178,0,S_1
1777450739.457244,2086,0,S_1
1777450739.457668,1849,0,S_1
1777450739.460059,1867,0,S_1
1777450739.463309,2107,0,S_1
1777450739.4675572,2215,0,S_1
1777450739.4697962,2147,0,S_1
1777450739.472411,1969,0,S_1
1777450739.474963,1893,0,S_1
1777450739.4778671,1957,0,S_1
1777450739.483387,2159,0,S_1
1777450739.484187,2203,0,S_1
1777450739.487116,2099,0,S_1
1777450739.4906209,1898,0,S_1
1777450739.492888,1846,0,S_1
1777450739.495845,2108,0,S_1
1777450739.498869,2188,0,S_1
1777450739.501872,2168,0,S_1
1777450739.5077891,2025,0,S_1
1777450739.508932,1853,0,S_1
1777450739.512008,1945,0,S_1
1777450739.515533,2140,0,S_1
1777450739.517802,2222,0,S_1
1777450739.519976,2112,0,S_1
1777450739.522874,1918,0,S_1
1777450739.5258749,1842,0,S_1
1777450739.528873,2088,0,S_1
1777450739.5336242,2157,0,S_1
1777450739.536011,2123,0,S_1
1777450739.5388842,2026,0,S_1
1777450739.540941,1910,0,S_1
1777450739.5450728,1937,0,S_1
1777450739.546864,2136,0,S_1
1777450739.550477,2222,0,S_1
1777450739.5530272,2137,0,S_1
1777450739.558924,1928,0,S_1
1777450739.559359,1842,0,S_1
1777450739.563211,2052,0,S_1
1777450739.56591,2178,0,S_1
1777450739.568149,2175,0,S_1
1777450739.571085,2032,0,S_1
1777450739.612075,1824,0,S_1
1777450739.612194,1890,0,S_1
1777450739.612227,2125,0,S_1
1777450739.612261,2216,0,S_1
1777450739.612291,2142,0,S_1
1777450739.61233,1960,0,S_1
1777450739.6123588,1812,0,S_1
1777450739.612385,1981,0,S_1
1777450739.6124349,2168,0,S_1
1777450739.6125178,2221,0,S_1
1777450739.612621,2152,0,S_1
1777450739.612649,1863,0,S_1
1777450739.612674,1897,0,S_1
1777450739.612888,2060,0,S_1
1777450739.615875,2205,0,S_1
1777450739.621471,2127,0,S_1
1777450739.623044,1977,0,S_1
1777450739.627867,1807,0,S_1
1777450739.628694,1968,0,S_1
1777450739.63202,2157,0,S_1
1777450739.638164,2215,0,S_1
1777450739.6383271,2125,0,S_1
1777450739.6401122,1897,0,S_1
1777450739.642814,1851,0,S_1
1777450739.650005,2093,0,S_1
1777450739.6534212,2197,0,S_1
1777450739.655494,2145,0,S_1
1777450739.660838,1958,0,S_1
1777450739.661197,1797,0,S_1
1777450739.661838,1915,0,S_1
1777450739.663983,2135,0,S_1
1777450739.66672,2220,0,S_1
1777450739.6697369,2125,0,S_1
1777450739.672739,1912,0,S_1
1777450739.677886,1842,0,S_1
1777450739.680523,2042,0,S_1
1777450739.682909,2162,0,S_1
1777450739.686347,2181,0,S_1
1777450739.688838,2031,0,S_1
1777450739.6913311,1829,0,S_1
1777450739.693951,1918,0,S_1
1777450739.7006998,2114,0,S_1
1777450739.70124,2187,0,S_1
1777450739.704981,2116,0,S_1
1777450739.7082582,1927,0,S_1
1777450739.7104352,1850,0,S_1
1777450739.712585,2020,0,S_1
1777450739.715276,2176,0,S_1
1777450739.717888,2174,0,S_1
1777450739.720742,2020,0,S_1
1777450739.730742,1855,0,S_1
1777450739.734098,1899,0,S_1
1777450739.738226,2136,0,S_1
1777450739.738587,2226,0,S_1
1777450739.73876,2088,0,S_1
1777450739.739109,1963,0,S_1
1777450739.7419572,1845,0,S_1
1777450739.7447731,1995,0,S_1
1777450739.75182,2147,0,S_1
1777450739.7520971,2224,0,S_1
1777450739.7548711,2066,0,S_1
1777450739.757718,1884,0,S_1
1777450739.760055,1904,0,S_1
1777450739.7629151,2078,0,S_1
1777450739.765729,2167,0,S_1
1777450739.7687318,2199,0,S_1
1777450739.7760682,2034,0,S_1
1777450739.7791018,1842,0,S_1
1777450739.779423,1992,0,S_1
1777450739.782022,2158,0,S_1
1777450739.785088,2207,0,S_1
1777450739.787369,2130,0,S_1
1777450739.7904088,1901,0,S_1
1777450739.7931252,1878,0,S_1
1777450739.798188,2086,0,S_1
1777450739.800734,2225,0,S_1
1777450739.802607,2160,0,S_1
1777450739.8059268,1997,0,S_1
1777450739.8080661,1856,0,S_1
1777450739.81105,1947,0,S_1
1777450739.8137531,2183,0,S_1
1777450739.81675,2189,0,S_1
1777450739.822968,2090,0,S_1
1777450739.823424,1880,0,S_1
1777450739.8259358,1873,0,S_1
1777450739.829047,2055,0,S_1
1777450739.833149,2207,0,S_1
1777450739.835273,2213,0,S_1
1777450739.8378398,2000,0,S_1
1777450739.8407109,1852,0,S_1
1777450739.843742,1934,0,S_1
1777450739.8491678,2155,0,S_1
1777450739.850223,2221,0,S_1
1777450739.852876,2156,0,S_1
1777450739.856378,1849,0,S_1
1777450739.858805,1836,0,S_1
1777450739.861732,2011,0,S_1
1777450739.864757,2166,0,S_1
1777450739.867723,2192,0,S_1
1777450739.873238,2018,0,S_1
1777450739.874006,1883,0,S_1
1777450739.8768198,1939,0,S_1
1777450739.88012,2114,0,S_1
1777450739.88366,2196,0,S_1
1777450739.886244,2124,0,S_1
1777450739.88881,1961,0,S_1
1777450739.891742,1844,0,S_1
1777450739.896069,1971,0,S_1
1777450739.8986151,2154,0,S_1
1777450739.9020622,2217,0,S_1
1777450739.905482,2101,0,S_1
1777450739.907107,1858,0,S_1
1777450739.9097369,1887,0,S_1
1777450739.912708,2146,0,S_1
1777450739.91572,2260,0,S_1
1777450739.9203892,2208,0,S_1
1777450739.922421,2025,0,S_1
1777450739.9256792,1888,0,S_1
1777450739.929227,2026,0,S_1
1777450739.931283,2226,0,S_1
1777450739.9338439,2285,0,S_1
1777450739.936746,2094,0,S_1
1777450739.939743,1879,0,S_1
1777450739.943854,1908,0,S_1
1777450739.946113,2120,0,S_1
1777450739.948976,2225,0,S_1
1777450739.9527922,2206,0,S_1
1777450739.954865,2064,0,S_1
1777450739.957707,1871,0,S_1
1777450739.9607182,1982,0,S_1
1777450739.96711,2189,0,S_1
1777450739.9677749,2285,0,S_1
1777450739.971324,2142,0,S_1
1777450739.972955,1937,0,S_1
1777450739.9764879,1849,0,S_1
1777450739.9787462,2060,0,S_1
1777450739.981741,2223,0,S_1
1777450739.984746,2213,0,S_1
1777450739.990773,2038,0,S_1
1777450739.991161,1898,0,S_1
1777450739.995051,1993,0,S_1
1777450739.9980721,2153,0,S_1
1777450740.000055,2193,0,S_1
1777450740.002825,2126,0,S_1
1777450740.0057669,1956,0,S_1
1777450740.008708,1847,0,S_1
1777450740.013669,2022,0,S_1
1777450740.0158238,2187,0,S_1
1777450740.0178502,2139,0,S_1
1777450740.0224798,2063,0,S_1
1777450740.024262,1903,0,S_1
1777450740.026891,1939,0,S_1
1777450740.029724,2141,0,S_1
1777450740.0327601,2170,0,S_1
1777450740.037001,2132,0,S_1
1777450740.0401511,1987,0,S_1
1777450740.041897,1865,0,S_1
1777450740.045165,1979,0,S_1
1777450740.04817,2166,0,S_1
1777450740.0507169,2196,0,S_1
1777450740.053716,2102,0,S_1
1777450740.056704,1871,0,S_1
1777450740.060547,1901,0,S_1
1777450740.063087,2105,0,S_1
1777450740.065776,2206,0,S_1
1777450740.068697,2141,0,S_1
1777450740.072324,1980,0,S_1
1777450740.0750642,1881,0,S_1
1777450740.0794601,1956,0,S_1
1777450740.083411,2109,0,S_1
1777450740.088665,2176,0,S_1
1777450740.088963,2137,0,S_1
1777450740.0914292,1895,0,S_1
1777450740.092829,1860,0,S_1
1777450740.096102,2073,0,S_1
1777450740.0987608,2180,0,S_1
1777450740.10171,2161,0,S_1
1777450740.1067781,2012,0,S_1
1777450740.108633,1843,0,S_1
1777450740.110909,1952,0,S_1
1777450740.115093,2153,0,S_1
1777450740.117047,2239,0,S_1
1777450740.119754,2121,0,S_1
1777450740.122744,1920,0,S_1
1777450740.125718,1858,0,S_1
1777450740.1295419,2092,0,S_1
1777450740.1317708,2190,0,S_1
1777450740.134975,2189,0,S_1
1777450740.138575,2032,0,S_1
1777450740.1413388,1855,0,S_1
1777450740.144012,1920,0,S_1
1777450740.146952,2159,0,S_1
1777450740.154912,2241,0,S_1
1777450740.156714,2129,0,S_1
1777450740.156917,1964,0,S_1
1777450740.159106,1867,0,S_1
1777450740.161851,2045,0,S_1
1777450740.165667,2205,0,S_1
1777450740.168233,2222,0,S_1
1777450740.1707861,2069,0,S_1
1777450740.173625,1893,0,S_1
1777450740.1808698,1916,0,S_1
1777450740.1810439,2130,0,S_1
1777450740.1830049,2233,0,S_1
1777450740.185854,2172,0,S_1
1777450740.1894789,1990,0,S_1
1777450740.1921349,1883,0,S_1
1777450740.1946821,2029,0,S_1
1777450740.19762,2178,0,S_1
1777450740.2018409,2220,0,S_1
1777450740.203778,2075,0,S_1
1777450740.2067358,1916,0,S_1
1777450740.210237,1892,0,S_1
1777450740.213303,2120,0,S_1
1777450740.21586,2211,0,S_1
1777450740.2185972,2175,0,S_1
1777450740.224382,2028,0,S_1
1777450740.225473,1862,0,S_1
1777450740.230298,1986,0,S_1
1777450740.230749,2179,0,S_1
1777450740.233823,2207,0,S_1
1777450740.237365,2123,0,S_1
1777450740.239817,1896,0,S_1
1777450740.245315,1875,0,S_1
1777450740.245737,2080,0,S_1
1777450740.2488341,2214,0,S_1
1777450740.251771,2203,0,S_1
1777450740.2555,2034,0,S_1
1777450740.2580512,1852,0,S_1
1777450740.260597,1969,0,S_1
1777450740.263751,2160,0,S_1
1777450740.268656,2233,0,S_1
1777450740.271297,2142,0,S_1
1777450740.272992,1930,0,S_1
1777450740.276308,1829,0,S_1
1777450740.2790668,2049,0,S_1
1777450740.281624,2181,0,S_1
1777450740.2846138,2185,0,S_1
1777450740.289879,2050,0,S_1
1777450740.2921999,1847,0,S_1
1777450740.294157,1907,0,S_1
1777450740.29857,2122,0,S_1
1777450740.3004138,2218,0,S_1
1777450740.3029702,2156,0,S_1
1777450740.3056178,1965,0,S_1
1777450740.308592,1877,0,S_1
1777450740.3119092,2053,0,S_1
1777450740.315891,2229,0,S_1
1777450740.320181,2243,0,S_1
1777450740.3216891,2103,0,S_1
1777450740.323612,1899,0,S_1
1777450740.326581,1938,0,S_1
1777450740.329602,2188,0,S_1
1777450740.333299,2248,0,S_1
1777450740.337044,2206,0,S_1
1777450740.3386939,2014,0,S_1
1777450740.341661,1898,0,S_1
1777450740.344573,2027,0,S_1
1777450740.347602,2208,0,S_1
1777450740.35057,2247,0,S_1
1777450740.355408,2122,0,S_1
1777450740.357067,1873,0,S_1
1777450740.359987,1882,0,S_1
1777450740.3630002,2102,0,S_1
1777450740.365684,2229,0,S_1
1777450740.3685849,2233,0,S_1
1777450740.371613,2000,0,S_1
1777450740.37671,1852,0,S_1
1777450740.3787699,2004,0,S_1
1777450740.38096,2176,0,S_1
1777450740.385157,2234,0,S_1
1777450740.386838,2138,0,S_1
1777450740.3895879,1905,0,S_1
1777450740.3925881,1888,0,S_1
1777450740.3987699,2072,0,S_1
1777450740.399167,2201,0,S_1
1777450740.4023008,2182,0,S_1
1777450740.4067929,2012,0,S_1
1777450740.40864,1881,0,S_1
1777450740.411148,1960,0,S_1
1777450740.413715,2161,0,S_1
1777450740.416595,2222,0,S_1
1777450740.4204018,2134,0,S_1
1777450740.423576,1962,0,S_1
1777450740.425662,1880,0,S_1
1777450740.4286919,2072,0,S_1
1777450740.431625,2218,0,S_1
1777450740.434578,2209,0,S_1
1777450740.43762,2053,0,S_1
1777450740.4417741,1844,0,S_1
1777450740.4439192,1924,0,S_1
1777450740.446731,2148,0,S_1
1777450740.450037,2215,0,S_1
1777450740.452638,2150,0,S_1
1777450740.455612,1966,0,S_1
1777450740.45859,1863,0,S_1
1777450740.463349,2053,0,S_1
1777450740.465488,2190,0,S_1
1777450740.468339,2222,0,S_1
1777450740.471532,2062,0,S_1
1777450740.473618,1903,0,S_1
1777450740.476635,1906,0,S_1
1777450740.479609,2135,0,S_1
1777450740.485218,2233,0,S_1
1777450740.4861262,2125,0,S_1
1777450740.488895,1952,0,S_1
1777450740.493115,1840,0,S_1
1777450740.494952,2036,0,S_1
1777450740.497615,2178,0,S_1
1777450740.500582,2202,0,S_1
1777450740.5069492,2083,0,S_1
1777450740.506994,1894,0,S_1
1777450740.510796,1882,0,S_1
1777450740.513618,2126,0,S_1
1777450740.515671,2210,0,S_1
1777450740.518579,2126,0,S_1
1777450740.521593,2005,0,S_1
1777450740.5245912,1872,0,S_1
1777450740.528667,1935,0,S_1
1777450740.530853,2150,0,S_1
1777450740.534986,2267,0,S_1
1777450740.536953,2121,0,S_1
1777450740.5395992,1910,0,S_1
1777450740.5425081,1855,0,S_1
1777450740.5454879,2027,0,S_1
1777450740.5501618,2236,0,S_1
1777450740.552267,2184,0,S_1
1777450740.555257,2019,0,S_1
1777450740.558366,1824,0,S_1
1777450740.5610611,1871,0,S_1
1777450740.563613,2123,0,S_1
1777450740.5664818,2209,0,S_1
1777450740.57355,2130,0,S_1
1777450740.573618,1881,0,S_1
1777450740.5760288,1872,0,S_1
1777450740.579809,2036,0,S_1
1777450740.581674,2149,0,S_1
1777450740.584476,2135,0,S_1
1777450740.5874949,2061,0,S_1
1777450740.593141,1784,0,S_1
1777450740.594335,1851,0,S_1
1777450740.59688,2022,0,S_1
1777450740.599573,2183,0,S_1
1777450740.603137,2150,0,S_1
1777450740.605696,1889,0,S_1
1777450740.608491,1797,0,S_1
1777450740.614461,1961,0,S_1
1777450740.6148329,2130,0,S_1
1777450740.6183639,2223,0,S_1
1777450740.622537,2205,0,S_1
1777450740.624382,1881,0,S_1
1777450740.626942,1913,0,S_1
1777450740.629494,2091,0,S_1
1777450740.6325052,2253,0,S_1
1777450740.635892,2158,0,S_1
1777450740.639334,1930,0,S_1
1777450740.6420832,1792,0,S_1
1777450740.6455941,2090,0,S_1
1777450740.6474922,2237,0,S_1
1777450740.650489,2197,0,S_1
1777450740.653493,2081,0,S_1
1777450740.657619,1844,0,S_1
1777450740.659508,1981,0,S_1
1777450740.6652732,2116,0,S_1
1777450740.665489,2259,0,S_1
1777450740.668478,2200,0,S_1
1777450740.671454,1952,0,S_1
1777450740.674452,1788,0,S_1
1777450740.6782851,1930,0,S_1
1777450740.681781,2201,0,S_1
1777450740.686147,2238,0,S_1
1777450740.686917,2179,0,S_1
1777450740.689535,1976,0,S_1
1777450740.6924758,1840,0,S_1
1777450740.695443,1946,0,S_1
1777450740.699685,2079,0,S_1
1777450740.701772,2249,0,S_1
1777450740.7058308,2099,0,S_1
1777450740.7076669,1883,0,S_1
1777450740.710479,1947,0,S_1
1777450740.71345,2077,0,S_1
1777450740.7164779,2189,0,S_1
1777450740.7213829,2190,0,S_1
1777450740.723208,2002,0,S_1
1777450740.726353,1764,0,S_1
1777450740.7292721,1818,0,S_1
1777450740.7314901,2339,0,S_1
1777450740.73506,2222,0,S_1
1777450740.737612,2017,0,S_1
1777450740.7431731,1774,0,S_1
1777450740.7444701,1964,0,S_1
1777450740.746592,2369,0,S_1
1777450740.7504032,2382,0,S_1
1777450740.753075,2228,0,S_1
1777450740.755628,2029,0,S_1
1777450740.75849,1781,0,S_1
1777450740.76338,2010,0,S_1
1777450740.7664971,2204,0,S_1
1777450740.7683918,1978,0,S_1
1777450740.771522,2032,0,S_1
1777450740.773452,2030,0,S_1
1777450740.7764878,1956,0,S_1
1777450740.779451,2103,0,S_1
1777450740.7849028,2216,0,S_1
1777450740.785573,2230,0,S_1
1777450740.789238,1965,0,S_1
1777450740.792612,1732,0,S_1
1777450740.794496,2091,0,S_1
1777450740.797514,2307,0,S_1
1777450740.800491,2119,0,S_1
1777450740.805589,1929,0,S_1
1777450740.8076081,1673,0,S_1
1777450740.809922,1746,0,S_1
1777450740.81365,2207,0,S_1
1777450740.815488,2337,0,S_1
1777450740.81848,2223,0,S_1
1777450740.821494,2193,0,S_1
1777450740.826487,1798,0,S_1
1777450740.828448,1778,0,S_1
1777450740.830517,2337,0,S_1
1777450740.834524,2441,0,S_1
1777450740.836481,2166,0,S_1
1777450740.839463,1798,0,S_1
1777450740.842457,1800,0,S_1
1777450740.847706,2191,0,S_1
1777450740.849679,2262,0,S_1
1777450740.851722,2185,0,S_1
1777450740.855962,1973,0,S_1
1777450740.857717,1838,0,S_1
1777450740.860487,1963,0,S_1
1777450740.863488,2147,0,S_1
1777450740.8684192,2187,0,S_1
1777450740.87064,2095,0,S_1
1777450740.8724911,1861,0,S_1
1777450740.876559,1818,0,S_1
1777450740.8784919,2047,0,S_1
1777450740.88146,2203,0,S_1
1777450740.884487,2187,0,S_1
1777450740.890205,2040,0,S_1
1777450740.8908658,1859,0,S_1
1777450740.894054,1863,0,S_1
1777450740.896752,2101,0,S_1
1777450740.900446,2229,0,S_1
1777450740.903,2105,0,S_1
1777450740.9055722,1981,0,S_1
1777450740.908486,1833,0,S_1
1777450740.912365,2083,0,S_1
1777450740.9156868,2173,0,S_1
1777450740.920631,2242,0,S_1
1777450740.9206882,2098,0,S_1
1777450740.923535,1846,0,S_1
1777450740.9264598,1900,0,S_1
1777450740.929487,2104,0,S_1
1777450740.935689,2168,0,S_1
1777450740.93644,2171,0,S_1
1777450740.939472,2002,0,S_1
1777450740.9427478,1830,0,S_1
1777450740.944781,1958,0,S_1
1777450740.94749,2172,0,S_1
1777450740.9505012,2243,0,S_1
1777450740.953506,2067,0,S_1
1777450740.960214,1833,0,S_1
1777450740.961034,1906,0,S_1
1777450740.964214,2093,0,S_1
1777450740.965497,2219,0,S_1
1777450740.9689999,2200,0,S_1
1777450740.971745,1972,0,S_1
1777450740.9744918,1843,0,S_1
1777450740.9774652,1988,0,S_1
1777450740.9832199,2158,0,S_1
1777450740.983669,2228,0,S_1
1777450740.9871428,2144,0,S_1
1777450740.991712,1914,0,S_1
1777450740.993588,1881,0,S_1
1777450740.99549,2091,0,S_1
1777450740.998493,2199,0,S_1
1777450741.001481,2162,0,S_1
1777450741.005397,2017,0,S_1
1777450741.009362,1857,0,S_1
1777450741.011604,1942,0,S_1
1777450741.0135522,2147,0,S_1
1777450741.016487,2235,0,S_1
1777450741.0194519,2080,0,S_1
1777450741.0224829,1923,0,S_1
1777450741.026927,1837,0,S_1
1777450741.028797,1998,0,S_1
1777450741.031596,2118,0,S_1
1777450741.035106,2188,0,S_1
1777450741.037869,2122,0,S_1
1777450741.040572,1872,0,S_1
1777450741.043478,1917,0,S_1
1777450741.052093,2139,0,S_1
1777450741.054574,2229,0,S_1
1777450741.055585,2168,0,S_1
1777450741.0596778,1917,0,S_1
1777450741.059943,1891,0,S_1
1777450741.061953,1997,0,S_1
1777450741.064569,2184,0,S_1
1777450741.067468,2175,0,S_1
1777450741.0704918,2105,0,S_1
1777450741.076176,1884,0,S_1
1777450741.0779788,1954,0,S_1
1777450741.080607,2147,0,S_1
1777450741.085545,2227,0,S_1
1777450741.085983,2155,0,S_1
1777450741.0891142,1950,0,S_1
1777450741.096815,1825,0,S_1
1777450741.098403,1932,0,S_1
1777450741.098776,2122,0,S_1
1777450741.100617,2241,0,S_1
1777450741.103957,2110,0,S_1
1777450741.1079628,1855,0,S_1
1777450741.109369,1874,0,S_1
1777450741.112459,2145,0,S_1
1777450741.1153479,2241,0,S_1
1777450741.1220438,2177,0,S_1
1777450741.12407,2036,0,S_1
1777450741.126076,1873,0,S_1
1777450741.131186,1960,0,S_1
1777450741.131593,2147,0,S_1
1777450741.133596,2209,0,S_1
1777450741.1363552,2125,0,S_1
1777450741.143879,1912,0,S_1
1777450741.144175,1829,0,S_1
1777450741.146879,2055,0,S_1
1777450741.149398,2197,0,S_1
1777450741.1517272,2139,0,S_1
1777450741.154565,2041,0,S_1
1777450741.1573691,1870,0,S_1
1777450741.160376,1948,0,S_1
1777450741.167109,2146,0,S_1
1777450741.1675038,2208,0,S_1
1777450741.169448,2119,0,S_1
1777450741.172363,1955,0,S_1
1777450741.17632,1865,0,S_1
1777450741.178321,2030,0,S_1
1777450741.181358,2197,0,S_1
1777450741.184327,2198,0,S_1
1777450741.187359,2061,0,S_1
1777450741.1923368,1833,0,S_1
1777450741.194471,1917,0,S_1
1777450741.196963,2130,0,S_1
1777450741.19956,2235,0,S_1
1777450741.20357,2128,0,S_1
1777450741.205326,1918,0,S_1
1777450741.2083368,1858,0,S_1
1777450741.2113469,2047,0,S_1
1777450741.217525,2201,0,S_1
1777450741.2184498,2193,0,S_1
1777450741.221471,2054,0,S_1
1777450741.223844,1878,0,S_1
1777450741.2273269,1907,0,S_1
1777450741.229419,2131,0,S_1
1777450741.232364,2246,0,S_1
1777450741.235341,2153,0,S_1
1777450741.238554,1984,0,S_1
1777450741.2427468,1846,0,S_1
1777450741.247165,1983,0,S_1
1777450741.248354,2158,0,S_1
1777450741.250804,2206,0,S_1
1777450741.2546701,2106,0,S_1
1777450741.256366,1877,0,S_1
1777450741.2631621,1855,0,S_1
1777450741.263642,2092,0,S_1
1777450741.265886,2206,0,S_1
1777450741.269249,2175,0,S_1
1777450741.2732532,2004,0,S_1
1777450741.2753909,1828,0,S_1
1777450741.277973,1938,0,S_1
1777450741.2805471,2154,0,S_1
1777450741.283366,2168,0,S_1
1777450741.28987,2067,0,S_1
1777450741.290268,1916,0,S_1
1777450741.293437,1904,0,S_1
1777450741.29563,2050,0,S_1
1777450741.299638,2176,0,S_1
1777450741.30175,2174,0,S_1
1777450741.304348,2072,0,S_1
1777450741.309209,1849,0,S_1
1777450741.311931,1938,0,S_1
1777450741.314193,2140,0,S_1
1777450741.319482,2177,0,S_1
1777450741.319765,2099,0,S_1
1777450741.3226671,1947,0,S_1
1777450741.325384,1869,0,S_1
1777450741.328365,2024,0,S_1
1777450741.331383,2170,0,S_1
1777450741.3355782,2199,0,S_1
1777450741.339147,2075,0,S_1
1777450741.341036,1881,0,S_1
1777450741.345213,1908,0,S_1
1777450741.34749,2134,0,S_1
1777450741.349341,2234,0,S_1
1777450741.3575838,2164,0,S_1
1777450741.3593621,1950,0,S_1
1777450741.359516,1856,0,S_1
1777450741.361653,2001,0,S_1
1777450741.36745,2177,0,S_1
1777450741.367742,2206,0,S_1
1777450741.37084,2061,0,S_1
1777450741.3734741,1890,0,S_1
1777450741.376362,1901,0,S_1
1777450741.3793762,2137,0,S_1
1777450741.383803,2214,0,S_1
1777450741.3866181,2157,0,S_1
1777450741.388706,2014,0,S_1
1777450741.394512,1861,0,S_1
1777450741.394832,2006,0,S_1
1777450741.397861,2176,0,S_1
1777450741.400478,2211,0,S_1
1777450741.406089,2098,0,S_1
1777450741.408094,1895,0,S_1
1777450741.410112,1897,0,S_1
1777450741.415754,2070,0,S_1
1777450741.415884,2180,0,S_1
1777450741.4190981,2149,0,S_1
1777450741.421698,1993,0,S_1
1777450741.424408,1847,0,S_1
1777450741.42734,1971,0,S_1
1777450741.4324422,2122,0,S_1
1777450741.435384,2240,0,S_1
1777450741.4379652,2135,0,S_1
1777450741.441325,2050,0,S_1
1777450741.4440582,1831,0,S_1
1777450741.446483,2047,0,S_1
1777450741.448331,2270,0,S_1
1777450741.456645,2244,0,S_1
1777450741.458515,2012,0,S_1
1777450741.458747,1868,0,S_1
1777450741.462178,1923,0,S_1
1777450741.464802,2149,0,S_1
1777450741.4675431,2223,0,S_1
1777450741.4698281,2113,0,S_1
1777450741.47247,1963,0,S_1
1777450741.475353,1814,0,S_1
1777450741.4783459,2036,0,S_1
1777450741.485141,2228,0,S_1
1777450741.488068,2221,0,S_1
1777450741.488364,2036,0,S_1
1777450741.49086,1814,0,S_1
1777450741.496685,1883,0,S_1
1777450741.497078,2199,0,S_1
1777450741.499389,2223,0,S_1
1777450741.5030231,2187,0,S_1
1777450741.508188,1935,0,S_1
1777450741.509953,1807,0,S_1
1777450741.51148,1997,0,S_1
1777450741.519562,2222,0,S_1
1777450741.519763,2224,0,S_1
1777450741.520457,2096,0,S_1
1777450741.523353,1868,0,S_1
1777450741.526366,1886,0,S_1
1777450741.529351,2117,0,S_1
1777450741.532544,2225,0,S_1
1777450741.5398731,2160,0,S_1
1777450741.5402482,2021,0,S_1
1777450741.542719,1891,0,S_1
1777450741.546121,1996,0,S_1
1777450741.548867,2123,0,S_1
1777450741.551211,2232,0,S_1
1777450741.5539541,2136,0,S_1
1777450741.560191,1959,0,S_1
1777450741.5607018,1883,0,S_1
1777450741.56572,2115,0,S_1
1777450741.5670888,2244,0,S_1
1777450741.569,2231,0,S_1
1777450741.571425,2042,0,S_1
1777450741.574646,1846,0,S_1
1777450741.577352,1943,0,S_1
1777450741.580336,2180,0,S_1
1777450741.5833359,2255,0,S_1
1777450741.5887392,2101,0,S_1
1777450741.5913432,1901,0,S_1
1777450741.593935,1865,0,S_1
1777450741.595723,2082,0,S_1
1777450741.599581,2227,0,S_1
1777450741.602104,2214,0,S_1
1777450741.604667,2050,0,S_1
1777450741.610168,1870,0,S_1
1777450741.611021,1927,0,S_1
1777450741.613408,2148,0,S_1
1777450741.616637,2207,0,S_1
1777450741.6208708,2118,0,S_1
1777450741.62321,1959,0,S_1
1777450741.6257842,1852,0,S_1
1777450741.628339,2040,0,S_1
1777450741.631234,2168,0,S_1
1777450741.6377332,2209,0,S_1
1777450741.638206,2069,0,S_1
1777450741.641761,1847,0,S_1
1777450741.643927,1917,0,S_1
1777450741.6480188,2129,0,S_1
1777450741.65016,2187,0,S_1
1777450741.65279,2145,0,S_1
1777450741.658441,1961,0,S_1
1777450741.658554,1869,0,S_1
1777450741.662397,1990,0,S_1
1777450741.664583,2171,0,S_1
1777450741.668111,2164,0,S_1
1777450741.670312,2069,0,S_1
1777450741.673206,1926,0,S_1
1777450741.676214,1951,0,S_1
1777450741.6792362,2104,0,S_1
1777450741.683478,2171,0,S_1
1777450741.6858392,2131,0,S_1
1777450741.688641,2003,0,S_1
1777450741.692916,1936,0,S_1
1777450741.694944,2015,0,S_1
1777450741.69761,2109,0,S_1
1777450741.7002392,2144,0,S_1
1777450741.703232,2058,0,S_1
1777450741.708512,1921,0,S_1
1777450741.710793,1932,0,S_1
1777450741.713069,2079,0,S_1
1777450741.716109,2131,0,S_1
1777450741.7183082,2108,0,S_1
1777450741.721232,2005,0,S_1
1777450741.7242281,1901,0,S_1
1777450741.727233,1988,0,S_1
1777450741.73025,2102,0,S_1
1777450741.734079,2154,0,S_1
1777450741.7365298,2067,0,S_1
1777450741.739938,1949,0,S_1
1777450741.743725,1922,0,S_1
1777450741.745905,2071,0,S_1
1777450741.748459,2148,0,S_1
1777450741.75119,2125,0,S_1
1777450741.7541811,2018,0,S_1
1777450741.759221,1903,0,S_1
1777450741.7648058,1980,0,S_1
1777450741.765577,2125,0,S_1
1777450741.76735,2135,0,S_1
1777450741.769852,2073,0,S_1
1777450741.772751,1992,0,S_1
1777450741.775331,1919,0,S_1
1777450741.7803159,2053,0,S_1
1777450741.782581,2158,0,S_1
1777450741.78482,2119,0,S_1
1777450741.787782,2047,0,S_1
1777450741.791693,1928,0,S_1
1777450741.793207,1969,0,S_1
1777450741.796196,2105,0,S_1
1777450741.7991931,2181,0,S_1
1777450741.804671,2098,0,S_1
1777450741.8053691,1982,0,S_1
1777450741.80894,1930,0,S_1
1777450741.812035,2057,0,S_1
1777450741.814281,2126,0,S_1
1777450741.817386,2142,0,S_1
1777450741.820195,2042,0,S_1
1777450741.823222,1923,0,S_1
1777450741.828813,1949,0,S_1
1777450741.8294988,2082,0,S_1
1777450741.832982,2139,0,S_1
1777450741.837638,2115,0,S_1
1777450741.8393128,1991,0,S_1
1777450741.841878,1921,0,S_1
1777450741.8444421,1992,0,S_1
1777450741.847202,2125,0,S_1
1777450741.852057,2135,0,S_1
1777450741.8544068,2063,0,S_1
1777450741.8565,1919,0,S_1
1777450741.861192,1936,0,S_1
1777450741.863113,2074,0,S_1
1777450741.8656719,2148,0,S_1
1777450741.868238,2105,0,S_1
1777450741.871236,1998,0,S_1
1777450741.87566,1891,0,S_1
1777450741.8779368,1998,0,S_1
1777450741.8809721,2123,0,S_1
1777450741.8847182,2132,0,S_1
1777450741.8866282,2080,0,S_1
1777450741.88923,1938,0,S_1
1777450741.892239,1906,0,S_1
1777450741.895249,2073,0,S_1
1777450741.899573,2163,0,S_1
1777450741.90146,2143,0,S_1
1777450741.904727,2030,0,S_1
1777450741.908282,1898,0,S_1
1777450741.9103382,1962,0,S_1
1777450741.913235,2121,0,S_1
1777450741.9162009,2162,0,S_1
1777450741.92242,2113,0,S_1
1777450741.923114,1978,0,S_1
1777450741.9252548,1918,0,S_1
1777450741.9284182,2027,0,S_1
1777450741.931915,2147,0,S_1
1777450741.934749,2135,0,S_1
1777450741.937321,2023,0,S_1
1777450741.9401002,1902,0,S_1
1777450741.946368,1956,0,S_1
1777450741.947346,2135,0,S_1
1777450741.950374,2170,0,S_1
1777450741.953336,2089,0,S_1
1777450741.955318,1965,0,S_1
1777450741.958122,1900,0,S_1
1777450741.96108,2021,0,S_1
1777450741.964107,2189,0,S_1
1777450741.969271,2199,0,S_1
1777450741.971214,2084,0,S_1
1777450741.97419,1889,0,S_1
1777450741.977442,1897,0,S_1
1777450741.9794931,2100,0,S_1
1777450741.982084,2216,0,S_1
1777450741.985097,2163,0,S_1
1777450741.991189,1990,0,S_1
1777450741.9919019,1839,0,S_1
1777450741.995067,1926,0,S_1
1777450741.9981692,2138,0,S_1
1777450742.0001001,2214,0,S_1
1777450742.003111,2084,0,S_1
1777450742.006103,1876,0,S_1
1777450742.009094,1864,0,S_1
1777450742.0138938,2062,0,S_1
1777450742.016124,2173,0,S_1
1777450742.018229,2155,0,S_1
1777450742.022379,2014,0,S_1
1777450742.02435,1878,0,S_1
1777450742.0270898,1944,0,S_1
1777450742.030095,2142,0,S_1
1777450742.033175,2185,0,S_1
1777450742.036878,2117,0,S_1
1777450742.0404758,1948,0,S_1
1777450742.042561,1886,0,S_1
1777450742.0455098,2048,0,S_1
1777450742.048265,2181,0,S_1
1777450742.051106,2151,0,S_1
1777450742.054081,2026,0,S_1
1777450742.059774,1876,0,S_1
1777450742.0604439,1977,0,S_1
1777450742.063143,2142,0,S_1
1777450742.067643,2179,0,S_1
1777450742.0695639,2112,0,S_1
1777450742.07213,1951,0,S_1
1777450742.075124,1893,0,S_1
1777450742.078082,2056,0,S_1
1777450742.082164,2154,0,S_1
1777450742.084366,2169,0,S_1
1777450742.087483,2075,0,S_1
1777450742.0909498,1880,0,S_1
1777450742.0937002,1944,0,S_1
1777450742.096255,2093,0,S_1
1777450742.0991051,2219,0,S_1
1777450742.1048372,2146,0,S_1
1777450742.105897,1989,0,S_1
1777450742.1088629,1877,0,S_1
1777450742.1118112,2021,0,S_1
1777450742.1155179,2156,0,S_1
1777450742.117075,2199,0,S_1
1777450742.120102,2089,0,S_1
1777450742.123117,1912,0,S_1
1777450742.127862,1915,0,S_1
1777450742.130027,2097,0,S_1
1777450742.132119,2214,0,S_1
1777450742.136328,2166,0,S_1
1777450742.13827,2022,0,S_1
1777450742.141071,1861,0,S_1
1777450742.144091,1982,0,S_1
1777450742.151268,2158,0,S_1
1777450742.1532328,2186,0,S_1
1777450742.155284,2098,0,S_1
1777450742.1579242,1924,0,S_1
1777450742.159824,1897,0,S_1
1777450742.162604,2077,0,S_1
1777450742.165154,2201,0,S_1
1777450742.168072,2177,0,S_1
1777450742.1746922,2033,0,S_1
1777450742.17505,1888,0,S_1
1777450742.1778681,2009,0,S_1
1777450742.181403,2167,0,S_1
1777450742.183306,2186,0,S_1
1777450742.186079,2095,0,S_1
1777450742.189078,1943,0,S_1
1777450742.192076,1866,0,S_1
1777450742.198175,2064,0,S_1
1777450742.199241,2173,0,S_1
1777450742.202154,2163,0,S_1
1777450742.2065,2024,0,S_1
1777450742.208401,1905,0,S_1
1777450742.210079,1948,0,S_1
1777450742.213104,2126,0,S_1
1777450742.216071,2194,0,S_1
1777450742.220425,2151,0,S_1
1777450742.2222028,1965,0,S_1
1777450742.2253618,1886,0,S_1
1777450742.228174,2018,0,S_1
1777450742.231083,2174,0,S_1
1777450742.234077,2183,0,S_1
1777450742.23708,2046,0,S_1
1777450742.242668,1890,0,S_1
1777450742.243988,1929,0,S_1
1777450742.248093,2133,0,S_1
1777450742.25001,2210,0,S_1
1777450742.25267,2136,0,S_1
1777450742.255105,1984,0,S_1
1777450742.258079,1870,0,S_1
1777450742.264231,2035,0,S_1
1777450742.2643259,2188,0,S_1
1777450742.267235,2204,0,S_1
1777450742.2701728,2080,0,S_1
1777450742.2737842,1935,0,S_1
1777450742.276337,1911,0,S_1
1777450742.279095,2107,0,S_1
1777450742.285186,2185,0,S_1
1777450742.285556,2166,0,S_1
1777450742.2890959,2014,0,S_1
1777450742.292147,1870,0,S_1
1777450742.294079,1968,0,S_1
1777450742.297086,2158,0,S_1
1777450742.3000672,2173,0,S_1
1777450742.303093,2096,0,S_1
1777450742.3076391,1924,0,S_1
1777450742.30966,1898,0,S_1
1777450742.312611,2068,0,S_1
1777450742.315904,2195,0,S_1
1777450742.3185852,2156,0,S_1
1777450742.3211362,2030,0,S_1
1777450742.323947,1892,0,S_1
1777450742.329567,1946,0,S_1
1777450742.3303099,2135,0,S_1
1777450742.3337002,2194,0,S_1
1777450742.336332,2114,0,S_1
1777450742.3399,1941,0,S_1
1777450742.342449,1871,0,S_1
1777450742.3449988,2041,0,S_1
1777450742.347948,2172,0,S_1
1777450742.3524978,2161,0,S_1
1777450742.35463,2062,0,S_1
1777450742.3588312,1912,0,S_1
1777450742.3606389,1966,0,S_1
1777450742.363371,2115,0,S_1
1777450742.3659961,2179,0,S_1
1777450742.368968,2126,0,S_1
1777450742.375155,1966,0,S_1
1777450742.3755488,1868,0,S_1
1777450742.378628,2019,0,S_1
1777450742.381623,2151,0,S_1
1777450742.385149,2190,0,S_1
1777450742.387707,2081,0,S_1
1777450742.3902552,1945,0,S_1
1777450742.3929658,1917,0,S_1
1777450742.397034,2102,0,S_1
1777450742.399495,2221,0,S_1
1777450742.4027672,2150,0,S_1
1777450742.405757,1962,0,S_1
1777450742.408454,1835,0,S_1
1777450742.41101,2041,0,S_1
1777450742.413985,2179,0,S_1
1777450742.419936,2155,0,S_1
1777450742.4206002,2068,0,S_1
1777450742.423373,1920,0,S_1
1777450742.427698,1937,0,S_1
1777450742.429489,2108,0,S_1
1777450742.4320488,2178,0,S_1
1777450742.434984,2165,0,S_1
1777450742.437951,1967,0,S_1
1777450742.441966,1905,0,S_1
1777450742.445224,2024,0,S_1
1777450742.448071,2224,0,S_1
1777450742.450009,2030,0,S_1
1777450742.4530072,2059,0,S_1
1777450742.455949,2152,0,S_1
1777450742.458963,1842,0,S_1
1777450742.4643579,2025,0,S_1
1777450742.465044,2159,0,S_1
1777450742.46813,2322,0,S_1
1777450742.4725602,2028,0,S_1
1777450742.474294,1882,0,S_1
1777450742.4769652,1960,0,S_1
1777450742.479948,2259,0,S_1
1777450742.4860249,2116,0,S_1
1777450742.48608,2015,0,S_1
1777450742.4900448,1933,0,S_1
1777450742.4928708,1924,0,S_1
1777450742.496089,2059,0,S_1
1777450742.497976,2258,0,S_1
1777450742.500973,2203,0,S_1
1777450742.503964,1994,0,S_1
1777450742.508289,1985,0,S_1
1777450742.51047,1933,0,S_1
1777450742.5136378,2169,0,S_1
1777450742.516505,2222,0,S_1
1777450742.519168,2081,0,S_1
1777450742.52194,1902,0,S_1
1777450742.524948,1841,0,S_1
1777450742.531021,1938,0,S_1
1777450742.5314078,2222,0,S_1
1777450742.535151,2197,0,S_1
1777450742.537676,2091,0,S_1
1777450742.5408351,1880,0,S_1
1777450742.5434,1865,0,S_1
1777450742.545954,2108,0,S_1
1777450742.548942,2171,0,S_1
1777450742.553133,2142,0,S_1
1777450742.5551958,2004,0,S_1
1777450742.5581381,1849,0,S_1
1777450742.5614212,1970,0,S_1
1777450742.564139,2112,0,S_1
1777450742.566943,2144,0,S_1
1777450742.5699751,2104,0,S_1
1777450742.579954,1935,0,S_1
1777450742.5800781,1869,0,S_1
1777450742.580699,2029,0,S_1
1777450742.584214,2174,0,S_1
1777450742.586197,2109,0,S_1
1777450742.587956,1965,0,S_1
1777450742.590992,1933,0,S_1
1777450742.593963,2042,0,S_1
1777450742.5983129,2116,0,S_1
1777450742.600555,2126,0,S_1
1777450742.604934,2036,0,S_1
1777450742.608334,2002,0,S_1
1777450742.608983,1971,0,S_1
1777450742.611934,2114,0,S_1
1777450742.615443,2140,0,S_1
1777450742.6208699,2084,0,S_1
1777450742.6211991,2009,0,S_1
1777450742.624325,1847,0,S_1
1777450742.6284869,2078,0,S_1
1777450742.630155,2252,0,S_1
1777450742.6329842,2059,0,S_1
1777450742.636002,1890,0,S_1
1777450742.6416142,1941,0,S_1
1777450742.642349,1991,0,S_1
1777450742.645452,2010,0,S_1
1777450742.64866,2194,0,S_1
1777450742.65202,2202,0,S_1
1777450742.65459,2072,0,S_1
1777450742.657151,1949,0,S_1
1777450742.6599839,1939,0,S_1
1777450742.665364,2079,0,S_1
1777450742.666878,2125,0,S_1
1777450742.6698759,2004,0,S_1
1777450742.6732259,1613,0,S_1
1777450742.675045,2059,0,S_1
1777450742.677939,2248,0,S_1
1777450742.680985,2015,0,S_1
1777450742.687024,2184,0,S_1
1777450742.688,2125,0,S_1
1777450742.691514,2124,0,S_1
1777450742.695449,1975,0,S_1
1777450742.6974149,2286,0,S_1
1777450742.6989481,2210,0,S_1
1777450742.701972,2108,0,S_1
1777450742.704951,2058,0,S_1
1777450742.7102232,1864,0,S_1
1777450742.712148,1937,0,S_1
1777450742.713998,2119,0,S_1
1777450742.718325,2171,0,S_1
1777450742.7202308,2119,0,S_1
1777450742.722972,1863,0,S_1
1777450742.72597,1843,0,S_1
1777450742.7321699,2086,0,S_1
1777450742.7325928,2160,0,S_1
1777450742.7353978,2170,0,S_1
1777450742.739784,2025,0,S_1
1777450742.741277,1901,0,S_1
1777450742.743865,1990,0,S_1
1777450742.746857,2137,0,S_1
1777450742.749855,2158,0,S_1
1777450742.75378,2097,0,S_1
1777450742.756866,1864,0,S_1
1777450742.759895,1861,0,S_1
1777450742.7619321,2040,0,S_1
1777450742.7648761,2153,0,S_1
1777450742.7678561,2219,0,S_1
1777450742.771658,2063,0,S_1
1777450742.775742,1865,0,S_1
1777450742.7773042,1984,0,S_1
1777450742.7815711,2131,0,S_1
1777450742.7832901,2211,0,S_1
1777450742.785866,2058,0,S_1
1777450742.7888691,1993,0,S_1
1777450742.791856,1906,0,S_1
1777450742.79709,2021,0,S_1
1777450742.799192,2140,0,S_1
1777450742.801377,2155,0,S_1
1777450742.805364,2028,0,S_1
1777450742.807277,1857,0,S_1
1777450742.8098738,1887,0,S_1
1777450742.812883,2078,0,S_1
1777450742.819015,2180,0,S_1
1777450742.819944,2127,0,S_1
1777450742.8229718,1948,0,S_1
1777450742.8252559,1791,0,S_1
1777450742.828851,2004,0,S_1
1777450742.831412,2185,0,S_1
1777450742.8339698,2211,0,S_1
1777450742.836857,2062,0,S_1
1777450742.841952,1857,0,S_1
1777450742.843536,1881,0,S_1
1777450742.846484,2073,0,S_1
1777450742.8496692,2191,0,S_1
1777450742.8523479,2206,0,S_1
1777450742.854918,1986,0,S_1
1777450742.857834,1863,0,S_1
1777450742.863549,1950,0,S_1
1777450742.863926,2082,0,S_1
1777450742.867569,2216,0,S_1
1777450742.871225,2125,0,S_1
1777450742.8730571,1955,0,S_1
1777450742.875846,1907,0,S_1
1777450742.87885,2043,0,S_1
1777450742.881943,2149,0,S_1
1777450742.885391,2182,0,S_1
1777450742.889227,2071,0,S_1
1777450742.890932,1848,0,S_1
1777450742.89392,1901,0,S_1
1777450742.896817,2078,0,S_1
1777450742.8998568,2302,0,S_1
1777450742.902854,2297,0,S_1
1777450742.9073339,1969,0,S_1
1777450742.909313,1842,0,S_1
1777450742.9124851,2102,0,S_1
1777450742.915325,2243,0,S_1
1777450742.918095,2213,0,S_1
1777450742.920924,2060,0,S_1
1777450742.9238558,1837,0,S_1
1777450742.930044,1870,0,S_1
1777450742.930735,2072,0,S_1
1777450742.933794,2135,0,S_1
1777450742.936376,2104,0,S_1
1777450742.940184,1920,0,S_1
1777450742.941818,1982,0,S_1
1777450742.944851,2173,0,S_1
1777450742.9478269,2192,0,S_1
1777450742.953804,2171,0,S_1
1777450742.955057,2055,0,S_1
1777450742.957248,1890,0,S_1
1777450742.961474,1943,0,S_1
1777450742.963352,2110,0,S_1
1777450742.965923,2192,0,S_1
1777450742.968821,2115,0,S_1
1777450742.971853,1962,0,S_1
1777450742.977341,1850,0,S_1
1777450742.983518,1965,0,S_1
1777450742.985728,2168,0,S_1
1777450742.98787,2244,0,S_1
1777450742.987977,2118,0,S_1
1777450742.9898229,1884,0,S_1
1777450742.992827,1936,0,S_1
1777450742.9958248,2137,0,S_1
1777450743.00162,2203,0,S_1
1777450743.003595,2107,0,S_1
1777450743.006308,2022,0,S_1
1777450743.0089118,1889,0,S_1
1777450743.011332,1957,0,S_1
1777450743.01382,2172,0,S_1
1777450743.0168672,2183,0,S_1
1777450743.021324,2094,0,S_1
1777450743.023267,1898,0,S_1
1777450743.027929,1926,0,S_1
1777450743.0299299,2067,0,S_1
1777450743.032078,2214,0,S_1
1777450743.034842,2209,0,S_1
1777450743.037833,2003,0,S_1
1777450743.040939,1845,0,S_1
1777450743.0456278,1972,0,S_1
1777450743.04755,2162,0,S_1
1777450743.054034,2195,0,S_1
1777450743.054579,2069,0,S_1
1777450743.056381,1942,0,S_1
1777450743.059065,1764,0,S_1
1777450743.061836,2078,0,S_1
1777450743.064826,2314,0,S_1
1777450743.0701811,2200,0,S_1
1777450743.071685,2047,0,S_1
1777450743.076715,1885,0,S_1
1777450743.0790179,1963,0,S_1
1777450743.081097,2174,0,S_1
1777450743.0828428,2199,0,S_1
1777450743.085835,2123,0,S_1
1777450743.088843,1967,0,S_1
1777450743.0970361,1850,0,S_1
1777450743.0984042,1998,0,S_1
1777450743.098608,2159,0,S_1
1777450743.101988,2175,0,S_1
1777450743.1043441,2054,0,S_1
1777450743.107035,1898,0,S_1
1777450743.109844,1943,0,S_1
1777450743.112725,2125,0,S_1
1777450743.11977,2194,0,S_1
1777450743.120032,2118,0,S_1
1777450743.122365,2027,0,S_1
1777450743.127808,1907,0,S_1
1777450743.1280692,2030,0,S_1
1777450743.13085,2120,0,S_1
1777450743.13373,2190,0,S_1
1777450743.136755,2134,0,S_1
1777450743.139745,1920,0,S_1
1777450743.144146,1921,0,S_1
1777450743.1468081,2091,0,S_1
1777450743.1495712,2184,0,S_1
1777450743.155039,2174,0,S_1
1777450743.155255,1997,0,S_1
1777450743.158347,1898,0,S_1
1777450743.1607811,1973,0,S_1
1777450743.1660538,2145,0,S_1
1777450743.168319,2180,0,S_1
1777450743.170879,2064,0,S_1
1777450743.176142,1886,0,S_1
1777450743.176428,1859,0,S_1
1777450743.178695,2071,0,S_1
1777450743.181688,2204,0,S_1
1777450743.184706,2187,0,S_1
1777450743.187726,2009,0,S_1
1777450743.195103,1872,0,S_1
1777450743.195304,1969,0,S_1
1777450743.1975622,2179,0,S_1
1777450743.200892,2197,0,S_1
1777450743.202971,2106,0,S_1
1777450743.205915,1948,0,S_1
1777450743.208725,1881,0,S_1
1777450743.21382,2073,0,S_1
1777450743.2160141,2181,0,S_1
1777450743.2182531,2174,0,S_1
1777450743.2213209,2026,0,S_1
1777450743.2255192,1905,0,S_1
1777450743.226819,1961,0,S_1
1777450743.2297301,2149,0,S_1
1777450743.2327192,2190,0,S_1
1777450743.2403772,2115,0,S_1
1777450743.2415822,1948,0,S_1
1777450743.2417889,1879,0,S_1
1777450743.245492,2040,0,S_1
1777450743.249024,2177,0,S_1
1777450743.250747,2177,0,S_1
1777450743.253729,2070,0,S_1
1777450743.259464,1897,0,S_1
1777450743.260598,1922,0,S_1
1777450743.2637599,2137,0,S_1
1777450743.2659578,2197,0,S_1
1777450743.2693539,2116,0,S_1
1777450743.271738,1988,0,S_1
1777450743.27473,1891,0,S_1
1777450743.277739,2025,0,S_1
1777450743.280697,2154,0,S_1
1777450743.2873769,2173,0,S_1
1777450743.2879229,2083,0,S_1
1777450743.29129,1910,0,S_1
1777450743.293049,1897,0,S_1
1777450743.297098,2067,0,S_1
1777450743.29935,2186,0,S_1
1777450743.301907,2149,0,S_1
1777450743.3082361,1994,0,S_1
1777450743.30944,1873,0,S_1
1777450743.312053,1988,0,S_1
1777450743.3138509,2163,0,S_1
1777450743.3184152,2169,0,S_1
1777450743.320825,2089,0,S_1
1777450743.3226979,1933,0,S_1
1777450743.3257222,1902,0,S_1
1777450743.3287098,2093,0,S_1
1777450743.335975,2200,0,S_1
1777450743.3365288,2185,0,S_1
1777450743.338376,2016,0,S_1
1777450743.341185,1851,0,S_1
1777450743.3437598,1979,0,S_1
1777450743.348119,2148,0,S_1
1777450743.349719,2204,0,S_1
1777450743.357436,2108,0,S_1
1777450743.359431,1946,0,S_1
1777450743.359596,1879,0,S_1
1777450743.361967,2036,0,S_1
1777450743.364944,2183,0,S_1
1777450743.36938,2202,0,S_1
1777450743.370721,2039,0,S_1
1777450743.373725,1849,0,S_1
1777450743.3767219,1925,0,S_1
1777450743.38343,2175,0,S_1
1777450743.3843641,2167,0,S_1
1777450743.386878,2131,0,S_1
1777450743.388931,1946,0,S_1
1777450743.392504,1906,0,S_1
1777450743.39479,2074,0,S_1
1777450743.3980749,2170,0,S_1
1777450743.400728,2196,0,S_1
1777450743.406931,2087,0,S_1
1777450743.4095628,1882,0,S_1
1777450743.409794,1944,0,S_1
1777450743.4180532,2061,0,S_1
1777450743.418289,2238,0,S_1
1777450743.418768,2225,0,S_1
1777450743.4217012,2026,0,S_1
1777450743.424727,1871,0,S_1
1777450743.4277089,2000,0,S_1
1777450743.430701,2138,0,S_1
1777450743.4388669,2225,0,S_1
1777450743.439117,2107,0,S_1
1777450743.44082,1855,0,S_1
1777450743.442772,1871,0,S_1
1777450743.447229,2144,0,S_1
1777450743.449821,2176,0,S_1
1777450743.45168,2190,0,S_1
1777450743.459174,2019,0,S_1
1777450743.461489,1894,0,S_1
1777450743.46184,2026,0,S_1
1777450743.466163,2165,0,S_1
1777450743.467794,2211,0,S_1
1777450743.470339,2098,0,S_1
1777450743.472812,1905,0,S_1
1777450743.4757,1877,0,S_1
1777450743.478691,2085,0,S_1
1777450743.4817002,2243,0,S_1
1777450743.487212,2200,0,S_1
1777450743.4878552,1979,0,S_1
1777450743.49281,1911,0,S_1
1777450743.4953349,2011,0,S_1
1777450743.497483,2149,0,S_1
1777450743.5001228,2227,0,S_1
1777450743.5027158,2118,0,S_1
1777450743.5062451,1949,0,S_1
1777450743.5128682,1950,0,S_1
1777450743.514695,2117,0,S_1
1777450743.5150988,2215,0,S_1
1777450743.5192032,2215,0,S_1
1777450743.520867,2111,0,S_1
1777450743.52543,1920,0,S_1
1777450743.526832,1978,0,S_1
1777450743.5295842,2120,0,S_1
1777450743.5325792,2221,0,S_1
1777450743.535829,2138,0,S_1
1777450743.5433831,1995,0,S_1
1777450743.5435321,1900,0,S_1
1777450743.54658,2020,0,S_1
1777450743.549731,2161,0,S_1
1777450743.552119,2182,0,S_1
1777450743.554336,2085,0,S_1
1777450743.5569239,1909,0,S_1
1777450743.564173,1902,0,S_1
1777450743.5663009,2102,0,S_1
1777450743.566437,2186,0,S_1
1777450743.569622,2138,0,S_1
1777450743.571765,1980,0,S_1
1777450743.5761511,1869,0,S_1
1777450743.577609,2018,0,S_1
1777450743.580608,2162,0,S_1
1777450743.5843468,2185,0,S_1
1777450743.591145,2069,0,S_1
1777450743.59164,1901,0,S_1
1777450743.593706,1914,0,S_1
1777450743.595744,2087,0,S_1
1777450743.601349,2199,0,S_1
1777450743.60166,2155,0,S_1
1777450743.6046138,2020,0,S_1
1777450743.6076002,1864,0,S_1
1777450743.612622,1980,0,S_1
1777450743.6148071,2172,0,S_1
1777450743.616731,2199,0,S_1
1777450743.6199198,2067,0,S_1
1777450743.623878,1911,0,S_1
1777450743.6256058,1895,0,S_1
1777450743.628601,2061,0,S_1
1777450743.631575,2183,0,S_1
1777450743.6371741,2153,0,S_1
1777450743.63763,2024,0,S_1
1777450743.641531,1866,0,S_1
1777450743.6447208,1962,0,S_1
1777450743.646731,2145,0,S_1
1777450743.649705,2210,0,S_1
1777450743.652599,2114,0,S_1
1777450743.655602,1942,0,S_1
1777450743.658634,1881,0,S_1
1777450743.662795,2055,0,S_1
1777450743.6649659,2173,0,S_1
1777450743.668003,2186,0,S_1
1777450743.671915,2049,0,S_1
1777450743.674013,1882,0,S_1
1777450743.6765928,1954,0,S_1
1777450743.679616,2131,0,S_1
1777450743.682594,2195,0,S_1
1777450743.6877928,2120,0,S_1
1777450743.689881,1984,0,S_1
1777450743.6917791,1873,0,S_1
1777450743.6950111,2015,0,S_1
1777450743.6987982,2156,0,S_1
1777450743.700589,2172,0,S_1
1777450743.703636,2045,0,S_1
1777450743.7066061,1904,0,S_1
1777450743.7126982,1937,0,S_1
1777450743.7128162,2120,0,S_1
1777450743.716851,2193,0,S_1
1777450743.719281,2153,0,S_1
1777450743.722384,1984,0,S_1
1777450743.725183,1875,0,S_1
1777450743.7277389,2027,0,S_1
1777450743.73062,2148,0,S_1
1777450743.736831,2194,0,S_1
1777450743.7369332,2087,0,S_1
1777450743.740949,1897,0,S_1
1777450743.742909,1884,0,S_1
1777450743.74602,2100,0,S_1
1777450743.7488692,2179,0,S_1
1777450743.751613,2136,0,S_1
1777450743.754572,2011,0,S_1
1777450743.7607,1891,0,S_1
1777450743.761452,1982,0,S_1
1777450743.764847,2159,0,S_1
1777450743.766988,2183,0,S_1
1777450743.7700832,2107,0,S_1
1777450743.77284,1927,0,S_1
1777450743.7755709,1902,0,S_1
1777450743.778561,2074,0,S_1
1777450743.7848341,2169,0,S_1
1777450743.7855308,2155,0,S_1
1777450743.7885492,2020,0,S_1
1777450743.791737,1869,0,S_1
1777450743.793705,1974,0,S_1
1777450743.796586,2139,0,S_1
1777450743.7995698,2209,0,S_1
1777450743.80259,2064,0,S_1
1777450743.808658,1951,0,S_1
1777450743.809062,1885,0,S_1
1777450743.812363,2036,0,S_1
1777450743.815277,2152,0,S_1
1777450743.817727,2159,0,S_1
1777450743.820756,2039,0,S_1
1777450743.823603,1880,0,S_1
1777450743.826574,1954,0,S_1
1777450743.833088,2145,0,S_1
1777450743.8362591,2210,0,S_1
1777450743.836509,2119,0,S_1
1777450743.840032,1962,0,S_1
1777450743.844317,1880,0,S_1
1777450743.844872,2051,0,S_1
1777450743.847717,2168,0,S_1
1777450743.8507352,2159,0,S_1
1777450743.855785,2063,0,S_1
1777450743.8599281,1891,0,S_1
1777450743.8608708,1917,0,S_1
1777450743.8631659,2105,0,S_1
1777450743.867452,2192,0,S_1
1777450743.868887,2148,0,S_1
1777450743.871586,1987,0,S_1
1777450743.874586,1861,0,S_1
1777450743.881307,2002,0,S_1
1777450743.8814662,2145,0,S_1
1777450743.885296,2175,0,S_1
1777450743.888819,2097,0,S_1
1777450743.890964,1878,0,S_1
1777450743.893128,1900,0,S_1
1777450743.895831,2090,0,S_1
1777450743.901936,2185,0,S_1
1777450743.905521,2152,0,S_1
1777450743.906691,2013,0,S_1
1777450743.910992,1887,0,S_1
1777450743.912979,1993,0,S_1
1777450743.91364,2151,0,S_1
1777450743.916557,2181,0,S_1
1777450743.920307,2109,0,S_1
1777450743.922822,1921,0,S_1
1777450743.9276102,1897,0,S_1
1777450743.929865,2072,0,S_1
1777450743.931962,2176,0,S_1
1777450743.9372602,2162,0,S_1
1777450743.937977,2030,0,S_1
1777450743.940866,1870,0,S_1
1777450743.9435751,1968,0,S_1
1777450743.948682,2146,0,S_1
1777450743.950592,2196,0,S_1
1777450743.953205,2098,0,S_1
1777450743.958333,1942,0,S_1
1777450743.95881,1851,0,S_1
1777450743.9615932,2044,0,S_1
1777450743.96457,2172,0,S_1
1777450743.967594,2173,0,S_1
1777450743.9738839,2046,0,S_1
1777450743.9747279,1874,0,S_1
1777450743.9766169,1939,0,S_1
1777450743.979797,2148,0,S_1
1777450743.9832,2184,0,S_1
1777450743.985984,2130,0,S_1
1777450743.988533,1964,0,S_1
1777450743.991432,1892,0,S_1
1777450743.9974568,2017,0,S_1
1777450743.997866,2162,0,S_1
1777450744.001493,2174,0,S_1
1777450744.004645,2054,0,S_1
1777450744.0066419,1900,0,S_1
1777450744.0094879,1902,0,S_1
1777450744.01245,2104,0,S_1
1777450744.015476,2197,0,S_1
1777450744.02125,2127,0,S_1
1777450744.0216231,1984,0,S_1
1777450744.025268,1904,0,S_1
1777450744.028233,1963,0,S_1
1777450744.0304918,2145,0,S_1
1777450744.033458,2179,0,S_1
1777450744.03648,2097,0,S_1
1777450744.0394628,1901,0,S_1
1777450744.0449312,1899,0,S_1
1777450744.0469499,2099,0,S_1
1777450744.0490031,2192,0,S_1
1777450744.053746,2178,0,S_1
1777450744.05575,2014,0,S_1
1777450744.057471,1898,0,S_1
1777450744.060459,1993,0,S_1
1777450744.0634398,2148,0,S_1
1777450744.069303,2212,0,S_1
1777450744.071148,2100,0,S_1
1777450744.0729442,1912,0,S_1
1777450744.0777988,1885,0,S_1
1777450744.079746,2076,0,S_1
1777450744.0814762,2187,0,S_1
1777450744.084476,2170,0,S_1
1777450744.087475,2023,0,S_1
1777450744.0926762,1853,0,S_1
1777450744.0948858,1962,0,S_1
1777450744.0965629,2115,0,S_1
1777450744.0995772,2168,0,S_1
1777450744.103025,2111,0,S_1
1777450744.105609,1949,0,S_1
1777450744.1084769,1854,0,S_1
1777450744.11144,2047,0,S_1
1777450744.116301,2167,0,S_1
1777450744.118346,2169,0,S_1
1777450744.1214771,2053,0,S_1
1777450744.124714,1886,0,S_1
1777450744.1266491,1951,0,S_1
1777450744.129472,2130,0,S_1
1777450744.132482,2189,0,S_1
1777450744.139277,2131,0,S_1
1777450744.140681,1972,0,S_1
1777450744.142663,1889,0,S_1
1777450744.14689,2025,0,S_1
1777450744.1484969,2157,0,S_1
1777450744.151103,2200,0,S_1
1777450744.153728,2092,0,S_1
1777450744.15647,1881,0,S_1
1777450744.161247,1934,0,S_1
1777450744.163275,2155,0,S_1
1777450744.166223,2193,0,S_1
1777450744.16946,2153,0,S_1
1777450744.171484,1971,0,S_1
1777450744.1744761,1850,0,S_1
1777450744.17745,1991,0,S_1
1777450744.1804621,2151,0,S_1
1777450744.185951,2183,0,S_1
1777450744.187367,2054,0,S_1
1777450744.1904252,1885,0,S_1
1777450744.193702,1904,0,S_1
1777450744.195738,2077,0,S_1
1777450744.1984582,2178,0,S_1
1777450744.201448,2133,0,S_1
1777450744.207968,1992,0,S_1
1777450744.208929,1881,0,S_1
1777450744.211613,1941,0,S_1
1777450744.2136278,2143,0,S_1
1777450744.2166002,2171,0,S_1
1777450744.2194319,2086,0,S_1
1777450744.222469,1904,0,S_1
1777450744.2254431,1879,0,S_1
1777450744.2311308,2076,0,S_1
1777450744.231822,2195,0,S_1
1777450744.2347322,2149,0,S_1
1777450744.239124,2004,0,S_1
1777450744.2409909,1885,0,S_1
1777450744.243546,1947,0,S_1
1777450744.246472,2124,0,S_1
1777450744.252702,2197,0,S_1
1777450744.25376,2109,0,S_1
1777450744.2554939,1932,0,S_1
1777450744.258754,1850,0,S_1
1777450744.261767,2067,0,S_1
1777450744.26452,2158,0,S_1
1777450744.267466,2202,0,S_1
1777450744.270445,2077,0,S_1
1777450744.2761862,1859,0,S_1
1777450744.2765381,1923,0,S_1
1777450744.279872,2159,0,S_1
1777450744.2842612,2236,0,S_1
1777450744.286458,2110,0,S_1
1777450744.2890089,1983,0,S_1
1777450744.291574,1876,0,S_1
1777450744.294463,2076,0,S_1
1777450744.2986088,2192,0,S_1
1777450744.300766,2169,0,S_1
1777450744.303883,2089,0,S_1
1777450744.307216,1950,0,S_1
1777450744.309973,1895,0,S_1
1777450744.312526,2143,0,S_1
1777450744.315472,2198,0,S_1
1777450744.3211699,2156,0,S_1
1777450744.3221738,2034,0,S_1
1777450744.324875,1871,0,S_1
1777450744.329509,1979,0,S_1
1777450744.331435,2173,0,S_1
1777450744.3339908,2217,0,S_1
1777450744.336546,2078,0,S_1
1777450744.339469,1860,0,S_1
1777450744.343764,1919,0,S_1
1777450744.345591,2084,0,S_1
1777450744.348902,2233,0,S_1
1777450744.35197,2172,0,S_1
1777450744.354694,1971,0,S_1
1777450744.357506,1891,0,S_1
1777450744.3604429,2003,0,S_1
1777450744.3657842,2175,0,S_1
1777450744.367744,2196,0,S_1
1777450744.369668,2110,0,S_1
1777450744.374124,1890,0,S_1
1777450744.375962,1870,0,S_1
1777450744.3784719,2101,0,S_1
1777450744.381469,2167,0,S_1
1777450744.3884952,2207,0,S_1
1777450744.3885708,1999,0,S_1
1777450744.3904982,1878,0,S_1
1777450744.393597,1936,0,S_1
1777450744.3968709,2133,0,S_1
1777450744.3996549,2208,0,S_1
1777450744.402473,2112,0,S_1
1777450744.405443,1930,0,S_1
1777450744.409945,1873,0,S_1
1777450744.412353,2077,0,S_1
1777450744.414504,2148,0,S_1
1777450744.4183218,2120,0,S_1
1777450744.4210649,2034,0,S_1
1777450744.4236119,1881,0,S_1
1777450744.426465,1948,0,S_1
1777450744.43265,2119,0,S_1
1777450744.434506,2171,0,S_1
1777450744.4364831,2113,0,S_1
1777450744.44062,1976,0,S_1
1777450744.4424572,1888,0,S_1
1777450744.445013,2018,0,S_1
1777450744.4475572,2142,0,S_1
1777450744.45359,2175,0,S_1
1777450744.453653,2073,0,S_1
1777450744.4575958,1883,0,S_1
1777450744.466897,1911,0,S_1
1777450744.4907022,2113,0,S_1
1777450744.490744,2173,0,S_1
1777450744.4907699,2131,0,S_1
1777450744.496276,1976,0,S_1
1777450744.50454,1901,0,S_1
1777450744.514438,1989,0,S_1
1777450744.5165188,2150,0,S_1
1777450744.51659,2151,0,S_1
1777450744.5166469,2080,0,S_1
1777450744.5166988,1939,0,S_1
1777450744.516751,1904,0,S_1
1777450744.5168,2100,0,S_1
1777450744.516852,2204,0,S_1
1777450744.5169039,2156,0,S_1
1777450744.5169559,2003,0,S_1
1777450744.517005,1874,0,S_1
1777450744.517056,1945,0,S_1
1777450744.5171368,2159,0,S_1
1777450744.5171719,2182,0,S_1
1777450744.5197299,2103,0,S_1
1777450744.5248058,1912,0,S_1
1777450744.526264,1884,0,S_1
1777450744.528914,2075,0,S_1
1777450744.532345,2144,0,S_1
1777450744.534451,2145,0,S_1
1777450744.5374599,2024,0,S_1
1777450744.540457,1867,0,S_1
1777450744.5434291,1957,0,S_1
1777450744.546432,2159,0,S_1
1777450744.549431,2174,0,S_1
1777450744.552428,2115,0,S_1
