timestamp,ch1,ch2,label
1777450193.864332,2025,0,S_e
1777450193.866388,2095,0,S_e
1777450193.867006,2078,0,S_e
1777450193.870424,1987,0,S_e
1777450193.8716202,1935,0,S_e
1777450193.8720481,1983,0,S_e
1777450193.873833,2052,0,S_e
1777450193.876513,2069,0,S_e
1777450193.879224,2040,0,S_e
1777450193.881873,1965,0,S_e
1777450193.890773,1943,0,S_e
1777450193.892606,2023,0,S_e
1777450193.8940392,2085,0,S_e
1777450193.8945112,2076,0,S_e
1777450193.896966,2009,0,S_e
1777450193.8998668,1944,0,S_e
1777450193.903467,1957,0,S_e
1777450193.906197,2049,0,S_e
1777450193.915745,2089,0,S_e
1777450193.9183302,2061,0,S_e
1777450193.919242,1961,0,S_e
1777450193.919936,1939,0,S_e
1777450193.922515,2006,0,S_e
1777450193.923936,2066,0,S_e
1777450193.926899,2080,0,S_e
1777450193.930141,2036,0,S_e
1777450193.9349918,1958,0,S_e
1777450193.938634,1967,0,S_e
1777450193.939677,2036,0,S_e
1777450193.9419131,2088,0,S_e
1777450193.944905,2074,0,S_e
1777450193.9478679,1986,0,S_e
1777450193.950884,1914,0,S_e
1777450193.956618,2011,0,S_e
1777450193.957942,2073,0,S_e
1777450193.960889,2066,0,S_e
1777450193.9637592,2001,0,S_e
1777450193.966571,1938,0,S_e
1777450193.969339,1953,0,S_e
1777450193.972043,2021,0,S_e
1777450193.978178,2097,0,S_e
1777450193.979574,2070,0,S_e
1777450193.9820402,1985,0,S_e
1777450193.9848452,1938,0,S_e
1777450193.986885,2000,0,S_e
1777450193.989891,2057,0,S_e
1777450193.992874,2097,0,S_e
1777450194.0001159,2048,0,S_e
1777450194.0004852,1952,0,S_e
1777450194.00257,1934,0,S_e
1777450194.005603,2036,0,S_e
1777450194.0084128,2083,0,S_e
1777450194.010866,2075,0,S_e
1777450194.013868,2003,0,S_e
1777450194.021313,1932,0,S_e
1777450194.021661,1973,0,S_e
1777450194.024771,2058,0,S_e
1777450194.027176,2105,0,S_e
1777450194.0290902,2046,0,S_e
1777450194.0318751,1936,0,S_e
1777450194.0349,1932,0,S_e
1777450194.037926,2053,0,S_e
1777450194.041821,2094,0,S_e
1777450194.044838,2073,0,S_e
1777450194.0481122,2022,0,S_e
1777450194.050556,1949,0,S_e
1777450194.0531142,1994,0,S_e
1777450194.055876,2077,0,S_e
1777450194.059032,2088,0,S_e
1777450194.062347,2079,0,S_e
1777450194.0656772,1974,0,S_e
1777450194.068505,1932,0,S_e
1777450194.0710568,2027,0,S_e
1777450194.073889,2092,0,S_e
1777450194.076861,2065,0,S_e
1777450194.082956,2004,0,S_e
1777450194.083928,1920,0,S_e
1777450194.086283,1962,0,S_e
1777450194.0891972,2050,0,S_e
1777450194.092473,2093,0,S_e
1777450194.0950139,2079,0,S_e
1777450194.097902,1982,0,S_e
1777450194.103297,1927,0,S_e
1777450194.103932,1991,0,S_e
1777450194.108078,2077,0,S_e
1777450194.111849,2096,0,S_e
1777450194.113136,2030,0,S_e
1777450194.115856,1916,0,S_e
1777450194.118858,1961,0,S_e
1777450194.1234539,2048,0,S_e
1777450194.125462,2069,0,S_e
1777450194.129614,2062,0,S_e
1777450194.132045,1981,0,S_e
1777450194.133871,1927,0,S_e
1777450194.1368692,1980,0,S_e
1777450194.139852,2082,0,S_e
1777450194.143488,2053,0,S_e
1777450194.146631,2045,0,S_e
1777450194.149442,1939,0,S_e
1777450194.151891,1948,0,S_e
1777450194.154874,2055,0,S_e
1777450194.157876,2101,0,S_e
1777450194.164618,2082,0,S_e
1777450194.1649961,1996,0,S_e
1777450194.1676888,1948,0,S_e
1777450194.170223,2005,0,S_e
1777450194.172769,2056,0,S_e
1777450194.1757598,2094,0,S_e
1777450194.178729,2033,0,S_e
1777450194.184027,1986,0,S_e
1777450194.215648,1934,0,S_e
1777450194.215693,2046,0,S_e
1777450194.215717,2072,0,S_e
1777450194.2157388,2105,0,S_e
1777450194.2157598,2004,0,S_e
1777450194.216513,1925,0,S_e
1777450194.216678,1991,0,S_e
1777450194.216701,2060,0,S_e
1777450194.216722,2088,0,S_e
1777450194.2167418,2075,0,S_e
1777450194.2167628,1957,0,S_e
1777450194.218519,1935,0,S_e
1777450194.2262511,1981,0,S_e
1777450194.226282,2090,0,S_e
1777450194.235839,2088,0,S_e
1777450194.240064,2047,0,S_e
1777450194.2402291,1945,0,S_e
1777450194.240312,1991,0,S_e
1777450194.240353,2092,0,S_e
1777450194.241854,2125,0,S_e
1777450194.244766,2066,0,S_e
1777450194.247734,2012,0,S_e
1777450194.252289,1969,0,S_e
1777450194.254485,1993,0,S_e
1777450194.258636,2112,0,S_e
1777450194.261158,2086,0,S_e
1777450194.2627552,1995,0,S_e
1777450194.265766,1943,0,S_e
1777450194.268766,1943,0,S_e
1777450194.2721732,2036,0,S_e
1777450194.275705,2136,0,S_e
1777450194.278701,2133,0,S_e
1777450194.281107,2026,0,S_e
1777450194.283762,1946,0,S_e
1777450194.287406,2021,0,S_e
1777450194.293013,2085,0,S_e
1777450194.2933629,2156,0,S_e
1777450194.2968,2060,0,S_e
1777450194.300046,1941,0,S_e
1777450194.301749,1943,0,S_e
1777450194.304791,2019,0,S_e
1777450194.3077388,2128,0,S_e
1777450194.313833,2134,0,S_e
1777450194.3150442,2029,0,S_e
1777450194.317814,1897,0,S_e
1777450194.321047,2033,0,S_e
1777450194.3236952,2093,0,S_e
1777450194.326383,2139,0,S_e
1777450194.329015,2096,0,S_e
1777450194.334944,2004,0,S_e
1777450194.335936,1893,0,S_e
1777450194.339247,2127,0,S_e
1777450194.342981,2062,0,S_e
1777450194.3448918,1967,0,S_e
1777450194.3467362,2075,0,S_e
1777450194.349738,1967,0,S_e
1777450194.3562932,1873,0,S_e
1777450194.357093,1928,0,S_e
1777450194.360346,2180,0,S_e
1777450194.36361,2202,0,S_e
1777450194.366357,1867,0,S_e
1777450194.367893,1787,0,S_e
1777450194.370763,2032,0,S_e
1777450194.373738,2321,0,S_e
1777450194.3803132,2166,0,S_e
1777450194.380522,2082,0,S_e
1777450194.382997,1971,0,S_e
1777450194.3876932,1927,0,S_e
1777450194.3890922,1781,0,S_e
1777450194.391737,2317,0,S_e
1777450194.394738,2231,0,S_e
1777450194.399751,1969,0,S_e
1777450194.40695,1846,0,S_e
1777450194.407329,1964,0,S_e
1777450194.4076512,1956,0,S_e
1777450194.4097369,1504,0,S_e
1777450194.412766,2384,0,S_e
1777450194.4157388,2003,0,S_e
1777450194.421868,2069,0,S_e
1777450194.4243321,1732,0,S_e
1777450194.425777,2181,0,S_e
1777450194.430102,2318,0,S_e
1777450194.432131,2050,0,S_e
1777450194.433732,1513,0,S_e
1777450194.436734,1813,0,S_e
1777450194.439935,2574,0,S_e
1777450194.443434,2065,0,S_e
1777450194.447073,1842,0,S_e
1777450194.4498181,2189,0,S_e
1777450194.452148,1899,0,S_e
1777450194.454773,2054,0,S_e
1777450194.457758,1901,0,S_e
1777450194.464032,1669,0,S_e
1777450194.464415,2280,0,S_e
1777450194.4671628,2477,0,S_e
1777450194.470888,2092,0,S_e
1777450194.472758,2125,0,S_e
1777450194.475754,1833,0,S_e
1777450194.4787579,1911,0,S_e
1777450194.4840908,2132,0,S_e
1777450194.486149,1877,0,S_e
1777450194.488159,2479,0,S_e
1777450194.491457,2256,0,S_e
1777450194.494038,1923,0,S_e
1777450194.496798,1940,0,S_e
1777450194.499752,2010,0,S_e
1777450194.504538,1820,0,S_e
1777450194.506249,2208,0,S_e
1777450194.509216,2253,0,S_e
1777450194.512705,1891,0,S_e
1777450194.5152562,1758,0,S_e
1777450194.517833,1924,0,S_e
1777450194.520863,1849,0,S_e
1777450194.524162,1284,0,S_e
1777450194.5277388,2512,0,S_e
1777450194.531105,2728,0,S_e
1777450194.532725,2228,0,S_e
1777450194.5357282,2030,0,S_e
1777450194.538729,2112,0,S_e
1777450194.545162,2134,0,S_e
1777450194.5455081,1989,0,S_e
1777450194.548367,1628,0,S_e
1777450194.551921,1701,0,S_e
1777450194.553638,2408,0,S_e
1777450194.5566368,1984,0,S_e
1777450194.559635,1957,0,S_e
1777450194.56483,2152,0,S_e
1777450194.566847,1817,0,S_e
1777450194.568939,2050,0,S_e
1777450194.5738492,1817,0,S_e
1777450194.5751412,2398,0,S_e
1777450194.577683,2357,0,S_e
1777450194.580609,2203,0,S_e
1777450194.585424,1935,0,S_e
1777450194.587116,1941,0,S_e
1777450194.5911949,1935,0,S_e
1777450194.593707,1783,0,S_e
1777450194.596264,2470,0,S_e
1777450194.598804,1920,0,S_e
1777450194.601604,2023,0,S_e
1777450194.60549,1932,0,S_e
1777450194.60914,1641,0,S_e
1777450194.611627,2875,0,S_e
1777450194.6145191,1799,0,S_e
1777450194.617068,2413,0,S_e
1777450194.619618,2287,0,S_e
1777450194.6259358,2244,0,S_e
1777450194.626559,2089,0,S_e
1777450194.629237,2038,0,S_e
1777450194.632879,1744,0,S_e
1777450194.634657,1615,0,S_e
1777450194.637642,2152,0,S_e
1777450194.6406112,2185,0,S_e
1777450194.643788,2039,0,S_e
1777450194.647431,1692,0,S_e
1777450194.650879,2081,0,S_e
1777450194.65262,2053,0,S_e
1777450194.656545,2218,0,S_e
1777450194.659202,2189,0,S_e
1777450194.66175,1818,0,S_e
1777450194.664743,2395,0,S_e
1777450194.668481,2029,0,S_e
1777450194.671801,1632,0,S_e
1777450194.674529,2426,0,S_e
1777450194.677469,2234,0,S_e
1777450194.6800158,1997,0,S_e
1777450194.682691,1910,0,S_e
1777450194.688534,1891,0,S_e
1777450194.689269,2252,0,S_e
1777450194.692426,1981,0,S_e
1777450194.6959732,1800,0,S_e
1777450194.6977239,2021,0,S_e
1777450194.7006311,2320,0,S_e
1777450194.703646,2199,0,S_e
1777450194.7103722,1983,0,S_e
1777450194.710856,2138,0,S_e
1777450194.712717,1988,0,S_e
1777450194.7170439,1889,0,S_e
1777450194.7197492,2643,0,S_e
1777450194.722341,2284,0,S_e
1777450194.724906,2061,0,S_e
1777450194.727662,1858,0,S_e
1777450194.732146,2019,0,S_e
1777450194.7347589,1759,0,S_e
1777450194.737204,2356,0,S_e
1777450194.740493,1891,0,S_e
1777450194.743197,2041,0,S_e
1777450194.745766,1555,0,S_e
1777450194.7486238,2269,0,S_e
1777450194.754435,1515,0,S_e
1777450194.75492,2387,0,S_e
1777450194.757995,2240,0,S_e
1777450194.7622368,2217,0,S_e
1777450194.764155,2015,0,S_e
1777450194.766707,1899,0,S_e
1777450194.7696111,2017,0,S_e
1777450194.7754729,1894,0,S_e
1777450194.776157,2058,0,S_e
1777450194.779443,1888,0,S_e
1777450194.78321,1862,0,S_e
1777450194.784872,1896,0,S_e
1777450194.7876549,2206,0,S_e
1777450194.790643,2213,0,S_e
1777450194.7967129,2003,0,S_e
1777450194.797075,2212,0,S_e
1777450194.799862,2048,0,S_e
1777450194.8037262,2004,0,S_e
1777450194.806296,1930,0,S_e
1777450194.808844,2202,0,S_e
1777450194.811627,2371,0,S_e
1777450194.816828,2036,0,S_e
1777450194.818193,1818,0,S_e
1777450194.820918,2086,0,S_e
1777450194.823646,2209,0,S_e
1777450194.8266299,2095,0,S_e
1777450194.829631,1908,0,S_e
1777450194.832604,1714,0,S_e
1777450194.837046,2045,0,S_e
1777450194.839102,2460,0,S_e
1777450194.843167,2088,0,S_e
1777450194.844637,2034,0,S_e
1777450194.847628,1833,0,S_e
1777450194.8506088,1884,0,S_e
1777450194.853614,2281,0,S_e
1777450194.857854,2078,0,S_e
1777450194.860831,1907,0,S_e
1777450194.863283,2209,0,S_e
1777450194.866199,1985,0,S_e
1777450194.868764,1922,0,S_e
1777450194.871635,2174,0,S_e
1777450194.877905,2220,0,S_e
1777450194.8783,2138,0,S_e
1777450194.8811991,2001,0,S_e
1777450194.885189,2090,0,S_e
1777450194.886831,2039,0,S_e
1777450194.889631,1684,0,S_e
1777450194.89263,2025,0,S_e
1777450194.89847,2200,0,S_e
1777450194.8998241,2111,0,S_e
1777450194.901823,2190,0,S_e
1777450194.905372,2077,0,S_e
1777450194.908145,1879,0,S_e
1777450194.9107041,2338,0,S_e
1777450194.913633,1935,0,S_e
1777450194.917848,1956,0,S_e
1777450194.91973,2160,0,S_e
1777450194.92266,2174,0,S_e
1777450194.926846,1929,0,S_e
1777450194.928629,2136,0,S_e
1777450194.931606,2269,0,S_e
1777450194.9346292,1840,0,S_e
1777450194.9381351,2053,0,S_e
1777450194.941174,1993,0,S_e
1777450194.94518,2363,0,S_e
1777450194.946804,2089,0,S_e
1777450194.949648,2133,0,S_e
1777450194.95263,2011,0,S_e
1777450194.959059,2202,0,S_e
1777450194.959357,2166,0,S_e
1777450194.962311,2128,0,S_e
1777450194.964709,2032,0,S_e
1777450194.967857,1966,0,S_e
1777450194.970614,1978,0,S_e
1777450194.9736,1949,0,S_e
1777450194.980041,2076,0,S_e
1777450194.980788,1572,0,S_e
1777450194.98274,2316,0,S_e
1777450194.985721,2111,0,S_e
1777450194.9887092,2081,0,S_e
1777450194.9916081,1961,0,S_e
1777450194.9946291,2280,0,S_e
1777450194.998131,2049,0,S_e
1777450195.001662,1895,0,S_e
1777450195.0050108,2115,0,S_e
1777450195.007721,2303,0,S_e
1777450195.009581,2238,0,S_e
1777450195.012484,2029,0,S_e
1777450195.015521,1835,0,S_e
1777450195.018502,2040,0,S_e
1777450195.022794,1835,0,S_e
1777450195.0247512,2223,0,S_e
1777450195.028759,2077,0,S_e
1777450195.030518,2261,0,S_e
1777450195.033519,2012,0,S_e
1777450195.036476,2019,0,S_e
1777450195.0428932,2074,0,S_e
1777450195.043245,2184,0,S_e
1777450195.046886,2152,0,S_e
1777450195.049543,2054,0,S_e
1777450195.052617,2010,0,S_e
1777450195.054515,2015,0,S_e
1777450195.057517,2037,0,S_e
1777450195.060502,1932,0,S_e
1777450195.065017,1934,0,S_e
1777450195.0669582,2086,0,S_e
1777450195.0698712,1999,0,S_e
1777450195.072528,2074,0,S_e
1777450195.0754828,2335,0,S_e
1777450195.078484,2094,0,S_e
1777450195.081473,2015,0,S_e
1777450195.0859241,2033,0,S_e
1777450195.088481,2095,0,S_e
1777450195.092545,2119,0,S_e
1777450195.094301,2091,0,S_e
1777450195.096844,2025,0,S_e
1777450195.099502,1831,0,S_e
1777450195.10636,1936,0,S_e
1777450195.106791,2125,0,S_e
1777450195.1092522,2164,0,S_e
1777450195.1135302,2188,0,S_e
1777450195.115225,2019,0,S_e
1777450195.117795,2033,0,S_e
1777450195.1205041,2119,0,S_e
1777450195.12751,2207,0,S_e
1777450195.1281369,2193,0,S_e
1777450195.1304162,2079,0,S_e
1777450195.134794,1959,0,S_e
1777450195.1364632,2015,0,S_e
1777450195.1390212,2108,0,S_e
1777450195.1415691,2164,0,S_e
1777450195.147557,2126,0,S_e
1777450195.148543,2027,0,S_e
1777450195.150902,1972,0,S_e
1777450195.1553202,2064,0,S_e
1777450195.1567008,2092,0,S_e
1777450195.159505,2113,0,S_e
1777450195.1625118,2097,0,S_e
1777450195.1686559,1986,0,S_e
1777450195.169047,2014,0,S_e
1777450195.172996,2099,0,S_e
1777450195.1747992,2166,0,S_e
1777450195.178119,2098,0,S_e
1777450195.180674,1988,0,S_e
1777450195.1835,2003,0,S_e
1777450195.189575,2044,0,S_e
1777450195.1896498,2115,0,S_e
1777450195.193245,2133,0,S_e
1777450195.1972969,2089,0,S_e
1777450195.199071,2065,0,S_e
1777450195.201664,2054,0,S_e
1777450195.2045078,2119,0,S_e
1777450195.210156,2236,0,S_e
1777450195.211072,2191,0,S_e
1777450195.214117,2086,0,S_e
1777450195.216596,2047,0,S_e
1777450195.2200189,2091,0,S_e
1777450195.222593,2162,0,S_e
1777450195.225513,2146,0,S_e
1777450195.2317681,2099,0,S_e
1777450195.232343,2000,0,S_e
1777450195.235369,1985,0,S_e
1777450195.238527,2046,0,S_e
1777450195.240569,2113,0,S_e
1777450195.2435,2101,0,S_e
1777450195.2465112,2058,0,S_e
1777450195.2495732,1966,0,S_e
1777450195.252797,2013,0,S_e
1777450195.25649,2096,0,S_e
1777450195.258945,2135,0,S_e
1777450195.2620502,2116,0,S_e
1777450195.264603,2021,0,S_e
1777450195.267522,1986,0,S_e
1777450195.273696,2068,0,S_e
1777450195.27381,2140,0,S_e
1777450195.277188,2129,0,S_e
1777450195.279521,2053,0,S_e
1777450195.282569,1972,0,S_e
1777450195.2854688,1999,0,S_e
1777450195.288501,2080,0,S_e
1777450195.294687,2127,0,S_e
1777450195.295028,2085,0,S_e
1777450195.298454,2014,0,S_e
1777450195.3006542,1987,0,S_e
1777450195.3040252,2037,0,S_e
1777450195.306572,2107,0,S_e
1777450195.3094988,2081,0,S_e
1777450195.315521,2062,0,S_e
1777450195.316104,1917,0,S_e
1777450195.318725,1973,0,S_e
1777450195.322956,2071,0,S_e
1777450195.3246322,2131,0,S_e
1777450195.32753,2130,0,S_e
1777450195.3304949,2045,0,S_e
1777450195.335416,1958,0,S_e
1777450195.3372831,2026,0,S_e
1777450195.3400419,2140,0,S_e
1777450195.343084,2146,0,S_e
1777450195.345663,2099,0,S_e
1777450195.348503,1979,0,S_e
1777450195.351511,1943,0,S_e
1777450195.356692,2074,0,S_e
1777450195.35838,2106,0,S_e
1777450195.361386,2069,0,S_e
1777450195.3642938,2016,0,S_e
1777450195.367094,1984,0,S_e
1777450195.369646,2012,0,S_e
1777450195.372515,2057,0,S_e
1777450195.376947,2137,0,S_e
1777450195.3790011,2063,0,S_e
1777450195.381696,1962,0,S_e
1777450195.384744,1989,0,S_e
1777450195.387511,2100,0,S_e
1777450195.3904781,2083,0,S_e
1777450195.3934999,2085,0,S_e
1777450195.397737,2058,0,S_e
1777450195.399638,1917,0,S_e
1777450195.403615,2010,0,S_e
1777450195.4055538,2043,0,S_e
1777450195.4085062,2144,0,S_e
1777450195.412127,2097,0,S_e
1777450195.414836,1976,0,S_e
1777450195.420087,1956,0,S_e
1777450195.420492,2043,0,S_e
1777450195.423573,2124,0,S_e
1777450195.4265769,2067,0,S_e
1777450195.4294899,1972,0,S_e
1777450195.433103,1914,0,S_e
1777450195.43551,1964,0,S_e
1777450195.440491,2080,0,S_e
1777450195.4419851,2111,0,S_e
1777450195.445962,2120,0,S_e
1777450195.447813,2025,0,S_e
1777450195.450409,1923,0,S_e
1777450195.4533892,2075,0,S_e
1777450195.456372,2178,0,S_e
1777450195.460819,2075,0,S_e
1777450195.4629178,2024,0,S_e
1777450195.467104,1942,0,S_e
1777450195.468983,1956,0,S_e
1777450195.4717638,2074,0,S_e
1777450195.474383,2114,0,S_e
1777450195.477387,2092,0,S_e
1777450195.489737,2006,0,S_e
1777450195.489852,1939,0,S_e
1777450195.4900281,2049,0,S_e
1777450195.490211,2063,0,S_e
1777450195.492799,2127,0,S_e
1777450195.495384,2021,0,S_e
1777450195.498335,1939,0,S_e
1777450195.502951,1956,0,S_e
1777450195.5048902,2099,0,S_e
1777450195.5091982,2110,0,S_e
1777450195.511158,2100,0,S_e
1777450195.513767,2011,0,S_e
1777450195.5163798,1960,0,S_e
1777450195.519373,2036,0,S_e
1777450195.523974,2119,0,S_e
1777450195.52605,2138,0,S_e
1777450195.529118,2070,0,S_e
1777450195.531958,1957,0,S_e
1777450195.534813,1991,0,S_e
1777450195.537386,2082,0,S_e
1777450195.54038,2117,0,S_e
1777450195.54585,2104,0,S_e
1777450195.5472782,2033,0,S_e
1777450195.55133,1960,0,S_e
1777450195.553209,2015,0,S_e
1777450195.555819,2091,0,S_e
1777450195.5583968,2122,0,S_e
1777450195.561355,2080,0,S_e
1777450195.566011,2007,0,S_e
1777450195.56807,1974,0,S_e
1777450195.572161,2065,0,S_e
1777450195.5740201,2129,0,S_e
1777450195.576994,2093,0,S_e
1777450195.5795379,2026,0,S_e
1777450195.582367,1945,0,S_e
1777450195.586823,1987,0,S_e
1777450195.58885,2067,0,S_e
1777450195.59305,2106,0,S_e
1777450195.594901,2065,0,S_e
1777450195.597478,2006,0,S_e
1777450195.6003919,1990,0,S_e
1777450195.603349,2045,0,S_e
1777450195.607759,2121,0,S_e
1777450195.609835,2137,0,S_e
1777450195.613747,2085,0,S_e
1777450195.615624,1946,0,S_e
1777450195.6183941,2002,0,S_e
1777450195.621345,2088,0,S_e
1777450195.628257,2160,0,S_e
1777450195.628545,2098,0,S_e
1777450195.631365,2027,0,S_e
1777450195.634621,1983,0,S_e
1777450195.636522,2049,0,S_e
1777450195.63938,2133,0,S_e
1777450195.642383,2170,0,S_e
1777450195.645375,2086,0,S_e
1777450195.6505861,1980,0,S_e
1777450195.6525052,1962,0,S_e
1777450195.654551,2044,0,S_e
1777450195.658456,2119,0,S_e
1777450195.6603851,2110,0,S_e
1777450195.6633668,2000,0,S_e
1777450195.666372,1951,0,S_e
1777450195.6713128,1987,0,S_e
1777450195.6729972,2094,0,S_e
1777450195.67705,2126,0,S_e
1777450195.679093,2075,0,S_e
1777450195.681796,1931,0,S_e
1777450195.6843991,1948,0,S_e
1777450195.6873758,2061,0,S_e
1777450195.6926038,2115,0,S_e
1777450195.69435,2111,0,S_e
1777450195.696631,2025,0,S_e
1777450195.700285,1955,0,S_e
1777450195.7023768,2016,0,S_e
1777450195.7054012,2104,0,S_e
1777450195.7083762,2132,0,S_e
1777450195.713046,2102,0,S_e
1777450195.715004,2014,0,S_e
1777450195.719029,1977,0,S_e
1777450195.720949,2086,0,S_e
1777450195.723541,2095,0,S_e
1777450195.726351,2117,0,S_e
1777450195.7293901,2052,0,S_e
1777450195.734522,1961,0,S_e
1777450195.736614,2014,0,S_e
1777450195.7384572,2106,0,S_e
1777450195.742708,2162,0,S_e
1777450195.744437,2099,0,S_e
1777450195.747348,1993,0,S_e
1777450195.750391,1971,0,S_e
1777450195.756521,2071,0,S_e
1777450195.7568798,2143,0,S_e
1777450195.759574,2124,0,S_e
1777450195.7639732,2060,0,S_e
1777450195.76559,1960,0,S_e
1777450195.76855,1990,0,S_e
1777450195.771391,2106,0,S_e
1777450195.777805,2151,0,S_e
1777450195.777882,2087,0,S_e
1777450195.7807071,2016,0,S_e
1777450195.7851279,1991,0,S_e
1777450195.7867799,2034,0,S_e
1777450195.7893848,2147,0,S_e
1777450195.792384,2135,0,S_e
1777450195.795346,2068,0,S_e
1777450195.804873,1935,0,S_e
1777450195.809448,2013,0,S_e
1777450195.8101141,2106,0,S_e
1777450195.810347,2148,0,S_e
1777450195.8105578,2108,0,S_e
1777450195.813492,2034,0,S_e
1777450195.816426,1983,0,S_e
1777450195.8193789,2049,0,S_e
1777450195.8241,2148,0,S_e
1777450195.826387,2182,0,S_e
1777450195.831156,2104,0,S_e
1777450195.8313642,1982,0,S_e
1777450195.835258,2008,0,S_e
1777450195.83794,2081,0,S_e
1777450195.8406038,2159,0,S_e
1777450195.843391,2134,0,S_e
1777450195.848398,2030,0,S_e
1777450195.849803,1946,0,S_e
1777450195.855992,2030,0,S_e
1777450195.8561852,2118,0,S_e
1777450195.858815,2159,0,S_e
1777450195.861521,2080,0,S_e
1777450195.8643682,2001,0,S_e
1777450195.8705878,2006,0,S_e
1777450195.8723772,2087,0,S_e
1777450195.874187,2168,0,S_e
1777450195.876499,2132,0,S_e
1777450195.880199,2064,0,S_e
1777450195.88275,1983,0,S_e
1777450195.885377,2003,0,S_e
1777450195.888339,2114,0,S_e
1777450195.893066,2149,0,S_e
1777450195.894785,2101,0,S_e
1777450195.898824,1982,0,S_e
1777450195.9008331,1968,0,S_e
1777450195.9034839,2058,0,S_e
1777450195.906253,2138,0,S_e
1777450195.9092638,2146,0,S_e
1777450195.91348,2083,0,S_e
1777450195.916032,1985,0,S_e
1777450195.921779,2003,0,S_e
1777450195.922103,2120,0,S_e
1777450195.924993,2177,0,S_e
1777450195.9275498,2085,0,S_e
1777450195.9302568,2021,0,S_e
1777450195.935621,1992,0,S_e
1777450195.937726,2049,0,S_e
1777450195.939809,2101,0,S_e
1777450195.9438632,2145,0,S_e
1777450195.945531,2061,0,S_e
1777450195.948249,1947,0,S_e
1777450195.9519832,1994,0,S_e
1777450195.9574158,2089,0,S_e
1777450195.957487,2121,0,S_e
1777450195.961026,2100,0,S_e
1777450195.963389,2026,0,S_e
1777450195.966788,1956,0,S_e
1777450195.969294,2026,0,S_e
1777450195.972249,2104,0,S_e
1777450195.9786859,2139,0,S_e
1777450195.979286,2089,0,S_e
1777450195.982236,1960,0,S_e
1777450195.986408,1967,0,S_e
1777450195.98832,2108,0,S_e
1777450195.990873,2121,0,S_e
1777450195.993359,2119,0,S_e
1777450195.9963078,2019,0,S_e
1777450196.001021,1951,0,S_e
1777450196.003181,2032,0,S_e
1777450196.007786,2090,0,S_e
1777450196.009207,2110,0,S_e
1777450196.011776,2095,0,S_e
1777450196.014328,1991,0,S_e
1777450196.0172539,1955,0,S_e
1777450196.020965,2058,0,S_e
1777450196.024488,2140,0,S_e
1777450196.027104,2127,0,S_e
1777450196.030715,2040,0,S_e
1777450196.032248,1956,0,S_e
1777450196.035218,1980,0,S_e
1777450196.0382552,2094,0,S_e
1777450196.0430899,2125,0,S_e
1777450196.045482,2069,0,S_e
1777450196.0475578,1983,0,S_e
1777450196.0515509,1957,0,S_e
1777450196.053257,2036,0,S_e
1777450196.0562382,2116,0,S_e
1777450196.059231,2121,0,S_e
1777450196.0663621,2043,0,S_e
1777450196.067883,1943,0,S_e
1777450196.070189,1967,0,S_e
1777450196.074084,2082,0,S_e
1777450196.0742981,2113,0,S_e
1777450196.077278,2090,0,S_e
1777450196.080225,1975,0,S_e
1777450196.083221,1956,0,S_e
1777450196.090354,2039,0,S_e
1777450196.09075,2109,0,S_e
1777450196.09334,2122,0,S_e
1777450196.0973928,2057,0,S_e
1777450196.099285,1938,0,S_e
1777450196.101238,1989,0,S_e
1777450196.104239,2111,0,S_e
1777450196.1072981,2086,0,S_e
1777450196.11471,2086,0,S_e
1777450196.116241,2024,0,S_e
1777450196.116321,1968,0,S_e
1777450196.1196532,2020,0,S_e
1777450196.122676,2091,0,S_e
1777450196.125243,2123,0,S_e
1777450196.128225,2046,0,S_e
1777450196.135243,1929,0,S_e
1777450196.1367412,1960,0,S_e
1777450196.13776,2048,0,S_e
1777450196.141879,2103,0,S_e
1777450196.1438642,2086,0,S_e
1777450196.146443,2030,0,S_e
1777450196.149225,1962,0,S_e
1777450196.157442,2002,0,S_e
1777450196.1600819,2112,0,S_e
1777450196.1604931,2097,0,S_e
1777450196.162292,2082,0,S_e
1777450196.16435,1964,0,S_e
1777450196.1673758,1932,0,S_e
1777450196.170246,2043,0,S_e
1777450196.1732328,2108,0,S_e
1777450196.179216,2109,0,S_e
1777450196.180711,2043,0,S_e
1777450196.183986,1932,0,S_e
1777450196.185538,1989,0,S_e
1777450196.188989,2089,0,S_e
1777450196.1916292,2125,0,S_e
1777450196.1943412,2081,0,S_e
1777450196.1973062,1936,0,S_e
1777450196.200686,1935,0,S_e
1777450196.205112,2049,0,S_e
1777450196.20896,2121,0,S_e
1777450196.2093031,2081,0,S_e
1777450196.212238,2013,0,S_e
1777450196.2152169,1962,0,S_e
1777450196.21823,1973,0,S_e
1777450196.22342,2061,0,S_e
1777450196.225288,2075,0,S_e
1777450196.227395,2066,0,S_e
1777450196.231045,1948,0,S_e
1777450196.2336352,1893,0,S_e
1777450196.236222,2027,0,S_e
1777450196.239281,2030,0,S_e
1777450196.2441652,2088,0,S_e
1777450196.2456288,2058,0,S_e
1777450196.249546,1912,0,S_e
1777450196.251241,1962,0,S_e
1777450196.2542999,2124,0,S_e
1777450196.257216,2102,0,S_e
1777450196.260231,2103,0,S_e
1777450196.26425,2010,0,S_e
1777450196.267325,1944,0,S_e
1777450196.26983,1951,0,S_e
1777450196.2726872,1981,0,S_e
1777450196.275251,2081,0,S_e
1777450196.278209,1955,0,S_e
1777450196.283993,1870,0,S_e
1777450196.284656,1986,0,S_e
1777450196.287735,2073,0,S_e
1777450196.291313,2096,0,S_e
1777450196.29324,2035,0,S_e
1777450196.296274,2016,0,S_e
1777450196.2992508,1924,0,S_e
1777450196.3042262,1924,0,S_e
1777450196.306123,1999,0,S_e
1777450196.310208,1990,0,S_e
1777450196.3118021,1997,0,S_e
1777450196.314542,2012,0,S_e
1777450196.317247,1856,0,S_e
1777450196.320246,1932,0,S_e
1777450196.3249102,2145,0,S_e
1777450196.326895,2055,0,S_e
1777450196.331149,2206,0,S_e
1777450196.33426,2020,0,S_e
1777450196.335507,1939,0,S_e
1777450196.338285,2013,0,S_e
1777450196.341246,1982,0,S_e
1777450196.345205,2067,0,S_e
1777450196.347442,1841,0,S_e
1777450196.3513741,1830,0,S_e
1777450196.354199,2315,0,S_e
1777450196.356565,1947,0,S_e
1777450196.359245,2031,0,S_e
1777450196.365431,2027,0,S_e
1777450196.365769,1753,0,S_e
1777450196.369096,1996,0,S_e
1777450196.373269,2260,0,S_e
1777450196.3748999,2173,0,S_e
1777450196.3774562,2118,0,S_e
1777450196.380096,1671,0,S_e
1777450196.385833,2053,0,S_e
1777450196.3861802,2121,0,S_e
1777450196.3895922,2273,0,S_e
1777450196.393464,2167,0,S_e
1777450196.39521,1931,0,S_e
1777450196.398166,1850,0,S_e
1777450196.401131,2060,0,S_e
1777450196.406631,2039,0,S_e
1777450196.4076438,1760,0,S_e
1777450196.41041,1754,0,S_e
1777450196.41439,2362,0,S_e
1777450196.416127,1989,0,S_e
1777450196.419753,1230,0,S_e
1777450196.422314,1361,0,S_e
1777450196.426861,3708,0,S_e
1777450196.428881,2254,0,S_e
1777450196.434564,1389,0,S_e
1777450196.434696,2504,0,S_e
1777450196.4372659,2551,0,S_e
1777450196.4401228,2281,0,S_e
1777450196.443129,1593,0,S_e
1777450196.447743,2744,0,S_e
1777450196.449485,2126,0,S_e
1777450196.4533482,1771,0,S_e
1777450196.455147,1702,0,S_e
1777450196.45814,2068,0,S_e
1777450196.461786,1605,0,S_e
1777450196.468485,2025,0,S_e
1777450196.469873,2219,0,S_e
1777450196.471321,2003,0,S_e
1777450196.4742248,2066,0,S_e
1777450196.477538,2582,0,S_e
1777450196.479115,2277,0,S_e
1777450196.482123,1981,0,S_e
1777450196.485153,2095,0,S_e
1777450196.488493,2200,0,S_e
1777450196.49205,1998,0,S_e
1777450196.494438,2011,0,S_e
1777450196.497569,1783,0,S_e
1777450196.500125,2019,0,S_e
1777450196.5031302,2033,0,S_e
1777450196.5090072,2134,0,S_e
1777450196.509707,1836,0,S_e
1777450196.5125608,2083,0,S_e
1777450196.516473,2087,0,S_e
1777450196.518238,1994,0,S_e
1777450196.521137,2295,0,S_e
1777450196.524117,2575,0,S_e
1777450196.530126,2073,0,S_e
1777450196.531777,1904,0,S_e
1777450196.533231,1937,0,S_e
1777450196.5375118,2229,0,S_e
1777450196.5391932,2296,0,S_e
1777450196.5421062,2187,0,S_e
1777450196.545114,1861,0,S_e
1777450196.550984,1827,0,S_e
1777450196.551667,1694,0,S_e
1777450196.554401,2202,0,S_e
1777450196.5584471,2084,0,S_e
1777450196.5601568,2383,0,S_e
1777450196.5631082,2465,0,S_e
1777450196.566119,2042,0,S_e
1777450196.571024,1987,0,S_e
1777450196.573108,2076,0,S_e
1777450196.575202,2075,0,S_e
1777450196.578799,1899,0,S_e
1777450196.581586,2067,0,S_e
1777450196.584139,2116,0,S_e
1777450196.5877109,2032,0,S_e
1777450196.592056,2082,0,S_e
1777450196.593434,2173,0,S_e
1777450196.5975208,1980,0,S_e
1777450196.599225,2079,0,S_e
1777450196.602127,2143,0,S_e
1777450196.605091,1852,0,S_e
1777450196.6082041,1700,0,S_e
1777450196.6125069,2276,0,S_e
1777450196.614936,1655,0,S_e
1777450196.619074,1745,0,S_e
1777450196.620847,2292,0,S_e
1777450196.623422,2671,0,S_e
1777450196.6261141,2350,0,S_e
1777450196.632552,1896,0,S_e
1777450196.6329448,1941,0,S_e
1777450196.635658,2193,0,S_e
1777450196.639701,1618,0,S_e
1777450196.641312,2578,0,S_e
1777450196.6441119,2142,0,S_e
1777450196.647118,1849,0,S_e
1777450196.652638,1726,0,S_e
1777450196.653244,1900,0,S_e
1777450196.6562612,2102,0,S_e
1777450196.660316,2225,0,S_e
1777450196.662118,1930,0,S_e
1777450196.66512,1592,0,S_e
1777450196.668124,2054,0,S_e
1777450196.674474,2243,0,S_e
1777450196.676173,1861,0,S_e
1777450196.677671,2582,0,S_e
1777450196.681969,2325,0,S_e
1777450196.683639,2141,0,S_e
1777450196.686185,1779,0,S_e
1777450196.689091,2525,0,S_e
1777450196.694475,2467,0,S_e
1777450196.696786,1686,0,S_e
1777450196.698661,1647,0,S_e
1777450196.702697,2062,0,S_e
1777450196.704442,2130,0,S_e
1777450196.707136,2006,0,S_e
1777450196.710119,2044,0,S_e
1777450196.715287,2074,0,S_e
1777450196.717673,2130,0,S_e
1777450196.7196538,1820,0,S_e
1777450196.723501,2119,0,S_e
1777450196.72519,1987,0,S_e
1777450196.7281432,1858,0,S_e
1777450196.731115,1844,0,S_e
1777450196.736073,2010,0,S_e
1777450196.738045,2363,0,S_e
1777450196.741017,2088,0,S_e
1777450196.743598,2082,0,S_e
1777450196.746173,1766,0,S_e
1777450196.749092,2057,0,S_e
1777450196.75211,2309,0,S_e
1777450196.756352,2237,0,S_e
1777450196.7582788,1980,0,S_e
1777450196.761336,1904,0,S_e
1777450196.764011,1973,0,S_e
1777450196.766977,2041,0,S_e
1777450196.770258,2063,0,S_e
1777450196.772966,2066,0,S_e
1777450196.778156,2233,0,S_e
1777450196.780247,1910,0,S_e
1777450196.7824461,1819,0,S_e
1777450196.786253,1931,0,S_e
1777450196.788091,1975,0,S_e
1777450196.790967,2263,0,S_e
1777450196.793969,1975,0,S_e
1777450196.8009422,1868,0,S_e
1777450196.800988,1755,0,S_e
1777450196.803309,2098,0,S_e
1777450196.8088489,2168,0,S_e
1777450196.809083,2288,0,S_e
1777450196.811966,2129,0,S_e
1777450196.814979,1982,0,S_e
1777450196.822769,1992,0,S_e
1777450196.823185,1845,0,S_e
1777450196.826436,2525,0,S_e
1777450196.827167,2020,0,S_e
1777450196.830883,1991,0,S_e
1777450196.833608,1653,0,S_e
1777450196.836169,1923,0,S_e
1777450196.838998,2135,0,S_e
1777450196.845012,2226,0,S_e
1777450196.845691,2299,0,S_e
1777450196.848734,1868,0,S_e
1777450196.853529,1821,0,S_e
1777450196.855115,2248,0,S_e
1777450196.856991,1982,0,S_e
1777450196.8599901,2275,0,S_e
1777450196.863056,1980,0,S_e
1777450196.866414,1730,0,S_e
1777450196.8700109,1973,0,S_e
1777450196.872392,2203,0,S_e
1777450196.875752,2102,0,S_e
1777450196.8782961,2042,0,S_e
1777450196.880977,1795,0,S_e
1777450196.887414,1683,0,S_e
1777450196.888145,1872,0,S_e
1777450196.891045,2172,0,S_e
1777450196.897984,2328,0,S_e
1777450196.898088,2054,0,S_e
1777450196.89934,1936,0,S_e
1777450196.9020019,1842,0,S_e
1777450196.905001,2147,0,S_e
1777450196.909557,2302,0,S_e
1777450196.9117398,2112,0,S_e
1777450196.9160042,2047,0,S_e
1777450196.918033,1828,0,S_e
1777450196.920036,1923,0,S_e
1777450196.9229949,1842,0,S_e
1777450196.9259892,2232,0,S_e
1777450196.932398,2213,0,S_e
1777450196.932773,1970,0,S_e
1777450196.935157,2055,0,S_e
1777450196.9392772,1914,0,S_e
1777450196.9412448,1885,0,S_e
1777450196.944022,1900,0,S_e
1777450196.946979,2299,0,S_e
1777450196.949963,2124,0,S_e
1777450196.955275,2193,0,S_e
1777450196.957361,2113,0,S_e
1777450196.959271,2056,0,S_e
1777450196.963292,2014,0,S_e
1777450196.965072,1919,0,S_e
1777450196.9680388,2548,0,S_e
1777450196.970963,2207,0,S_e
1777450196.976238,2016,0,S_e
1777450196.978514,1779,0,S_e
1777450196.980612,2099,0,S_e
1777450196.9846022,2215,0,S_e
1777450196.9861429,1203,0,S_e
1777450196.988966,2369,0,S_e
1777450196.9919648,2484,0,S_e
1777450196.997607,2146,0,S_e
1777450196.998257,1767,0,S_e
1777450197.001009,1994,0,S_e
1777450197.005245,2225,0,S_e
1777450197.006999,2162,0,S_e
1777450197.009985,2191,0,S_e
1777450197.012985,1960,0,S_e
1777450197.018472,2058,0,S_e
1777450197.0195148,2097,0,S_e
1777450197.022104,2023,0,S_e
1777450197.026319,1976,0,S_e
1777450197.027991,2121,0,S_e
1777450197.0309918,2023,0,S_e
1777450197.033992,1618,0,S_e
1777450197.038191,2615,0,S_e
1777450197.040389,2195,0,S_e
1777450197.0443351,2145,0,S_e
1777450197.046286,2201,0,S_e
1777450197.049077,2060,0,S_e
1777450197.0519822,1900,0,S_e
1777450197.0550358,2216,0,S_e
1777450197.059308,2078,0,S_e
1777450197.0611682,2422,0,S_e
1777450197.064088,2005,0,S_e
1777450197.067096,1821,0,S_e
1777450197.070004,1978,0,S_e
1777450197.072992,2196,0,S_e
1777450197.076004,1736,0,S_e
1777450197.079243,1594,0,S_e
1777450197.082463,3071,0,S_e
1777450197.087174,2653,0,S_e
1777450197.088775,1997,0,S_e
1777450197.091328,1965,0,S_e
1777450197.093972,2247,0,S_e
1777450197.100118,2397,0,S_e
1777450197.101683,1958,0,S_e
1777450197.10382,2179,0,S_e
1777450197.10676,2021,0,S_e
1777450197.110271,2249,0,S_e
1777450197.1119628,2051,0,S_e
1777450197.114997,1912,0,S_e
1777450197.1179678,2076,0,S_e
1777450197.1217139,2059,0,S_e
1777450197.124822,2206,0,S_e
1777450197.1290329,2345,0,S_e
1777450197.1306329,2172,0,S_e
1777450197.133255,1868,0,S_e
1777450197.135966,2114,0,S_e
1777450197.14169,2246,0,S_e
1777450197.142272,2168,0,S_e
1777450197.145539,1941,0,S_e
1777450197.149791,2333,0,S_e
1777450197.151124,2083,0,S_e
1777450197.1538382,2179,0,S_e
1777450197.156867,2264,0,S_e
1777450197.1630569,2231,0,S_e
1777450197.163465,2106,0,S_e
1777450197.166948,1736,0,S_e
1777450197.169346,2051,0,S_e
1777450197.172992,2571,0,S_e
1777450197.1755369,2312,0,S_e
1777450197.178096,2205,0,S_e
1777450197.180869,2183,0,S_e
1777450197.1855528,2131,0,S_e
1777450197.187567,2133,0,S_e
1777450197.1914508,2219,0,S_e
1777450197.193385,2150,0,S_e
1777450197.196002,2069,0,S_e
1777450197.198935,1932,0,S_e
1777450197.2018828,2043,0,S_e
1777450197.206368,2243,0,S_e
1777450197.2080388,2384,0,S_e
1777450197.210869,2186,0,S_e
1777450197.213931,2090,0,S_e
1777450197.216875,2141,0,S_e
1777450197.219841,2223,0,S_e
1777450197.222882,2225,0,S_e
1777450197.227184,2176,0,S_e
1777450197.230012,2033,0,S_e
1777450197.232867,1949,0,S_e
1777450197.234933,1998,0,S_e
1777450197.23787,2090,0,S_e
1777450197.2408488,2263,0,S_e
1777450197.243883,2290,0,S_e
1777450197.247925,2183,0,S_e
1777450197.250037,2088,0,S_e
1777450197.254115,2140,0,S_e
1777450197.2561321,2208,0,S_e
1777450197.258901,2197,0,S_e
1777450197.261889,2145,0,S_e
1777450197.264842,2067,0,S_e
1777450197.2699919,2164,0,S_e
1777450197.2724988,2280,0,S_e
1777450197.274286,2301,0,S_e
1777450197.277217,2264,0,S_e
1777450197.279874,2171,0,S_e
1777450197.283461,2074,0,S_e
1777450197.2859688,2147,0,S_e
1777450197.2904289,2250,0,S_e
1777450197.29207,2293,0,S_e
1777450197.296042,2214,0,S_e
1777450197.2980711,2119,0,S_e
1777450197.300939,2145,0,S_e
1777450197.303884,2222,0,S_e
1777450197.306862,2240,0,S_e
1777450197.311425,2217,0,S_e
1777450197.313388,2119,0,S_e
1777450197.3173609,2079,0,S_e
1777450197.319369,2050,0,S_e
1777450197.321957,2184,0,S_e
1777450197.3248792,2187,0,S_e
1777450197.3278332,2120,0,S_e
1777450197.3319411,1998,0,S_e
1777450197.334084,2003,0,S_e
1777450197.338298,2082,0,S_e
1777450197.3402061,2196,0,S_e
1777450197.342866,2158,0,S_e
1777450197.3458402,2086,0,S_e
1777450197.348863,2045,0,S_e
1777450197.3533812,2083,0,S_e
1777450197.355114,2139,0,S_e
1777450197.359124,2195,0,S_e
1777450197.3611,2129,0,S_e
1777450197.363874,2065,0,S_e
1777450197.366891,2040,0,S_e
1777450197.369866,2136,0,S_e
1777450197.3742971,2187,0,S_e
1777450197.376257,2136,0,S_e
1777450197.3803132,2088,0,S_e
1777450197.382215,1994,0,S_e
1777450197.3848698,2058,0,S_e
1777450197.387873,2169,0,S_e
1777450197.390861,2201,0,S_e
1777450197.394536,2139,0,S_e
1777450197.398052,2043,0,S_e
1777450197.400991,2018,0,S_e
1777450197.4029481,2099,0,S_e
1777450197.405857,2176,0,S_e
1777450197.408874,2214,0,S_e
1777450197.411863,2143,0,S_e
1777450197.41517,2005,0,S_e
1777450197.419682,1996,0,S_e
1777450197.423363,2114,0,S_e
1777450197.424803,2166,0,S_e
1777450197.427351,2115,0,S_e
1777450197.429908,2005,0,S_e
1777450197.432837,1977,0,S_e
1777450197.437249,2015,0,S_e
1777450197.439198,2027,0,S_e
1777450197.443169,2087,0,S_e
1777450197.4451442,1991,0,S_e
1777450197.447844,1912,0,S_e
1777450197.451874,1942,0,S_e
1777450197.454417,2002,0,S_e
1777450197.4608588,2091,0,S_e
1777450197.462184,2063,0,S_e
1777450197.464169,1962,0,S_e
1777450197.467041,1930,0,S_e
1777450197.468801,2000,0,S_e
1777450197.471754,2095,0,S_e
1777450197.4747388,2113,0,S_e
1777450197.4798238,2061,0,S_e
1777450197.4818041,1955,0,S_e
1777450197.485951,1959,0,S_e
1777450197.4878788,2066,0,S_e
1777450197.49044,2141,0,S_e
1777450197.492979,2101,0,S_e
1777450197.495737,1967,0,S_e
1777450197.500278,1938,0,S_e
1777450197.502215,1993,0,S_e
1777450197.506218,2066,0,S_e
1777450197.508331,2076,0,S_e
1777450197.510863,2046,0,S_e
1777450197.513721,1931,0,S_e
1777450197.516714,1961,0,S_e
1777450197.52124,2073,0,S_e
1777450197.5230641,2066,0,S_e
1777450197.52897,2058,0,S_e
1777450197.529116,2002,0,S_e
1777450197.531955,1954,0,S_e
1777450197.534713,1983,0,S_e
1777450197.537746,2072,0,S_e
1777450197.542704,2084,0,S_e
1777450197.545701,2055,0,S_e
1777450197.547149,1951,0,S_e
1777450197.550091,1961,0,S_e
1777450197.55281,2050,0,S_e
1777450197.555742,2077,0,S_e
1777450197.558753,2079,0,S_e
1777450197.562948,2006,0,S_e
1777450197.565042,1906,0,S_e
1777450197.570944,1963,0,S_e
1777450197.571124,2040,0,S_e
1777450197.573874,2080,0,S_e
1777450197.57671,2048,0,S_e
1777450197.579735,1966,0,S_e
1777450197.5842729,1914,0,S_e
1777450197.5870988,1988,0,S_e
1777450197.5888798,2052,0,S_e
1777450197.591838,2131,0,S_e
1777450197.594739,2010,0,S_e
1777450197.59877,1918,0,S_e
1777450197.605281,1928,0,S_e
1777450197.6053581,2027,0,S_e
1777450197.606879,2071,0,S_e
1777450197.6107268,2055,0,S_e
1777450197.612847,1997,0,S_e
1777450197.615694,1933,0,S_e
1777450197.618711,1940,0,S_e
1777450197.621713,2057,0,S_e
1777450197.625828,2114,0,S_e
1777450197.627967,2056,0,S_e
1777450197.632046,1900,0,S_e
1777450197.6342242,1913,0,S_e
1777450197.6371572,2013,0,S_e
1777450197.639806,2077,0,S_e
1777450197.642734,2085,0,S_e
1777450197.6468852,1988,0,S_e
1777450197.649359,1889,0,S_e
1777450197.6533928,1916,0,S_e
1777450197.6554298,2002,0,S_e
1777450197.65854,2092,0,S_e
1777450197.6611211,2004,0,S_e
1777450197.6637409,1933,0,S_e
1777450197.6691358,1908,0,S_e
1777450197.67012,1953,0,S_e
1777450197.6733289,2047,0,S_e
1777450197.677516,2077,0,S_e
1777450197.679232,2014,0,S_e
1777450197.6818838,1890,0,S_e
1777450197.6847308,1965,0,S_e
1777450197.69085,2043,0,S_e
1777450197.6912,2072,0,S_e
1777450197.694329,2068,0,S_e
1777450197.6985989,1975,0,S_e
1777450197.700345,1844,0,S_e
1777450197.702892,1952,0,S_e
1777450197.7057412,2057,0,S_e
1777450197.711745,2126,0,S_e
1777450197.712458,2007,0,S_e
1777450197.715582,1889,0,S_e
1777450197.7179441,1934,0,S_e
1777450197.721461,2026,0,S_e
1777450197.72402,2132,0,S_e
1777450197.726728,2096,0,S_e
1777450197.732634,1955,0,S_e
1777450197.733335,1908,0,S_e
1777450197.735758,2005,0,S_e
1777450197.740333,2078,0,S_e
1777450197.742107,2030,0,S_e
1777450197.7447329,2038,0,S_e
1777450197.7477372,1921,0,S_e
1777450197.753216,1927,0,S_e
1777450197.7539,2058,0,S_e
1777450197.759163,2116,0,S_e
1777450197.761193,2115,0,S_e
1777450197.762837,1930,0,S_e
1777450197.765711,1918,0,S_e
1777450197.7687428,2011,0,S_e
1777450197.774839,2025,0,S_e
1777450197.776263,2049,0,S_e
1777450197.778263,2044,0,S_e
1777450197.7823381,1927,0,S_e
1777450197.784123,1962,0,S_e
1777450197.786797,2056,0,S_e
1777450197.7907782,2058,0,S_e
1777450197.7935581,2143,0,S_e
1777450197.797438,1992,0,S_e
1777450197.7991638,1944,0,S_e
1777450197.803107,2025,0,S_e
1777450197.8051698,2090,0,S_e
1777450197.807756,2158,0,S_e
1777450197.810744,1980,0,S_e
1777450197.81373,1958,0,S_e
1777450197.8182359,1993,0,S_e
1777450197.820371,2037,0,S_e
1777450197.823317,2121,0,S_e
1777450197.8261771,2117,0,S_e
1777450197.828972,2036,0,S_e
1777450197.831617,1952,0,S_e
1777450197.834629,1959,0,S_e
1777450197.838381,2090,0,S_e
1777450197.840678,2114,0,S_e
1777450197.844595,2043,0,S_e
1777450197.846717,1973,0,S_e
1777450197.849602,1968,0,S_e
1777450197.852587,2032,0,S_e
1777450197.855614,2091,0,S_e
1777450197.860241,2078,0,S_e
1777450197.861689,2020,0,S_e
1777450197.865665,1964,0,S_e
1777450197.867677,2000,0,S_e
1777450197.8706172,2073,0,S_e
1777450197.873615,2086,0,S_e
1777450197.876768,2085,0,S_e
1777450197.880149,1978,0,S_e
1777450197.88347,1934,0,S_e
1777450197.8881438,2058,0,S_e
1777450197.889628,2054,0,S_e
1777450197.892174,2081,0,S_e
1777450197.894728,2021,0,S_e
1777450197.897624,1929,0,S_e
1777450197.9011462,1963,0,S_e
1777450197.90457,2032,0,S_e
1777450197.9076428,2100,0,S_e
1777450197.909647,2063,0,S_e
1777450197.9126139,1977,0,S_e
1777450197.915616,1924,0,S_e
1777450197.918627,2010,0,S_e
1777450197.922836,2094,0,S_e
1777450197.925101,2097,0,S_e
1777450197.9292889,2030,0,S_e
1777450197.931225,1936,0,S_e
1777450197.933862,1945,0,S_e
1777450197.9366121,2044,0,S_e
1777450197.93961,2076,0,S_e
1777450197.944681,2071,0,S_e
1777450197.94649,1976,0,S_e
1777450197.9505138,1921,0,S_e
1777450197.9525042,1971,0,S_e
1777450197.955266,2071,0,S_e
1777450197.9578109,2093,0,S_e
1777450197.960598,2036,0,S_e
1777450197.965836,1931,0,S_e
1777450197.967545,1943,0,S_e
1777450197.969634,2019,0,S_e
1777450197.973577,2116,0,S_e
1777450197.976264,2064,0,S_e
1777450197.979129,2005,0,S_e
1777450197.9817102,1930,0,S_e
1777450197.990242,1970,0,S_e
1777450197.990622,2044,0,S_e
1777450197.990807,2090,0,S_e
1777450197.9972851,2099,0,S_e
1777450197.9975529,1957,0,S_e
1777450198.000263,1887,0,S_e
1777450198.002833,2011,0,S_e
1777450198.005592,2080,0,S_e
1777450198.013163,2137,0,S_e
1777450198.013323,2013,0,S_e
1777450198.0168,1916,0,S_e
1777450198.021195,1979,0,S_e
1777450198.0214741,2060,0,S_e
1777450198.024079,2096,0,S_e
1777450198.0266829,2056,0,S_e
1777450198.029602,1954,0,S_e
1777450198.036159,1967,0,S_e
1777450198.036272,2012,0,S_e
1777450198.0394711,2088,0,S_e
1777450198.043508,2077,0,S_e
1777450198.045321,2034,0,S_e
1777450198.047893,1926,0,S_e
1777450198.05058,1950,0,S_e
1777450198.056614,2061,0,S_e
1777450198.0570781,2113,0,S_e
1777450198.060593,2077,0,S_e
1777450198.065032,1984,0,S_e
1777450198.066437,1935,0,S_e
1777450198.069011,1995,0,S_e
1777450198.0716548,2085,0,S_e
1777450198.074614,2126,0,S_e
1777450198.078047,2048,0,S_e
1777450198.081401,1932,0,S_e
1777450198.0860999,1935,0,S_e
1777450198.087897,2046,0,S_e
1777450198.0895832,2076,0,S_e
1777450198.092582,2074,0,S_e
1777450198.095602,1985,0,S_e
1777450198.100138,1930,0,S_e
1777450198.102305,1963,0,S_e
1777450198.10517,2054,0,S_e
1777450198.1082208,2079,0,S_e
1777450198.110829,2020,0,S_e
1777450198.113615,1935,0,S_e
1777450198.116576,1931,0,S_e
1777450198.1221519,2032,0,S_e
1777450198.123599,2124,0,S_e
1777450198.125932,2108,0,S_e
1777450198.129548,1994,0,S_e
1777450198.131579,1927,0,S_e
1777450198.134613,1994,0,S_e
1777450198.137579,2060,0,S_e
1777450198.143677,2104,0,S_e
1777450198.144274,2054,0,S_e
1777450198.1475022,1943,0,S_e
1777450198.151148,1927,0,S_e
1777450198.153079,2053,0,S_e
1777450198.155636,2101,0,S_e
1777450198.15858,2089,0,S_e
1777450198.165246,2013,0,S_e
1777450198.16659,1935,0,S_e
1777450198.168381,1976,0,S_e
1777450198.172609,2067,0,S_e
1777450198.174428,2094,0,S_e
1777450198.1769788,2064,0,S_e
1777450198.1795259,1979,0,S_e
1777450198.185533,1928,0,S_e
1777450198.185589,2035,0,S_e
1777450198.189313,2109,0,S_e
1777450198.192074,2104,0,S_e
1777450198.195458,2030,0,S_e
1777450198.198007,1937,0,S_e
1777450198.200565,1969,0,S_e
1777450198.206614,2062,0,S_e
1777450198.207326,2116,0,S_e
1777450198.211046,2084,0,S_e
1777450198.213135,1980,0,S_e
1777450198.2161229,1958,0,S_e
1777450198.218543,2016,0,S_e
1777450198.221492,2086,0,S_e
1777450198.224463,2108,0,S_e
1777450198.228543,2039,0,S_e
1777450198.232095,1929,0,S_e
1777450198.236049,1930,0,S_e
1777450198.237621,2037,0,S_e
1777450198.2394829,2096,0,S_e
1777450198.2424939,2081,0,S_e
1777450198.245482,1994,0,S_e
1777450198.2512262,1913,0,S_e
1777450198.2540731,1999,0,S_e
1777450198.2547991,2101,0,S_e
1777450198.259064,2107,0,S_e
1777450198.260822,2060,0,S_e
1777450198.263467,1968,0,S_e
1777450198.266489,1961,0,S_e
1777450198.2776299,2048,0,S_e
1777450198.2786188,2106,0,S_e
1777450198.279979,2085,0,S_e
1777450198.281878,2020,0,S_e
1777450198.2823622,1943,0,S_e
1777450198.284479,1992,0,S_e
1777450198.287484,2079,0,S_e
1777450198.290473,2105,0,S_e
1777450198.300061,2058,0,S_e
1777450198.301596,1986,0,S_e
1777450198.3046331,1965,0,S_e
1777450198.305103,2043,0,S_e
1777450198.305574,2119,0,S_e
1777450198.308473,2103,0,S_e
1777450198.3114638,2059,0,S_e
1777450198.3144572,1953,0,S_e
1777450198.3199859,1996,0,S_e
1777450198.321245,2077,0,S_e
1777450198.32555,2145,0,S_e
1777450198.327529,2096,0,S_e
1777450198.329485,2002,0,S_e
1777450198.3324852,1949,0,S_e
1777450198.335476,2050,0,S_e
1777450198.342554,2107,0,S_e
1777450198.344059,2137,0,S_e
1777450198.346991,2048,0,S_e
1777450198.347774,1922,0,S_e
1777450198.3508039,1969,0,S_e
1777450198.353482,2084,0,S_e
1777450198.356481,2099,0,S_e
1777450198.359467,2083,0,S_e
1777450198.3654652,2000,0,S_e
1777450198.3669682,1917,0,S_e
1777450198.3689559,2048,0,S_e
1777450198.3732731,2126,0,S_e
1777450198.375337,2044,0,S_e
1777450198.377898,2059,0,S_e
1777450198.3805041,1944,0,S_e
1777450198.383465,1967,0,S_e
1777450198.3896089,2046,0,S_e
1777450198.3897998,2101,0,S_e
1777450198.394308,2069,0,S_e
1777450198.3961012,2008,0,S_e
1777450198.3989701,1911,0,S_e
1777450198.401473,1974,0,S_e
1777450198.404487,2064,0,S_e
1777450198.4098601,2090,0,S_e
1777450198.4105659,2068,0,S_e
1777450198.4136882,1935,0,S_e
1777450198.417696,1935,0,S_e
1777450198.419505,2043,0,S_e
1777450198.422452,2070,0,S_e
1777450198.425482,2085,0,S_e
1777450198.4315279,2030,0,S_e
1777450198.4324448,1880,0,S_e
1777450198.4352598,1992,0,S_e
1777450198.437933,2074,0,S_e
1777450198.441369,2128,0,S_e
1777450198.4438279,2019,0,S_e
1777450198.446462,1862,0,S_e
1777450198.452864,1971,0,S_e
1777450198.453195,2074,0,S_e
1777450198.456718,2095,0,S_e
1777450198.4610481,2111,0,S_e
1777450198.461546,2034,0,S_e
1777450198.46454,1976,0,S_e
1777450198.467476,2030,0,S_e
1777450198.47046,2103,0,S_e
1777450198.475151,2128,0,S_e
1777450198.477463,2055,0,S_e
1777450198.4805708,1967,0,S_e
1777450198.4840782,1873,0,S_e
1777450198.486063,1979,0,S_e
1777450198.488736,2062,0,S_e
1777450198.491564,2079,0,S_e
1777450198.500097,2003,0,S_e
1777450198.504425,1931,0,S_e
1777450198.5082712,1926,0,S_e
1777450198.508477,2005,0,S_e
1777450198.5085912,2011,0,S_e
1777450198.510022,1919,0,S_e
1777450198.512609,2074,0,S_e
1777450198.515341,1957,0,S_e
1777450198.522701,1950,0,S_e
1777450198.522961,2038,0,S_e
1777450198.527648,2109,0,S_e
1777450198.52937,2063,0,S_e
1777450198.5313349,1809,0,S_e
1777450198.533973,2108,0,S_e
1777450198.536663,1966,0,S_e
1777450198.5428522,2040,0,S_e
1777450198.544016,1923,0,S_e
1777450198.547046,2080,0,S_e
1777450198.550117,1850,0,S_e
1777450198.551879,2101,0,S_e
1777450198.5548558,2115,0,S_e
1777450198.5574908,2230,0,S_e
1777450198.560334,2062,0,S_e
1777450198.5669088,1935,0,S_e
1777450198.5677812,1844,0,S_e
1777450198.5708852,1788,0,S_e
1777450198.575885,2187,0,S_e
1777450198.576139,2025,0,S_e
1777450198.5787761,2022,0,S_e
1777450198.581388,1931,0,S_e
1777450198.584337,1801,0,S_e
1777450198.591213,2104,0,S_e
1777450198.591712,2050,0,S_e
1777450198.59471,2164,0,S_e
1777450198.596506,1755,0,S_e
1777450198.59952,1705,0,S_e
1777450198.602356,2507,0,S_e
1777450198.605334,2267,0,S_e
1777450198.608358,2095,0,S_e
1777450198.613416,1905,0,S_e
1777450198.61515,1508,0,S_e
1777450198.619313,2043,0,S_e
1777450198.62088,2484,0,S_e
1777450198.623806,2049,0,S_e
1777450198.626366,1857,0,S_e
1777450198.629355,1618,0,S_e
1777450198.633595,1986,0,S_e
1777450198.63566,2175,0,S_e
1777450198.6396842,1683,0,S_e
1777450198.641379,2514,0,S_e
1777450198.644354,2213,0,S_e
1777450198.647319,1696,0,S_e
1777450198.650351,2477,0,S_e
1777450198.654766,2226,0,S_e
1777450198.6574569,2188,0,S_e
1777450198.660424,2175,0,S_e
1777450198.66364,2061,0,S_e
1777450198.66535,1849,0,S_e
1777450198.6683562,1633,0,S_e
1777450198.671453,1710,0,S_e
1777450198.675005,2137,0,S_e
1777450198.678143,2097,0,S_e
1777450198.6821928,2059,0,S_e
1777450198.683865,1474,0,S_e
1777450198.6864178,2024,0,S_e
1777450198.6893508,3097,0,S_e
1777450198.695018,2324,0,S_e
1777450198.695391,1998,0,S_e
1777450198.6988318,1918,0,S_e
1777450198.7029061,1943,0,S_e
1777450198.704509,2055,0,S_e
1777450198.707357,1964,0,S_e
1777450198.710351,1761,0,S_e
1777450198.715334,1549,0,S_e
1777450198.717192,2018,0,S_e
1777450198.7201788,2210,0,S_e
1777450198.722784,1919,0,S_e
1777450198.725609,2053,0,S_e
1777450198.728357,2180,0,S_e
1777450198.731348,1839,0,S_e
1777450198.735733,2330,0,S_e
1777450198.737629,2066,0,S_e
1777450198.741438,1955,0,S_e
1777450198.744566,1729,0,S_e
1777450198.7463539,2375,0,S_e
1777450198.749326,2325,0,S_e
1777450198.752351,2152,0,S_e
1777450198.755738,1752,0,S_e
1777450198.759031,2129,0,S_e
1777450198.7616482,2183,0,S_e
1777450198.7648041,2128,0,S_e
1777450198.767356,2098,0,S_e
1777450198.770354,2070,0,S_e
1777450198.776028,1967,0,S_e
1777450198.776717,1769,0,S_e
1777450198.7796621,2104,0,S_e
1777450198.783499,2208,0,S_e
1777450198.785344,2203,0,S_e
1777450198.788367,2113,0,S_e
1777450198.791345,2140,0,S_e
1777450198.796777,2007,0,S_e
1777450198.797733,1892,0,S_e
1777450198.801599,2110,0,S_e
1777450198.8042712,2077,0,S_e
1777450198.806834,2007,0,S_e
1777450198.809391,1894,0,S_e
1777450198.8123488,1861,0,S_e
1777450198.81662,2012,0,S_e
1777450198.81896,2222,0,S_e
1777450198.821883,2478,0,S_e
1777450198.824803,2145,0,S_e
1777450198.827567,2047,0,S_e
1777450198.830328,1709,0,S_e
1777450198.833324,2048,0,S_e
1777450198.8375309,1938,0,S_e
1777450198.8395011,2246,0,S_e
1777450198.843441,2377,0,S_e
1777450198.846316,1905,0,S_e
1777450198.848872,1958,0,S_e
1777450198.851373,2070,0,S_e
1777450198.857824,2177,0,S_e
1777450198.859085,1986,0,S_e
1777450198.8612401,1984,0,S_e
1777450198.865414,2328,0,S_e
1777450198.8667588,2055,0,S_e
1777450198.869369,1823,0,S_e
1777450198.872355,1918,0,S_e
1777450198.8785129,2084,0,S_e
1777450198.878876,2085,0,S_e
1777450198.882095,1887,0,S_e
1777450198.884747,2092,0,S_e
1777450198.887977,1940,0,S_e
1777450198.890523,2229,0,S_e
1777450198.893353,1691,0,S_e
1777450198.898864,2119,0,S_e
1777450198.8995242,2029,0,S_e
1777450198.902584,1944,0,S_e
1777450198.906514,2270,0,S_e
1777450198.9083571,1911,0,S_e
1777450198.9113688,2200,0,S_e
1777450198.91437,2016,0,S_e
1777450198.91935,1942,0,S_e
1777450198.9210691,1830,0,S_e
1777450198.9239209,2106,0,S_e
1777450198.926799,2008,0,S_e
1777450198.929476,1917,0,S_e
1777450198.932329,2008,0,S_e
1777450198.93536,2491,0,S_e
1777450198.939341,2313,0,S_e
1777450198.942268,2026,0,S_e
1777450198.946893,1898,0,S_e
1777450198.94828,2072,0,S_e
1777450198.950884,1817,0,S_e
1777450198.953436,2384,0,S_e
1777450198.959401,2208,0,S_e
1777450198.9600441,1919,0,S_e
1777450198.9632509,1534,0,S_e
1777450198.96625,2099,0,S_e
1777450198.969286,2070,0,S_e
1777450198.971839,2298,0,S_e
1777450198.97438,1969,0,S_e
1777450198.977369,2300,0,S_e
1777450198.981189,2157,0,S_e
1777450198.984551,2103,0,S_e
1777450199.016879,1869,0,S_e
1777450199.0170398,2156,0,S_e
1777450199.020561,2162,0,S_e
1777450199.020742,1967,0,S_e
1777450199.020791,1557,0,S_e
1777450199.0208151,1842,0,S_e
1777450199.020988,2238,0,S_e
1777450199.021157,2169,0,S_e
1777450199.021284,2007,0,S_e
1777450199.021352,1840,0,S_e
1777450199.021419,2033,0,S_e
1777450199.021472,2325,0,S_e
1777450199.0227919,2129,0,S_e
1777450199.034933,2028,0,S_e
1777450199.03507,1775,0,S_e
1777450199.035448,2186,0,S_e
1777450199.035834,2057,0,S_e
1777450199.0389,2059,0,S_e
1777450199.0407522,1845,0,S_e
1777450199.043308,2115,0,S_e
1777450199.04621,2172,0,S_e
1777450199.0492449,2027,0,S_e
1777450199.053827,1915,0,S_e
1777450199.055275,2064,0,S_e
1777450199.05939,1901,0,S_e
1777450199.061306,1941,0,S_e
1777450199.06423,2112,0,S_e
1777450199.0672069,2034,0,S_e
1777450199.074494,1925,0,S_e
1777450199.075178,2501,0,S_e
1777450199.0765738,2067,0,S_e
1777450199.0794291,2016,0,S_e
1777450199.0825129,2278,0,S_e
1777450199.0853062,2166,0,S_e
1777450199.088216,1930,0,S_e
1777450199.0912051,2095,0,S_e
1777450199.095226,2065,0,S_e
1777450199.097249,2013,0,S_e
1777450199.101321,1966,0,S_e
1777450199.103295,2044,0,S_e
1777450199.10623,1917,0,S_e
1777450199.1092029,1982,0,S_e
1777450199.112231,2040,0,S_e
1777450199.120492,2117,0,S_e
1777450199.121574,1699,0,S_e
1777450199.123452,2132,0,S_e
1777450199.1253152,2184,0,S_e
1777450199.128014,2029,0,S_e
1777450199.130568,2005,0,S_e
1777450199.133224,1764,0,S_e
1777450199.1395168,2252,0,S_e
1777450199.14145,2220,0,S_e
1777450199.143137,2035,0,S_e
1777450199.145865,2012,0,S_e
1777450199.149426,1882,0,S_e
1777450199.151233,2044,0,S_e
1777450199.1542459,1813,0,S_e
1777450199.157234,2199,0,S_e
1777450199.161767,2197,0,S_e
1777450199.163832,1994,0,S_e
1777450199.1680892,1971,0,S_e
1777450199.169796,2030,0,S_e
1777450199.172619,2094,0,S_e
1777450199.175241,2079,0,S_e
1777450199.178244,1950,0,S_e
1777450199.182255,1860,0,S_e
1777450199.185399,2468,0,S_e
1777450199.1882648,2214,0,S_e
1777450199.1902988,2117,0,S_e
1777450199.193228,2139,0,S_e
1777450199.196237,2101,0,S_e
1777450199.202821,1916,0,S_e
1777450199.2029388,1823,0,S_e
1777450199.205962,2517,0,S_e
1777450199.208447,2104,0,S_e
1777450199.2117271,2057,0,S_e
1777450199.2142751,1980,0,S_e
1777450199.217224,1985,0,S_e
1777450199.222815,1974,0,S_e
1777450199.223456,2190,0,S_e
1777450199.22647,2315,0,S_e
1777450199.230371,2123,0,S_e
1777450199.232233,1843,0,S_e
1777450199.23523,1927,0,S_e
1777450199.238231,1998,0,S_e
1777450199.242721,2063,0,S_e
1777450199.2446,2009,0,S_e
1777450199.24847,1537,0,S_e
1777450199.250313,2343,0,S_e
1777450199.2532349,2422,0,S_e
1777450199.256208,2318,0,S_e
1777450199.259836,2072,0,S_e
1777450199.2637792,1874,0,S_e
1777450199.265481,2129,0,S_e
1777450199.269523,2067,0,S_e
1777450199.272245,2038,0,S_e
1777450199.274806,2317,0,S_e
1777450199.2773619,1934,0,S_e
1777450199.280232,2234,0,S_e
1777450199.284686,1818,0,S_e
1777450199.2866292,1818,0,S_e
1777450199.290775,1935,0,S_e
1777450199.292492,2173,0,S_e
1777450199.295228,2541,0,S_e
1777450199.29823,1602,0,S_e
1777450199.301232,2275,0,S_e
1777450199.3050618,2685,0,S_e
1777450199.307279,2157,0,S_e
1777450199.311323,1982,0,S_e
1777450199.313258,1988,0,S_e
1777450199.316229,1970,0,S_e
1777450199.3192298,2059,0,S_e
1777450199.322285,2171,0,S_e
1777450199.325859,2083,0,S_e
1777450199.328817,2079,0,S_e
1777450199.332949,1922,0,S_e
1777450199.334673,1898,0,S_e
1777450199.3372421,1899,0,S_e
1777450199.340229,1827,0,S_e
1777450199.3462222,1877,0,S_e
1777450199.346524,2355,0,S_e
1777450199.3499289,2091,0,S_e
1777450199.353699,2258,0,S_e
1777450199.355454,2043,0,S_e
1777450199.358229,2113,0,S_e
1777450199.361197,2208,0,S_e
1777450199.366384,2097,0,S_e
1777450199.368612,1578,0,S_e
1777450199.370304,2625,0,S_e
1777450199.3747468,2338,0,S_e
1777450199.37654,1841,0,S_e
1777450199.379242,1909,0,S_e
1777450199.3822248,1979,0,S_e
1777450199.388177,2136,0,S_e
1777450199.3888059,2137,0,S_e
1777450199.391618,2146,0,S_e
1777450199.395948,2121,0,S_e
1777450199.3975942,1799,0,S_e
1777450199.400239,2037,0,S_e
1777450199.403237,2331,0,S_e
1777450199.409385,1935,0,S_e
1777450199.410021,2008,0,S_e
1777450199.413165,2027,0,S_e
1777450199.417376,2241,0,S_e
1777450199.418808,2412,0,S_e
1777450199.421557,2257,0,S_e
1777450199.424201,2004,0,S_e
1777450199.4273138,1921,0,S_e
1777450199.43062,1831,0,S_e
1777450199.434005,1928,0,S_e
1777450199.438266,2022,0,S_e
1777450199.439935,1982,0,S_e
1777450199.442476,2389,0,S_e
1777450199.446893,2196,0,S_e
1777450199.448318,1928,0,S_e
1777450199.453838,1913,0,S_e
1777450199.4554949,2051,0,S_e
1777450199.458059,2178,0,S_e
1777450199.4612749,2154,0,S_e
1777450199.463828,2076,0,S_e
1777450199.466389,1987,0,S_e
1777450199.469215,2152,0,S_e
1777450199.472996,2147,0,S_e
1777450199.476311,1983,0,S_e
1777450199.479199,1943,0,S_e
1777450199.481268,2092,0,S_e
1777450199.484225,2115,0,S_e
1777450199.487241,2058,0,S_e
1777450199.4902241,2144,0,S_e
1777450199.495113,1939,0,S_e
1777450199.496516,2098,0,S_e
1777450199.500545,1970,0,S_e
1777450199.5025222,2160,0,S_e
1777450199.505208,2128,0,S_e
1777450199.508827,2133,0,S_e
1777450199.511369,2087,0,S_e
1777450199.5155032,2043,0,S_e
1777450199.5182238,2028,0,S_e
1777450199.521255,2040,0,S_e
1777450199.523304,1979,0,S_e
1777450199.5262232,2079,0,S_e
1777450199.5291982,1996,0,S_e
1777450199.532317,1954,0,S_e
1777450199.5358999,2027,0,S_e
1777450199.539192,2126,0,S_e
1777450199.543425,2170,0,S_e
1777450199.5449018,2109,0,S_e
1777450199.5474482,1996,0,S_e
1777450199.550198,1948,0,S_e
1777450199.553233,2011,0,S_e
1777450199.557075,2062,0,S_e
1777450199.5601122,2107,0,S_e
1777450199.5630689,2009,0,S_e
1777450199.565239,1893,0,S_e
1777450199.568199,2093,0,S_e
1777450199.5712261,2125,0,S_e
1777450199.577507,2123,0,S_e
1777450199.578196,2033,0,S_e
1777450199.581239,1999,0,S_e
1777450199.584248,2000,0,S_e
1777450199.5862458,2053,0,S_e
1777450199.589228,2084,0,S_e
1777450199.592208,2121,0,S_e
1777450199.5952241,2059,0,S_e
1777450199.599284,1920,0,S_e
1777450199.602416,1972,0,S_e
1777450199.604491,2069,0,S_e
1777450199.607358,2095,0,S_e
1777450199.6101959,2058,0,S_e
1777450199.613227,2019,0,S_e
1777450199.616197,1970,0,S_e
1777450199.620173,2043,0,S_e
1777450199.623116,2080,0,S_e
1777450199.626147,2062,0,S_e
1777450199.6294668,1983,0,S_e
1777450199.631226,1907,0,S_e
1777450199.634197,1943,0,S_e
1777450199.637213,2006,0,S_e
1777450199.6410692,2036,0,S_e
1777450199.644406,1994,0,S_e
1777450199.6470678,1942,0,S_e
1777450199.650261,1891,0,S_e
1777450199.652769,1970,0,S_e
1777450199.6553211,2064,0,S_e
1777450199.661417,2044,0,S_e
1777450199.661995,2006,0,S_e
1777450199.665073,1899,0,S_e
1777450199.6674318,1936,0,S_e
1777450199.6708999,2034,0,S_e
1777450199.673457,2026,0,S_e
1777450199.676224,2031,0,S_e
1777450199.681908,1995,0,S_e
1777450199.682278,1951,0,S_e
1777450199.685984,1992,0,S_e
1777450199.688431,2073,0,S_e
1777450199.6918788,2069,0,S_e
1777450199.694431,1972,0,S_e
1777450199.697221,1932,0,S_e
1777450199.702993,1951,0,S_e
1777450199.7036722,2025,0,S_e
1777450199.7064772,2008,0,S_e
1777450199.710727,2017,0,S_e
1777450199.712376,1941,0,S_e
1777450199.715223,1888,0,S_e
1777450199.71822,1974,0,S_e
1777450199.7238789,2054,0,S_e
1777450199.724501,2020,0,S_e
1777450199.7276769,2003,0,S_e
1777450199.731935,1935,0,S_e
1777450199.7334452,1900,0,S_e
1777450199.736227,1987,0,S_e
1777450199.739226,2090,0,S_e
1777450199.744704,2059,0,S_e
1777450199.745345,1939,0,S_e
1777450199.748969,1899,0,S_e
1777450199.7523708,1921,0,S_e
1777450199.754252,2010,0,S_e
1777450199.757229,2071,0,S_e
1777450199.7601018,2019,0,S_e
1777450199.765324,1906,0,S_e
1777450199.767504,1925,0,S_e
1777450199.769734,2022,0,S_e
1777450199.7733738,2065,0,S_e
1777450199.77511,2059,0,S_e
1777450199.778097,1994,0,S_e
1777450199.7811232,1922,0,S_e
1777450199.786635,1958,0,S_e
1777450199.787256,2047,0,S_e
1777450199.7904902,2060,0,S_e
1777450199.7946088,2045,0,S_e
1777450199.79641,1947,0,S_e
1777450199.79909,1938,0,S_e
1777450199.802099,2014,0,S_e
1777450199.808438,2057,0,S_e
1777450199.809118,2070,0,S_e
1777450199.8120651,1959,0,S_e
1777450199.816261,1903,0,S_e
1777450199.817906,1970,0,S_e
1777450199.8205361,2045,0,S_e
1777450199.823135,2083,0,S_e
1777450199.829654,2069,0,S_e
1777450199.8297112,1936,0,S_e
1777450199.833107,1927,0,S_e
1777450199.8360782,2020,0,S_e
1777450199.838209,2073,0,S_e
1777450199.841113,2019,0,S_e
1777450199.844102,1957,0,S_e
1777450199.847141,1921,0,S_e
1777450199.8504472,1945,0,S_e
1777450199.853784,2017,0,S_e
1777450199.856713,2083,0,S_e
1777450199.859939,2066,0,S_e
1777450199.862485,1950,0,S_e
1777450199.865097,1913,0,S_e
1777450199.871231,1997,0,S_e
1777450199.87136,2083,0,S_e
1777450199.8754182,2049,0,S_e
1777450199.877526,2012,0,S_e
1777450199.880908,1915,0,S_e
1777450199.8834639,1943,0,S_e
1777450199.886115,2043,0,S_e
1777450199.889079,2081,0,S_e
1777450199.893208,2078,0,S_e
1777450199.8951008,1985,0,S_e
1777450199.899263,1914,0,S_e
1777450199.9011269,1971,0,S_e
1777450199.9041018,2049,0,S_e
1777450199.9070778,2099,0,S_e
1777450199.910131,2062,0,S_e
1777450199.914468,1952,0,S_e
1777450199.917221,1932,0,S_e
1777450199.919958,2016,0,S_e
1777450199.9221172,2112,0,S_e
1777450199.925101,2115,0,S_e
1777450199.928085,2063,0,S_e
1777450199.934486,1926,0,S_e
1777450199.934886,1949,0,S_e
1777450199.9379258,2070,0,S_e
1777450199.9422,2083,0,S_e
1777450199.9438322,2069,0,S_e
1777450199.946384,1990,0,S_e
1777450199.949096,1993,0,S_e
1777450199.955331,2041,0,S_e
1777450199.956346,2038,0,S_e
1777450199.9588668,2099,0,S_e
1777450199.9631019,2036,0,S_e
1777450199.964467,1955,0,S_e
1777450199.9675379,2003,0,S_e
1777450199.970071,2089,0,S_e
1777450199.9730701,2063,0,S_e
1777450199.97771,2052,0,S_e
1777450199.9798741,2035,0,S_e
1777450199.9828439,1973,0,S_e
1777450199.985774,2047,0,S_e
1777450199.988394,2079,0,S_e
1777450199.991091,2127,0,S_e
1777450199.994069,2068,0,S_e
1777450199.9986691,1982,0,S_e
1777450200.0005949,2004,0,S_e
1777450200.004533,2085,0,S_e
1777450200.0064828,2102,0,S_e
1777450200.0091672,2109,0,S_e
1777450200.012075,2032,0,S_e
1777450200.015088,1980,0,S_e
1777450200.01953,2042,0,S_e
1777450200.021332,2111,0,S_e
1777450200.025449,2116,0,S_e
1777450200.027312,2044,0,S_e
1777450200.0300758,1981,0,S_e
1777450200.033076,1985,0,S_e
1777450200.036654,2078,0,S_e
1777450200.040473,2116,0,S_e
1777450200.043117,2088,0,S_e
1777450200.045134,2014,0,S_e
1777450200.049546,1959,0,S_e
1777450200.051472,2013,0,S_e
1777450200.054209,2086,0,S_e
1777450200.0571048,2132,0,S_e
1777450200.0631812,2070,0,S_e
1777450200.06362,1979,0,S_e
1777450200.066754,1989,0,S_e
1777450200.06922,2051,0,S_e
1777450200.072287,2128,0,S_e
1777450200.0751948,2125,0,S_e
1777450200.078124,2046,0,S_e
1777450200.081107,1947,0,S_e
1777450200.0842712,2012,0,S_e
1777450200.093442,2078,0,S_e
1777450200.0950038,2102,0,S_e
1777450200.097982,2050,0,S_e
1777450200.098476,1977,0,S_e
1777450200.100087,1961,0,S_e
1777450200.102821,2040,0,S_e
1777450200.105385,2093,0,S_e
1777450200.108232,2102,0,S_e
1777450200.112213,2020,0,S_e
1777450200.1144419,1960,0,S_e
1777450200.117286,1999,0,S_e
1777450200.12038,2089,0,S_e
1777450200.123151,2116,0,S_e
1777450200.1260722,2069,0,S_e
1777450200.12908,1988,0,S_e
1777450200.135093,1999,0,S_e
1777450200.136161,2082,0,S_e
1777450200.138749,2125,0,S_e
1777450200.143178,2167,0,S_e
1777450200.145074,2076,0,S_e
1777450200.1476412,1983,0,S_e
1777450200.150203,2047,0,S_e
1777450200.153176,2101,0,S_e
1777450200.1581051,2168,0,S_e
1777450200.159599,2140,0,S_e
1777450200.1637561,2051,0,S_e
1777450200.1656241,2018,0,S_e
1777450200.1682382,2080,0,S_e
1777450200.171076,2134,0,S_e
1777450200.1740959,2156,0,S_e
1777450200.1787891,2095,0,S_e
1777450200.180759,1993,0,S_e
1777450200.184865,1966,0,S_e
1777450200.18698,2063,0,S_e
1777450200.189738,2097,0,S_e
1777450200.192291,2093,0,S_e
1777450200.195067,2010,0,S_e
1777450200.201639,1956,0,S_e
1777450200.204489,1990,0,S_e
1777450200.206491,2070,0,S_e
1777450200.207996,2089,0,S_e
1777450200.210081,2055,0,S_e
1777450200.213384,1968,0,S_e
1777450200.2161868,1966,0,S_e
1777450200.219079,2063,0,S_e
1777450200.222715,2118,0,S_e
1777450200.227988,2115,0,S_e
1777450200.228432,2046,0,S_e
1777450200.232105,1932,0,S_e
1777450200.235125,2018,0,S_e
1777450200.237088,2076,0,S_e
1777450200.240098,2093,0,S_e
1777450200.24311,2038,0,S_e
1777450200.2461,1969,0,S_e
1777450200.250317,1963,0,S_e
1777450200.25215,2047,0,S_e
1777450200.2552068,2099,0,S_e
1777450200.258136,2101,0,S_e
1777450200.2610948,2028,0,S_e
1777450200.2640681,1966,0,S_e
1777450200.270118,1990,0,S_e
1777450200.270505,2053,0,S_e
1777450200.273878,2058,0,S_e
1777450200.27674,2066,0,S_e
1777450200.279655,2000,0,S_e
1777450200.2822201,1955,0,S_e
1777450200.285067,2010,0,S_e
1777450200.28812,2093,0,S_e
1777450200.291957,2121,0,S_e
1777450200.2941499,2048,0,S_e
1777450200.297312,1926,0,S_e
1777450200.3001611,1949,0,S_e
1777450200.303078,2058,0,S_e
1777450200.30606,2107,0,S_e
1777450200.30907,2063,0,S_e
1777450200.312068,1999,0,S_e
1777450200.316373,1960,0,S_e
1777450200.318398,1971,0,S_e
1777450200.321652,2025,0,S_e
1777450200.324526,2149,0,S_e
1777450200.3271601,2096,0,S_e
1777450200.330065,1983,0,S_e
1777450200.3330638,1938,0,S_e
1777450200.336073,2031,0,S_e
1777450200.340513,2104,0,S_e
1777450200.342465,2080,0,S_e
1777450200.345471,2043,0,S_e
1777450200.348324,1994,0,S_e
1777450200.3510778,2003,0,S_e
1777450200.354081,2084,0,S_e
1777450200.357184,2083,0,S_e
1777450200.360838,2057,0,S_e
1777450200.363104,1968,0,S_e
1777450200.367264,1986,0,S_e
1777450200.369143,2022,0,S_e
1777450200.3721018,2105,0,S_e
1777450200.3751712,2080,0,S_e
1777450200.3787751,2014,0,S_e
1777450200.381546,1934,0,S_e
1777450200.3854048,1997,0,S_e
1777450200.3876271,2079,0,S_e
1777450200.3920069,2077,0,S_e
1777450200.3940768,2045,0,S_e
1777450200.396677,2025,0,S_e
1777450200.399255,1959,0,S_e
1777450200.4020731,2036,0,S_e
1777450200.405074,2103,0,S_e
1777450200.410777,2101,0,S_e
1777450200.41121,2071,0,S_e
1777450200.414701,1982,0,S_e
1777450200.417155,2001,0,S_e
1777450200.4210508,2071,0,S_e
1777450200.423125,2113,0,S_e
1777450200.426186,2091,0,S_e
1777450200.434432,1986,0,S_e
1777450200.4411461,1970,0,S_e
1777450200.442846,2042,0,S_e
1777450200.443586,2120,0,S_e
1777450200.4436438,2109,0,S_e
1777450200.444065,2065,0,S_e
1777450200.4474912,1943,0,S_e
1777450200.4501388,1991,0,S_e
1777450200.453106,2076,0,S_e
1777450200.4560928,2130,0,S_e
1777450200.459082,2105,0,S_e
1777450200.4620988,1999,0,S_e
1777450200.465101,1942,0,S_e
1777450200.4766889,2042,0,S_e
1777450200.481298,2131,0,S_e
1777450200.483337,2126,0,S_e
1777450200.4839091,2065,0,S_e
1777450200.483979,1975,0,S_e
1777450200.4840052,2004,0,S_e
1777450200.486637,2068,0,S_e
1777450200.493886,2120,0,S_e
1777450200.4942532,2102,0,S_e
1777450200.500397,1996,0,S_e
1777450200.50064,1938,0,S_e
1777450200.502683,2024,0,S_e
1777450200.504844,2052,0,S_e
1777450200.507545,2081,0,S_e
1777450200.5103328,1992,0,S_e
1777450200.517877,1970,0,S_e
1777450200.5180569,1943,0,S_e
1777450200.521633,2031,0,S_e
1777450200.524943,2182,0,S_e
1777450200.5250869,2103,0,S_e
1777450200.528092,2035,0,S_e
1777450200.530999,1995,0,S_e
1777450200.534038,2003,0,S_e
1777450200.543475,2081,0,S_e
1777450200.544645,2108,0,S_e
1777450200.544791,2065,0,S_e
1777450200.548764,1965,0,S_e
1777450200.5502899,1941,0,S_e
1777450200.551955,2010,0,S_e
1777450200.554993,2098,0,S_e
1777450200.557962,2016,0,S_e
1777450200.5654578,2044,0,S_e
1777450200.565674,2038,0,S_e
1777450200.5677881,1962,0,S_e
1777450200.570139,1961,0,S_e
1777450200.573694,2084,0,S_e
1777450200.57641,2129,0,S_e
1777450200.579044,1987,0,S_e
1777450200.581974,1930,0,S_e
1777450200.586448,2054,0,S_e
1777450200.591747,2109,0,S_e
1777450200.593368,2092,0,S_e
1777450200.5951319,2011,0,S_e
1777450200.5970519,1930,0,S_e
1777450200.599958,1992,0,S_e
1777450200.602966,2012,0,S_e
1777450200.6092641,1981,0,S_e
1777450200.610924,1936,0,S_e
1777450200.6146822,1935,0,S_e
1777450200.615099,2075,0,S_e
1777450200.618028,1976,0,S_e
1777450200.620991,2045,0,S_e
1777450200.623961,1998,0,S_e
1777450200.626962,2026,0,S_e
1777450200.6337469,1944,0,S_e
1777450200.635134,1642,0,S_e
1777450200.640026,2064,0,S_e
1777450200.640311,2296,0,S_e
1777450200.642061,2077,0,S_e
1777450200.6449668,1947,0,S_e
1777450200.64796,1882,0,S_e
1777450200.6546402,2097,0,S_e
1777450200.6570702,2176,0,S_e
1777450200.6573088,2028,0,S_e
1777450200.6617029,2082,0,S_e
1777450200.663753,1965,0,S_e
1777450200.666595,1832,0,S_e
1777450200.669228,2021,0,S_e
1777450200.671982,2117,0,S_e
1777450200.678358,2240,0,S_e
1777450200.678774,2079,0,S_e
1777450200.686054,2003,0,S_e
1777450200.6874838,1994,0,S_e
1777450200.688041,2017,0,S_e
1777450200.6900392,2031,0,S_e
1777450200.692962,1951,0,S_e
1777450200.6959832,1958,0,S_e
1777450200.702323,1955,0,S_e
1777450200.7026482,1944,0,S_e
1777450200.70685,2242,0,S_e
1777450200.7086048,2069,0,S_e
1777450200.7114298,2303,0,S_e
1777450200.714159,2221,0,S_e
1777450200.7169669,2085,0,S_e
1777450200.722933,2065,0,S_e
1777450200.7234519,1981,0,S_e
1777450200.726839,2154,0,S_e
1777450200.730338,1893,0,S_e
1777450200.7323132,1867,0,S_e
1777450200.7350762,2087,0,S_e
1777450200.737966,2211,0,S_e
1777450200.74101,2158,0,S_e
1777450200.747207,2011,0,S_e
1777450200.7479308,1956,0,S_e
1777450200.751416,2120,0,S_e
1777450200.755575,2186,0,S_e
1777450200.755983,2110,0,S_e
1777450200.7589881,2041,0,S_e
1777450200.7619689,2106,0,S_e
1777450200.764951,1960,0,S_e
1777450200.7713761,2003,0,S_e
1777450200.774996,1898,0,S_e
1777450200.779522,2019,0,S_e
1777450200.780241,2122,0,S_e
1777450200.782075,2183,0,S_e
1777450200.7834702,1917,0,S_e
1777450200.7861388,2007,0,S_e
1777450200.788966,2175,0,S_e
1777450200.7973819,2160,0,S_e
1777450200.797694,1671,0,S_e
1777450200.799586,1753,0,S_e
1777450200.8014998,2624,0,S_e
1777450200.806611,2053,0,S_e
1777450200.806962,1930,0,S_e
1777450200.809979,2040,0,S_e
1777450200.812971,2136,0,S_e
1777450200.815983,2171,0,S_e
1777450200.822418,2209,0,S_e
1777450200.822549,2210,0,S_e
1777450200.825978,2158,0,S_e
1777450200.829155,1996,0,S_e
1777450200.83125,1841,0,S_e
1777450200.8339741,1806,0,S_e
1777450200.837147,1824,0,S_e
1777450200.839956,2156,0,S_e
1777450200.8448389,2330,0,S_e
1777450200.8489668,1761,0,S_e
1777450200.851632,1378,0,S_e
1777450200.8534222,2836,0,S_e
1777450200.855385,2595,0,S_e
1777450200.858103,2344,0,S_e
1777450200.8625338,2216,0,S_e
1777450200.863971,1758,0,S_e
1777450200.8702788,1905,0,S_e
1777450200.8734589,2092,0,S_e
1777450200.874959,2360,0,S_e
1777450200.879076,2196,0,S_e
1777450200.87928,1996,0,S_e
1777450200.882358,1699,0,S_e
1777450200.885024,1678,0,S_e
1777450200.887959,1973,0,S_e
1777450200.8952918,2789,0,S_e
1777450200.8971462,2098,0,S_e
1777450200.899301,1718,0,S_e
1777450200.900685,1581,0,S_e
1777450200.904421,2159,0,S_e
1777450200.906516,2577,0,S_e
1777450200.90918,2182,0,S_e
1777450200.917129,2104,0,S_e
1777450200.9173892,1898,0,S_e
1777450200.919313,2044,0,S_e
1777450200.9211478,2159,0,S_e
1777450200.924264,1860,0,S_e
1777450200.927419,1965,0,S_e
1777450200.930151,2248,0,S_e
1777450200.93296,1953,0,S_e
1777450200.939838,1889,0,S_e
1777450200.940563,1987,0,S_e
1777450200.943243,2136,0,S_e
1777450200.9450848,2134,0,S_e
1777450200.948456,1926,0,S_e
1777450200.951326,1876,0,S_e
1777450200.953989,2135,0,S_e
1777450200.959536,1931,0,S_e
1777450200.9602401,2187,0,S_e
1777450200.963506,1738,0,S_e
1777450200.966443,2250,0,S_e
1777450200.969598,2400,0,S_e
1777450200.972159,2081,0,S_e
1777450200.9749491,1985,0,S_e
1777450200.977952,2051,0,S_e
1777450200.983047,2341,0,S_e
1777450200.9850361,1807,0,S_e
1777450200.9879968,2176,0,S_e
1777450200.99113,2281,0,S_e
1777450200.992969,1821,0,S_e
1777450200.9959412,2061,0,S_e
1777450200.9989388,1804,0,S_e
1777450201.00212,2335,0,S_e
1777450201.005503,2074,0,S_e
1777450201.008996,2367,0,S_e
1777450201.0120552,1961,0,S_e
1777450201.013967,1883,0,S_e
1777450201.016942,2277,0,S_e
1777450201.0201359,1769,0,S_e
1777450201.022977,2422,0,S_e
1777450201.0291562,2258,0,S_e
1777450201.0295281,1694,0,S_e
1777450201.032526,2243,0,S_e
1777450201.0366561,2046,0,S_e
1777450201.038561,1619,0,S_e
1777450201.0411048,1831,0,S_e
1777450201.043821,2377,0,S_e
1777450201.046844,2271,0,S_e
1777450201.0503,2496,0,S_e
1777450201.054155,2349,0,S_e
1777450201.055968,2183,0,S_e
1777450201.058903,1915,0,S_e
1777450201.06185,2176,0,S_e
1777450201.064826,1895,0,S_e
1777450201.067811,1932,0,S_e
1777450201.072086,2119,0,S_e
1777450201.073865,2209,0,S_e
1777450201.077041,1631,0,S_e
1777450201.079882,2081,0,S_e
1777450201.082827,2247,0,S_e
1777450201.085984,1921,0,S_e
1777450201.088821,1955,0,S_e
1777450201.094086,2191,0,S_e
1777450201.096312,2498,0,S_e
1777450201.098478,1428,0,S_e
1777450201.10236,2184,0,S_e
1777450201.1041028,2280,0,S_e
1777450201.1068192,1699,0,S_e
1777450201.1098251,2233,0,S_e
1777450201.114465,2180,0,S_e
1777450201.116521,1680,0,S_e
1777450201.1189451,2198,0,S_e
1777450201.122574,2233,0,S_e
1777450201.1252291,2290,0,S_e
1777450201.127908,1825,0,S_e
1777450201.130815,1796,0,S_e
1777450201.136445,1812,0,S_e
1777450201.137034,1889,0,S_e
1777450201.1404312,1903,0,S_e
1777450201.1439621,2660,0,S_e
1777450201.1458611,2142,0,S_e
1777450201.148845,2029,0,S_e
1777450201.15185,1998,0,S_e
1777450201.1566799,1570,0,S_e
1777450201.158814,2828,0,S_e
1777450201.1611671,2300,0,S_e
1777450201.164951,2102,0,S_e
1777450201.1668422,1841,0,S_e
1777450201.169852,1553,0,S_e
1777450201.172839,2227,0,S_e
1777450201.177968,1986,0,S_e
1777450201.180157,1915,0,S_e
1777450201.181932,2051,0,S_e
1777450201.185971,2049,0,S_e
1777450201.187833,2206,0,S_e
1777450201.1911192,2240,0,S_e
1777450201.193834,1952,0,S_e
1777450201.196825,1917,0,S_e
1777450201.2027872,2042,0,S_e
1777450201.2034712,1914,0,S_e
1777450201.206729,2130,0,S_e
1777450201.209397,1920,0,S_e
1777450201.21277,2153,0,S_e
1777450201.21532,1916,0,S_e
1777450201.2178729,2160,0,S_e
1777450201.220813,1886,0,S_e
1777450201.2238379,2291,0,S_e
1777450201.229342,2281,0,S_e
1777450201.2308202,1991,0,S_e
1777450201.2333481,1793,0,S_e
1777450201.2366421,2095,0,S_e
1777450201.239284,1649,0,S_e
1777450201.2418401,2300,0,S_e
1777450201.244821,2137,0,S_e
1777450201.247819,2160,0,S_e
1777450201.253262,1511,0,S_e
1777450201.2542799,2346,0,S_e
1777450201.257504,2310,0,S_e
1777450201.261878,1948,0,S_e
1777450201.263345,2556,0,S_e
1777450201.266197,1970,0,S_e
1777450201.2688699,1740,0,S_e
1777450201.2718132,2307,0,S_e
1777450201.274812,2312,0,S_e
1777450201.280567,2049,0,S_e
1777450201.281827,1910,0,S_e
1777450201.283893,1882,0,S_e
1777450201.288008,1949,0,S_e
1777450201.2898738,1910,0,S_e
1777450201.2928371,1756,0,S_e
1777450201.295819,2134,0,S_e
1777450201.298812,2128,0,S_e
1777450201.304568,2205,0,S_e
1777450201.306057,2053,0,S_e
1777450201.3083231,1991,0,S_e
1777450201.3124301,2260,0,S_e
1777450201.314304,1999,0,S_e
1777450201.316872,2200,0,S_e
1777450201.3198762,2229,0,S_e
1777450201.322881,1945,0,S_e
1777450201.325879,1910,0,S_e
1777450201.3388531,1857,0,S_e
1777450201.339052,1732,0,S_e
1777450201.3406012,1982,0,S_e
1777450201.3411431,2388,0,S_e
1777450201.341171,2307,0,S_e
1777450201.3438668,1943,0,S_e
1777450201.3468192,1737,0,S_e
1777450201.351678,2505,0,S_e
1777450201.354738,2333,0,S_e
1777450201.357836,1730,0,S_e
1777450201.359809,1755,0,S_e
1777450201.36184,2510,0,S_e
1777450201.3648121,2756,0,S_e
1777450201.367813,2111,0,S_e
1777450201.3708138,2062,0,S_e
1777450201.379711,1999,0,S_e
1777450201.382389,2085,0,S_e
1777450201.3848991,1898,0,S_e
1777450201.385083,2282,0,S_e
1777450201.387407,2116,0,S_e
1777450201.388819,1970,0,S_e
1777450201.391812,2002,0,S_e
1777450201.398292,1965,0,S_e
1777450201.39988,1925,0,S_e
1777450201.401869,2060,0,S_e
1777450201.404431,1971,0,S_e
1777450201.408224,2305,0,S_e
1777450201.4098601,2396,0,S_e
1777450201.412873,1612,0,S_e
1777450201.415824,1908,0,S_e
1777450201.422091,2284,0,S_e
1777450201.423212,2160,0,S_e
1777450201.426806,2068,0,S_e
1777450201.4282439,2096,0,S_e
1777450201.431315,2132,0,S_e
1777450201.433973,1940,0,S_e
1777450201.4368582,1969,0,S_e
1777450201.4431732,2034,0,S_e
1777450201.444761,2907,0,S_e
1777450201.44646,2077,0,S_e
1777450201.449148,2016,0,S_e
1777450201.452833,2248,0,S_e
1777450201.4553862,2261,0,S_e
1777450201.457929,2176,0,S_e
1777450201.4606988,2048,0,S_e
1777450201.464788,2237,0,S_e
1777450201.4668381,1973,0,S_e
1777450201.4699142,1548,0,S_e
1777450201.4729521,2329,0,S_e
1777450201.475765,2402,0,S_e
1777450201.478692,2015,0,S_e
1777450201.481712,2158,0,S_e
1777450201.485473,2023,0,S_e
1777450201.4887838,2087,0,S_e
1777450201.491364,1957,0,S_e
1777450201.494754,2197,0,S_e
1777450201.497308,2193,0,S_e
1777450201.49986,2102,0,S_e
1777450201.502738,1775,0,S_e
1777450201.508352,2037,0,S_e
1777450201.508936,2663,0,S_e
1777450201.512164,2177,0,S_e
1777450201.516203,1818,0,S_e
1777450201.517975,2043,0,S_e
1777450201.520716,1965,0,S_e
1777450201.5237381,2184,0,S_e
1777450201.528199,1986,0,S_e
1777450201.530255,2101,0,S_e
1777450201.534344,2034,0,S_e
1777450201.536351,2498,0,S_e
1777450201.538945,2253,0,S_e
1777450201.5417302,2148,0,S_e
1777450201.544682,2183,0,S_e
1777450201.5503428,2146,0,S_e
1777450201.5510259,1885,0,S_e
1777450201.55478,1966,0,S_e
1777450201.556915,2365,0,S_e
1777450201.5606961,2040,0,S_e
1777450201.5632598,2032,0,S_e
1777450201.565856,2149,0,S_e
1777450201.570666,2099,0,S_e
1777450201.5724952,2112,0,S_e
1777450201.575304,2175,0,S_e
1777450201.578534,1901,0,S_e
1777450201.5811598,1889,0,S_e
1777450201.583752,2529,0,S_e
1777450201.586695,2258,0,S_e
1777450201.59234,2081,0,S_e
1777450201.593048,2100,0,S_e
1777450201.5969868,2137,0,S_e
1777450201.598794,1905,0,S_e
1777450201.602771,1808,0,S_e
1777450201.6053429,2706,0,S_e
1777450201.607899,2211,0,S_e
1777450201.612303,2110,0,S_e
1777450201.614393,2054,0,S_e
1777450201.618415,1972,0,S_e
1777450201.620349,2173,0,S_e
1777450201.623188,2306,0,S_e
1777450201.625731,2209,0,S_e
1777450201.6286871,2027,0,S_e
1777450201.633607,1608,0,S_e
1777450201.6357608,2550,0,S_e
1777450201.6380632,2023,0,S_e
1777450201.641919,2030,0,S_e
1777450201.643713,2163,0,S_e
1777450201.646917,2236,0,S_e
1777450201.649722,2303,0,S_e
1777450201.6541922,2351,0,S_e
1777450201.656037,2322,0,S_e
1777450201.658821,2169,0,S_e
1777450201.661797,1989,0,S_e
1777450201.664711,1993,0,S_e
1777450201.667705,2032,0,S_e
1777450201.670728,2057,0,S_e
1777450201.674623,2018,0,S_e
1777450201.6777039,2362,0,S_e
1777450201.6806169,2109,0,S_e
1777450201.6827672,2093,0,S_e
1777450201.685698,2142,0,S_e
1777450201.68871,2118,0,S_e
1777450201.691684,2266,0,S_e
1777450201.696409,2229,0,S_e
1777450201.69941,2160,0,S_e
1777450201.702059,2139,0,S_e
1777450201.7040262,2178,0,S_e
1777450201.7067258,2138,0,S_e
1777450201.709685,2073,0,S_e
1777450201.712684,2006,0,S_e
1777450201.716653,2041,0,S_e
1777450201.719847,2096,0,S_e
1777450201.72282,2137,0,S_e
1777450201.725211,2178,0,S_e
1777450201.727992,2127,0,S_e
1777450201.730714,2043,0,S_e
1777450201.733711,2058,0,S_e
1777450201.737804,2093,0,S_e
1777450201.739962,2042,0,S_e
1777450201.74393,2176,0,S_e
1777450201.745928,2087,0,S_e
1777450201.748731,2009,0,S_e
1777450201.751741,2027,0,S_e
1777450201.7546968,2056,0,S_e
1777450201.759052,2106,0,S_e
1777450201.76096,2233,0,S_e
1777450201.7637749,2019,0,S_e
1777450201.766786,2070,0,S_e
1777450201.7697248,2168,0,S_e
1777450201.772713,2168,0,S_e
1777450201.77568,2236,0,S_e
1777450201.780524,2134,0,S_e
1777450201.782182,2013,0,S_e
1777450201.786293,2065,0,S_e
1777450201.788555,2100,0,S_e
1777450201.79126,2076,0,S_e
1777450201.793877,2063,0,S_e
1777450201.7966862,1968,0,S_e
1777450201.802882,1977,0,S_e
1777450201.802953,2045,0,S_e
1777450201.806546,2095,0,S_e
1777450201.808796,2109,0,S_e
1777450201.8123362,2065,0,S_e
1777450201.8149,2008,0,S_e
1777450201.817599,1990,0,S_e
1777450201.8205838,2114,0,S_e
1777450201.82446,2161,0,S_e
1777450201.8266728,2129,0,S_e
1777450201.829685,2068,0,S_e
1777450201.8327858,2038,0,S_e
1777450201.835586,2106,0,S_e
1777450201.838568,2102,0,S_e
1777450201.841563,2142,0,S_e
1777450201.846546,2085,0,S_e
1777450201.848646,2066,0,S_e
1777450201.852607,2034,0,S_e
1777450201.854753,2116,0,S_e
1777450201.8565881,2165,0,S_e
1777450201.8595998,2120,0,S_e
1777450201.862571,2011,0,S_e
1777450201.868438,1987,0,S_e
1777450201.868793,2068,0,S_e
1777450201.871606,2124,0,S_e
1777450201.876242,2096,0,S_e
1777450201.878098,2069,0,S_e
1777450201.880645,2007,0,S_e
1777450201.8835661,1998,0,S_e
1777450201.886564,2109,0,S_e
1777450201.890465,2133,0,S_e
1777450201.893533,2075,0,S_e
1777450201.8967779,2011,0,S_e
1777450201.898859,1948,0,S_e
1777450201.901663,2045,0,S_e
1777450201.904564,2080,0,S_e
1777450201.907559,2061,0,S_e
1777450201.912302,2047,0,S_e
1777450201.914347,1962,0,S_e
1777450201.920348,1964,0,S_e
1777450201.9204638,2040,0,S_e
1777450201.923038,2077,0,S_e
1777450201.925588,2050,0,S_e
1777450201.92858,1977,0,S_e
1777450201.9334989,1942,0,S_e
1777450201.935576,1951,0,S_e
1777450201.939517,2044,0,S_e
1777450201.9415622,2093,0,S_e
1777450201.944174,2045,0,S_e
1777450201.946592,1944,0,S_e
1777450201.949583,1956,0,S_e
1777450201.9549692,2052,0,S_e
1777450201.956633,2064,0,S_e
1777450201.958633,2064,0,S_e
1777450201.962678,2008,0,S_e
1777450201.964556,1958,0,S_e
1777450201.967581,1998,0,S_e
1777450201.970588,2058,0,S_e
1777450201.9750772,2091,0,S_e
1777450201.977479,2097,0,S_e
1777450201.980008,2012,0,S_e
1777450201.983826,1963,0,S_e
1777450201.9856,2063,0,S_e
1777450201.988597,2115,0,S_e
1777450201.991592,2108,0,S_e
1777450201.997283,2018,0,S_e
1777450201.997654,1963,0,S_e
1777450202.001119,1978,0,S_e
1777450202.0052412,2059,0,S_e
1777450202.006978,2083,0,S_e
1777450202.009569,2018,0,S_e
1777450202.012608,1979,0,S_e
1777450202.0183702,1942,0,S_e
1777450202.01907,1994,0,S_e
1777450202.022078,2106,0,S_e
1777450202.0262709,2075,0,S_e
1777450202.028063,2025,0,S_e
1777450202.030619,1951,0,S_e
1777450202.033586,1962,0,S_e
1777450202.039634,2022,0,S_e
1777450202.039712,2095,0,S_e
1777450202.0434508,2069,0,S_e
1777450202.045849,1912,0,S_e
1777450202.0495,1913,0,S_e
1777450202.051834,1975,0,S_e
1777450202.0545669,2041,0,S_e
1777450202.0605829,2043,0,S_e
1777450202.060936,2041,0,S_e
1777450202.064606,1909,0,S_e
1777450202.0670369,1899,0,S_e
1777450202.070483,2029,0,S_e
1777450202.0730371,2082,0,S_e
1777450202.0755992,2030,0,S_e
1777450202.078463,2034,0,S_e
1777450202.081812,1946,0,S_e
1777450202.08588,1985,0,S_e
1777450202.0874538,2065,0,S_e
1777450202.090517,2034,0,S_e
1777450202.0934389,2052,0,S_e
1777450202.0964448,1978,0,S_e
1777450202.0994549,1930,0,S_e
1777450202.102997,1980,0,S_e
1777450202.106539,2045,0,S_e
1777450202.110836,2064,0,S_e
1777450202.112488,1994,0,S_e
1777450202.115037,1939,0,S_e
1777450202.117606,1988,0,S_e
1777450202.1204648,2027,0,S_e
1777450202.1250932,2008,0,S_e
1777450202.1267881,1929,0,S_e
1777450202.12991,1959,0,S_e
1777450202.132823,1866,0,S_e
1777450202.135529,2002,0,S_e
1777450202.138438,2055,0,S_e
1777450202.141432,2018,0,S_e
1777450202.145615,2038,0,S_e
1777450202.147805,1923,0,S_e
1777450202.151731,1970,0,S_e
1777450202.153756,2048,0,S_e
1777450202.156694,2102,0,S_e
1777450202.1594381,2017,0,S_e
1777450202.162465,1977,0,S_e
1777450202.166796,1890,0,S_e
1777450202.169008,1967,0,S_e
1777450202.172137,2078,0,S_e
1777450202.175073,2093,0,S_e
1777450202.1778061,2035,0,S_e
1777450202.1804612,1941,0,S_e
1777450202.183455,1939,0,S_e
1777450202.187799,2049,0,S_e
1777450202.18975,2149,0,S_e
1777450202.195713,2074,0,S_e
1777450202.195953,1992,0,S_e
1777450202.198564,1967,0,S_e
1777450202.201439,2041,0,S_e
1777450202.204473,2088,0,S_e
1777450202.2087302,2133,0,S_e
1777450202.210777,2089,0,S_e
1777450202.214761,1980,0,S_e
1777450202.216861,1984,0,S_e
1777450202.2196,2094,0,S_e
1777450202.222462,2128,0,S_e
1777450202.225431,2129,0,S_e
1777450202.229753,2039,0,S_e
1777450202.2315168,1980,0,S_e
1777450202.2355998,2040,0,S_e
1777450202.237607,2109,0,S_e
1777450202.240453,2132,0,S_e
1777450202.2434418,2090,0,S_e
1777450202.246441,1977,0,S_e
1777450202.2515478,1982,0,S_e
1777450202.253645,2057,0,S_e
1777450202.255946,2104,0,S_e
1777450202.2597802,2102,0,S_e
1777450202.261468,2001,0,S_e
1777450202.2644649,1968,0,S_e
1777450202.2674649,1992,0,S_e
1777450202.27296,2074,0,S_e
1777450202.275048,2082,0,S_e
1777450202.276785,2081,0,S_e
1777450202.2811048,1984,0,S_e
1777450202.2825322,1947,0,S_e
1777450202.285461,2054,0,S_e
1777450202.2884748,2083,0,S_e
1777450202.2941911,2074,0,S_e
1777450202.2946491,2000,0,S_e
1777450202.29809,1934,0,S_e
1777450202.302071,1981,0,S_e
1777450202.303713,2073,0,S_e
1777450202.3064399,2094,0,S_e
1777450202.310066,2059,0,S_e
1777450202.3157902,1980,0,S_e
1777450202.3164759,1954,0,S_e
1777450202.318984,2038,0,S_e
1777450202.323776,2058,0,S_e
1777450202.325354,2100,0,S_e
1777450202.327896,2016,0,S_e
1777450202.330457,1944,0,S_e
1777450202.336734,1960,0,S_e
1777450202.337695,2059,0,S_e
1777450202.340245,2100,0,S_e
1777450202.343123,2079,0,S_e
1777450202.346538,2020,0,S_e
1777450202.349098,1968,0,S_e
1777450202.351647,2018,0,S_e
1777450202.354468,2081,0,S_e
1777450202.359471,2107,0,S_e
1777450202.361616,2054,0,S_e
1777450202.3634949,1973,0,S_e
1777450202.3678951,1958,0,S_e
1777450202.369774,2043,0,S_e
1777450202.372442,2110,0,S_e
1777450202.3754492,2090,0,S_e
1777450202.3815439,2058,0,S_e
1777450202.381614,1977,0,S_e
1777450202.384684,1981,0,S_e
1777450202.389175,2015,0,S_e
1777450202.390785,2096,0,S_e
1777450202.393466,2052,0,S_e
1777450202.396458,1973,0,S_e
1777450202.4023108,1969,0,S_e
1777450202.402706,2051,0,S_e
1777450202.406382,2092,0,S_e
1777450202.408504,2071,0,S_e
1777450202.4121332,2059,0,S_e
1777450202.4147332,1975,0,S_e
1777450202.41745,1991,0,S_e
1777450202.420668,2032,0,S_e
1777450202.427116,2036,0,S_e
1777450202.431828,2038,0,S_e
1777450202.434082,2004,0,S_e
1777450202.434597,1944,0,S_e
1777450202.4367008,2056,0,S_e
1777450202.438459,2089,0,S_e
1777450202.441458,2081,0,S_e
1777450202.444448,2044,0,S_e
1777450202.449889,1963,0,S_e
1777450202.4514802,1948,0,S_e
1777450202.455963,2014,0,S_e
1777450202.458366,2102,0,S_e
1777450202.460141,2059,0,S_e
1777450202.46286,1952,0,S_e
1777450202.465609,1929,0,S_e
1777450202.468447,2007,0,S_e
1777450202.473022,2064,0,S_e
1777450202.4748669,2112,0,S_e
1777450202.4780009,2069,0,S_e
1777450202.4810581,1956,0,S_e
1777450202.483747,1993,0,S_e
1777450202.486432,2054,0,S_e
1777450202.489434,2128,0,S_e
1777450202.494324,2123,0,S_e
1777450202.496792,2011,0,S_e
1777450202.4988532,1963,0,S_e
1777450202.502859,2029,0,S_e
1777450202.504638,2075,0,S_e
1777450202.507553,2092,0,S_e
1777450202.510433,2065,0,S_e
1777450202.51669,1981,0,S_e
1777450202.517112,1971,0,S_e
1777450202.5203588,2025,0,S_e
1777450202.5245938,2121,0,S_e
1777450202.5263941,2103,0,S_e
1777450202.528943,1995,0,S_e
1777450202.5315049,1944,0,S_e
1777450202.534442,1989,0,S_e
1777450202.5383859,2054,0,S_e
1777450202.541622,2080,0,S_e
1777450202.545984,2082,0,S_e
1777450202.5478919,2024,0,S_e
1777450202.549464,1958,0,S_e
1777450202.552452,2060,0,S_e
1777450202.555457,2120,0,S_e
1777450202.559743,2093,0,S_e
1777450202.561532,2032,0,S_e
1777450202.5674062,1962,0,S_e
1777450202.5674791,1983,0,S_e
1777450202.570452,2064,0,S_e
1777450202.573439,2112,0,S_e
1777450202.5764558,2090,0,S_e
1777450202.580836,2014,0,S_e
1777450202.582665,1970,0,S_e
1777450202.586613,2101,0,S_e
1777450202.588459,2087,0,S_e
1777450202.5914292,2085,0,S_e
1777450202.595065,2055,0,S_e
1777450202.597617,1987,0,S_e
1777450202.6023612,1983,0,S_e
1777450202.604474,2052,0,S_e
1777450202.6076741,2095,0,S_e
1777450202.610796,2086,0,S_e
1777450202.612911,2018,0,S_e
1777450202.615603,1986,0,S_e
1777450202.618527,2035,0,S_e
1777450202.6216588,2100,0,S_e
1777450202.6298518,2104,0,S_e
1777450202.631556,2061,0,S_e
1777450202.6317508,1972,0,S_e
1777450202.635413,1932,0,S_e
1777450202.6371672,2054,0,S_e
1777450202.6396968,2092,0,S_e
1777450202.6424608,2082,0,S_e
1777450202.6455429,1997,0,S_e
1777450202.650235,1952,0,S_e
1777450202.651829,1982,0,S_e
1777450202.65914,2080,0,S_e
1777450202.660991,2119,0,S_e
1777450202.6611478,2072,0,S_e
1777450202.663798,1974,0,S_e
1777450202.666529,1980,0,S_e
1777450202.6694798,2045,0,S_e
1777450202.677351,2121,0,S_e
1777450202.679702,2108,0,S_e
1777450202.6845171,2043,0,S_e
1777450202.686667,1964,0,S_e
1777450202.686849,1992,0,S_e
1777450202.687479,2082,0,S_e
1777450202.690469,2095,0,S_e
1777450202.693578,2061,0,S_e
1777450202.70643,1962,0,S_e
1777450202.710326,1944,0,S_e
1777450202.710403,2043,0,S_e
1777450202.710733,2111,0,S_e
1777450202.71079,2101,0,S_e
1777450202.7121658,2019,0,S_e
1777450202.714768,1925,0,S_e
1777450202.7183812,1946,0,S_e
1777450202.724582,2035,0,S_e
1777450202.726047,2114,0,S_e
1777450202.72914,2080,0,S_e
1777450202.730029,1953,0,S_e
1777450202.733632,1925,0,S_e
1777450202.73616,2009,0,S_e
1777450202.738871,2029,0,S_e
1777450202.74404,2039,0,S_e
1777450202.745108,2082,0,S_e
1777450202.7494872,1971,0,S_e
1777450202.753495,1974,0,S_e
1777450202.7539232,2033,0,S_e
1777450202.756654,2075,0,S_e
1777450202.759491,2021,0,S_e
1777450202.762465,1945,0,S_e
1777450202.773257,1922,0,S_e
1777450202.773857,2112,0,S_e
1777450202.7743201,2033,0,S_e
1777450202.775261,1964,0,S_e
1777450202.7777221,2014,0,S_e
1777450202.7816908,1979,0,S_e
1777450202.783473,1980,0,S_e
1777450202.793545,2038,0,S_e
1777450202.794776,2110,0,S_e
1777450202.795219,2063,0,S_e
1777450202.796043,1980,0,S_e
1777450202.799521,1822,0,S_e
1777450202.801553,1994,0,S_e
1777450202.804445,2143,0,S_e
1777450202.8074481,2053,0,S_e
1777450202.814364,2088,0,S_e
1777450202.816863,1922,0,S_e
1777450202.817101,1982,0,S_e
1777450202.822077,2114,0,S_e
1777450202.824167,2084,0,S_e
1777450202.826217,1950,0,S_e
1777450202.828864,1763,0,S_e
1777450202.831466,2196,0,S_e
1777450202.834441,1922,0,S_e
1777450202.840131,2106,0,S_e
1777450202.840959,2248,0,S_e
1777450202.843467,2167,0,S_e
1777450202.848593,2077,0,S_e
1777450202.85067,1949,0,S_e
1777450202.85244,2031,0,S_e
1777450202.8579662,2097,0,S_e
1777450202.858432,2156,0,S_e
1777450202.887003,2059,0,S_e
1777450202.887292,1783,0,S_e
1777450202.8873332,1867,0,S_e
1777450202.88736,2113,0,S_e
1777450202.887386,2007,0,S_e
1777450202.88741,2059,0,S_e
1777450202.887434,1992,0,S_e
1777450202.888021,1948,0,S_e
1777450202.888055,1910,0,S_e
1777450202.888577,2122,0,S_e
1777450202.8914628,1968,0,S_e
1777450202.897165,1880,0,S_e
1777450202.89754,1660,0,S_e
1777450202.900459,2234,0,S_e
1777450202.90346,2328,0,S_e
1777450202.910906,2187,0,S_e
1777450202.911414,1994,0,S_e
1777450202.9129941,1998,0,S_e
1777450202.9200268,1983,0,S_e
1777450202.920404,2042,0,S_e
1777450202.922675,2278,0,S_e
1777450202.924445,2108,0,S_e
1777450202.930814,1793,0,S_e
1777450202.93204,1844,0,S_e
1777450202.934616,1909,0,S_e
1777450202.936897,1961,0,S_e
1777450202.940545,1766,0,S_e
1777450202.942549,2158,0,S_e
1777450202.945503,2125,0,S_e
1777450202.948443,1732,0,S_e
1777450202.951637,2237,0,S_e
1777450202.9580941,2326,0,S_e
1777450202.958283,1834,0,S_e
1777450202.9618108,2322,0,S_e
1777450202.9634402,1928,0,S_e
1777450202.967205,1962,0,S_e
1777450202.969815,2128,0,S_e
1777450202.9724622,2192,0,S_e
1777450202.975453,2067,0,S_e
1777450202.9803,1952,0,S_e
1777450202.982309,1944,0,S_e
1777450202.985643,1972,0,S_e
1777450202.988522,2183,0,S_e
1777450202.9905028,2147,0,S_e
1777450202.9934368,1905,0,S_e
1777450202.9964259,1921,0,S_e
1777450202.999425,1945,0,S_e
1777450203.003832,2133,0,S_e
1777450203.005711,2107,0,S_e
1777450203.0086021,2157,0,S_e
1777450203.011965,1778,0,S_e
1777450203.01474,2065,0,S_e
1777450203.017437,2176,0,S_e
1777450203.021018,1925,0,S_e
1777450203.025753,2092,0,S_e
1777450203.028029,2089,0,S_e
1777450203.030043,2024,0,S_e
1777450203.034119,1991,0,S_e
1777450203.035672,1927,0,S_e
1777450203.038453,2063,0,S_e
1777450203.041449,2071,0,S_e
1777450203.044456,2074,0,S_e
1777450203.0484748,2041,0,S_e
1777450203.0506089,1930,0,S_e
1777450203.053733,1858,0,S_e
1777450203.056551,2039,0,S_e
1777450203.059458,2090,0,S_e
1777450203.0624242,1899,0,S_e
1777450203.065463,2252,0,S_e
1777450203.0700119,1835,0,S_e
1777450203.072051,1936,0,S_e
1777450203.076276,2433,0,S_e
1777450203.077887,2019,0,S_e
1777450203.080588,1938,0,S_e
1777450203.083453,1803,0,S_e
1777450203.086468,2024,0,S_e
1777450203.091126,1875,0,S_e
1777450203.093566,1960,0,S_e
1777450203.095969,2065,0,S_e
1777450203.0994549,2063,0,S_e
1777450203.101435,2083,0,S_e
1777450203.104426,2226,0,S_e
1777450203.1079931,1771,0,S_e
1777450203.113965,1784,0,S_e
1777450203.1140459,2407,0,S_e
1777450203.1174989,2417,0,S_e
1777450203.120466,2014,0,S_e
1777450203.123852,1788,0,S_e
1777450203.1254232,2045,0,S_e
1777450203.128454,2239,0,S_e
1777450203.131419,1850,0,S_e
1777450203.1352499,1585,0,S_e
1777450203.1385758,2359,0,S_e
1777450203.140502,1650,0,S_e
1777450203.1435452,2310,0,S_e
1777450203.146452,2227,0,S_e
1777450203.149429,1850,0,S_e
1777450203.152456,1271,0,S_e
1777450203.1568232,2519,0,S_e
1777450203.158984,2147,0,S_e
1777450203.162998,2021,0,S_e
1777450203.164636,2201,0,S_e
1777450203.1674602,2230,0,S_e
1777450203.1704519,2112,0,S_e
1777450203.173447,1680,0,S_e
1777450203.178475,1456,0,S_e
1777450203.1812868,2700,0,S_e
1777450203.183061,2399,0,S_e
1777450203.185694,1307,0,S_e
1777450203.1884649,1780,0,S_e
1777450203.191458,2694,0,S_e
1777450203.1944509,2421,0,S_e
1777450203.1990871,1936,0,S_e
1777450203.2011468,2054,0,S_e
1777450203.205198,1980,0,S_e
1777450203.2068539,2054,0,S_e
1777450203.209532,1922,0,S_e
1777450203.2124531,2184,0,S_e
1777450203.215447,2052,0,S_e
1777450203.220232,1781,0,S_e
1777450203.221985,1879,0,S_e
1777450203.224999,2052,0,S_e
1777450203.2277892,2291,0,S_e
1777450203.230453,1955,0,S_e
1777450203.233423,1956,0,S_e
1777450203.2364569,2054,0,S_e
1777450203.2408051,2346,0,S_e
1777450203.242861,1830,0,S_e
1777450203.246838,2015,0,S_e
1777450203.2485352,1634,0,S_e
1777450203.251458,2185,0,S_e
1777450203.25443,2530,0,S_e
1777450203.257451,2382,0,S_e
1777450203.2620401,2195,0,S_e
1777450203.263598,1814,0,S_e
1777450203.26662,1756,0,S_e
1777450203.2694788,1895,0,S_e
1777450203.27245,2176,0,S_e
1777450203.275421,2073,0,S_e
1777450203.2785752,1780,0,S_e
1777450203.282079,1764,0,S_e
1777450203.285384,2148,0,S_e
1777450203.2892349,2160,0,S_e
1777450203.290984,1942,0,S_e
1777450203.293529,2517,0,S_e
1777450203.296439,2375,0,S_e
1777450203.301792,1909,0,S_e
1777450203.3024309,2029,0,S_e
1777450203.305699,1830,0,S_e
1777450203.309582,2173,0,S_e
1777450203.31145,2082,0,S_e
1777450203.314467,1982,0,S_e
1777450203.31745,1819,0,S_e
1777450203.3226938,1418,0,S_e
1777450203.324312,2490,0,S_e
1777450203.328086,2149,0,S_e
1777450203.329762,1953,0,S_e
1777450203.332455,1752,0,S_e
1777450203.335424,2340,0,S_e
1777450203.3384478,2097,0,S_e
1777450203.3424482,2012,0,S_e
1777450203.344519,2002,0,S_e
1777450203.3484,1756,0,S_e
1777450203.35159,1652,0,S_e
1777450203.3539991,2583,0,S_e
1777450203.3568902,2258,0,S_e
1777450203.362392,2036,0,S_e
1777450203.363285,1986,0,S_e
1777450203.366189,1938,0,S_e
1777450203.370403,2058,0,S_e
1777450203.372108,2108,0,S_e
1777450203.37465,1923,0,S_e
1777450203.377451,2007,0,S_e
1777450203.383223,1512,0,S_e
1777450203.383886,2297,0,S_e
1777450203.38775,1615,0,S_e
1777450203.390455,2377,0,S_e
1777450203.393028,2673,0,S_e
1777450203.3955698,2136,0,S_e
1777450203.3984482,2006,0,S_e
1777450203.403432,2028,0,S_e
1777450203.4052212,2084,0,S_e
1777450203.408042,2096,0,S_e
1777450203.4107609,1994,0,S_e
1777450203.413451,1651,0,S_e
1777450203.416424,1758,0,S_e
1777450203.420043,2047,0,S_e
1777450203.42381,2258,0,S_e
1777450203.426464,2124,0,S_e
1777450203.4292579,2055,0,S_e
1777450203.432586,2144,0,S_e
1777450203.4344478,1989,0,S_e
1777450203.437461,1813,0,S_e
1777450203.443267,1916,0,S_e
1777450203.44385,2479,0,S_e
1777450203.4470558,2097,0,S_e
1777450203.451041,1750,0,S_e
1777450203.4527738,1799,0,S_e
1777450203.455467,2230,0,S_e
1777450203.458461,2264,0,S_e
1777450203.464009,2197,0,S_e
1777450203.4646552,1896,0,S_e
1777450203.467646,1989,0,S_e
1777450203.4718451,2064,0,S_e
1777450203.4735732,2115,0,S_e
1777450203.4764779,2353,0,S_e
1777450203.479466,2045,0,S_e
1777450203.484805,2052,0,S_e
1777450203.485816,1719,0,S_e
1777450203.488448,2194,0,S_e
1777450203.4929678,2055,0,S_e
1777450203.494854,1896,0,S_e
1777450203.497476,1822,0,S_e
1777450203.5004249,1878,0,S_e
1777450203.5034502,2113,0,S_e
1777450203.508112,2124,0,S_e
1777450203.5099452,2232,0,S_e
1777450203.5142012,2188,0,S_e
1777450203.5160599,2087,0,S_e
1777450203.518774,2029,0,S_e
1777450203.5214348,1873,0,S_e
1777450203.5244339,1665,0,S_e
1777450203.5296462,2443,0,S_e
1777450203.5312798,2100,0,S_e
1777450203.535372,1870,0,S_e
1777450203.537279,1760,0,S_e
1777450203.540051,2015,0,S_e
1777450203.5426161,2577,0,S_e
1777450203.545442,2100,0,S_e
1777450203.550836,1972,0,S_e
1777450203.552186,1765,0,S_e
1777450203.556302,2105,0,S_e
1777450203.5581398,2293,0,S_e
1777450203.560816,2014,0,S_e
1777450203.5634491,2113,0,S_e
1777450203.566453,1909,0,S_e
1777450203.571808,2110,0,S_e
1777450203.573528,1998,0,S_e
1777450203.579937,2063,0,S_e
1777450203.580128,2306,0,S_e
1777450203.581645,2240,0,S_e
1777450203.584459,1822,0,S_e
1777450203.587473,2017,0,S_e
1777450203.5904992,1901,0,S_e
1777450203.5945642,2061,0,S_e
1777450203.596544,1810,0,S_e
1777450203.59954,2183,0,S_e
1777450203.602924,2125,0,S_e
1777450203.605799,2186,0,S_e
1777450203.608455,2126,0,S_e
1777450203.611423,2138,0,S_e
1777450203.616844,1901,0,S_e
1777450203.617957,1891,0,S_e
1777450203.6207318,2377,0,S_e
1777450203.625438,2155,0,S_e
1777450203.627229,1993,0,S_e
1777450203.629882,1794,0,S_e
1777450203.63245,1747,0,S_e
1777450203.635464,2029,0,S_e
1777450203.6392682,2006,0,S_e
1777450203.6424708,2184,0,S_e
1777450203.64505,2382,0,S_e
1777450203.648511,2100,0,S_e
1777450203.651063,1895,0,S_e
1777450203.653613,2223,0,S_e
1777450203.659115,1947,0,S_e
1777450203.659917,1891,0,S_e
1777450203.662477,2182,0,S_e
1777450203.666528,2134,0,S_e
1777450203.668455,2256,0,S_e
1777450203.6714308,1974,0,S_e
1777450203.674423,2106,0,S_e
1777450203.679096,1962,0,S_e
1777450203.681452,1967,0,S_e
1777450203.6835468,2123,0,S_e
1777450203.687823,2212,0,S_e
1777450203.689586,2047,0,S_e
1777450203.692459,2041,0,S_e
1777450203.69545,1411,0,S_e
1777450203.6984441,2535,0,S_e
1777450203.7015529,2240,0,S_e
1777450203.7051148,2149,0,S_e
1777450203.708619,2092,0,S_e
1777450203.710717,2148,0,S_e
1777450203.713711,1996,0,S_e
1777450203.7164228,2078,0,S_e
1777450203.7194219,2095,0,S_e
1777450203.722451,1961,0,S_e
1777450203.7266839,2022,0,S_e
1777450203.7290921,2064,0,S_e
1777450203.733016,1975,0,S_e
1777450203.7349792,1928,0,S_e
1777450203.737778,2365,0,S_e
1777450203.740437,2078,0,S_e
1777450203.743444,2076,0,S_e
1777450203.747478,2004,0,S_e
1777450203.749602,1715,0,S_e
1777450203.753771,2264,0,S_e
1777450203.7556238,2064,0,S_e
1777450203.7584481,2459,0,S_e
1777450203.761431,2321,0,S_e
1777450203.76452,2028,0,S_e
1777450203.767787,1950,0,S_e
1777450203.771086,2181,0,S_e
1777450203.775319,2158,0,S_e
1777450203.777038,2127,0,S_e
1777450203.779587,2204,0,S_e
1777450203.782434,2041,0,S_e
1777450203.788692,1566,0,S_e
1777450203.789105,2033,0,S_e
1777450203.792104,2385,0,S_e
1777450203.7946088,2354,0,S_e
1777450203.7982569,2273,0,S_e
1777450203.8008242,2251,0,S_e
1777450203.8034408,2136,0,S_e
1777450203.8091788,2127,0,S_e
1777450203.8101618,2135,0,S_e
1777450203.8130748,2142,0,S_e
1777450203.8171918,2062,0,S_e
1777450203.8188548,2068,0,S_e
1777450203.821439,2003,0,S_e
1777450203.8244638,2151,0,S_e
1777450203.830064,2131,0,S_e
1777450203.864966,2023,0,S_e
1777450203.865151,2062,0,S_e
1777450203.865275,2195,0,S_e
1777450203.865464,2046,0,S_e
1777450203.865497,2152,0,S_e
1777450203.865519,2261,0,S_e
1777450203.8655412,1709,0,S_e
1777450203.8655622,2317,0,S_e
1777450203.865582,2192,0,S_e
1777450203.865757,2060,0,S_e
1777450203.8658612,2279,0,S_e
1777450203.8659708,2046,0,S_e
1777450203.8664262,2126,0,S_e
1777450203.8796108,2178,0,S_e
1777450203.880096,2149,0,S_e
1777450203.88054,2040,0,S_e
1777450203.880909,2157,0,S_e
1777450203.882106,2051,0,S_e
1777450203.885046,2129,0,S_e
1777450203.888125,2172,0,S_e
1777450203.890951,2201,0,S_e
1777450203.897192,2184,0,S_e
1777450203.897537,2117,0,S_e
1777450203.900247,2076,0,S_e
1777450203.9046998,2101,0,S_e
1777450203.906259,2158,0,S_e
1777450203.908819,2163,0,S_e
1777450203.911455,2098,0,S_e
1777450203.917535,2090,0,S_e
1777450203.9176571,2112,0,S_e
1777450203.921062,2212,0,S_e
1777450203.925398,2202,0,S_e
1777450203.927095,2208,0,S_e
1777450203.929642,2126,0,S_e
1777450203.932437,2078,0,S_e
1777450203.938569,2111,0,S_e
1777450203.9386802,2159,0,S_e
1777450203.942635,2217,0,S_e
1777450203.944685,2221,0,S_e
1777450203.9481988,2096,0,S_e
1777450203.9507551,2085,0,S_e
1777450203.95344,2143,0,S_e
1777450203.960104,2196,0,S_e
1777450203.960474,2194,0,S_e
1777450203.96385,2132,0,S_e
1777450203.9659698,2088,0,S_e
1777450203.969501,2113,0,S_e
1777450203.972057,2177,0,S_e
1777450203.974616,2192,0,S_e
1777450203.980473,2140,0,S_e
1777450203.98081,2012,0,S_e
1777450203.984092,2013,0,S_e
1777450203.986634,2118,0,S_e
1777450203.9898298,2138,0,S_e
1777450203.9924622,2132,0,S_e
1777450203.99545,2111,0,S_e
1777450204.00167,2044,0,S_e
1777450204.002335,2057,0,S_e
1777450204.005536,2122,0,S_e
1777450204.0083342,2224,0,S_e
1777450204.010462,2132,0,S_e
1777450204.0134778,2001,0,S_e
1777450204.016447,1969,0,S_e
1777450204.0237591,2064,0,S_e
1777450204.024426,2108,0,S_e
1777450204.026502,2097,0,S_e
1777450204.0293398,2085,0,S_e
1777450204.031469,1966,0,S_e
1777450204.034422,1990,0,S_e
1777450204.037462,2044,0,S_e
1777450204.040441,2070,0,S_e
1777450204.043797,2048,0,S_e
1777450204.047411,1991,0,S_e
1777450204.0497432,1928,0,S_e
1777450204.053355,1966,0,S_e
1777450204.055903,2075,0,S_e
1777450204.058462,2108,0,S_e
1777450204.06448,2066,0,S_e
1777450204.065439,1944,0,S_e
1777450204.068078,1960,0,S_e
1777450204.072463,2013,0,S_e
1777450204.074094,2068,0,S_e
1777450204.076649,2049,0,S_e
1777450204.0794492,1989,0,S_e
1777450204.085983,1934,0,S_e
1777450204.0873642,1929,0,S_e
1777450204.0889118,2084,0,S_e
1777450204.09329,2067,0,S_e
1777450204.094843,2014,0,S_e
1777450204.097482,1963,0,S_e
1777450204.1004522,1914,0,S_e
1777450204.106352,1985,0,S_e
1777450204.107023,2028,0,S_e
1777450204.110343,2079,0,S_e
1777450204.112654,1989,0,S_e
1777450204.11629,1911,0,S_e
1777450204.1188369,1981,0,S_e
1777450204.1215098,2055,0,S_e
1777450204.128074,2065,0,S_e
1777450204.128723,2065,0,S_e
1777450204.131638,1949,0,S_e
1777450204.1338,1890,0,S_e
1777450204.137386,2007,0,S_e
1777450204.139932,2132,0,S_e
1777450204.142485,2054,0,S_e
1777450204.1454809,1978,0,S_e
1777450204.149088,1955,0,S_e
1777450204.1519492,1970,0,S_e
1777450204.156424,2037,0,S_e
1777450204.158269,2116,0,S_e
1777450204.1608162,2065,0,S_e
1777450204.163458,1979,0,S_e
1777450204.169715,1980,0,S_e
1777450204.170367,2042,0,S_e
1777450204.172776,2072,0,S_e
1777450204.1772668,2043,0,S_e
1777450204.178966,2084,0,S_e
1777450204.181505,1962,0,S_e
1777450204.184443,1947,0,S_e
1777450204.190201,2072,0,S_e
1777450204.1905909,2127,0,S_e
1777450204.193563,2079,0,S_e
1777450204.197699,2024,0,S_e
1777450204.1995451,1953,0,S_e
1777450204.2024581,2010,0,S_e
1777450204.205461,2079,0,S_e
1777450204.210879,2077,0,S_e
1777450204.21155,2021,0,S_e
1777450204.21446,2008,0,S_e
1777450204.218766,1949,0,S_e
1777450204.2204769,2005,0,S_e
1777450204.223425,2123,0,S_e
1777450204.226445,2086,0,S_e
1777450204.2339892,2034,0,S_e
1777450204.234072,1999,0,S_e
1777450204.235956,2048,0,S_e
1777450204.2403,2067,0,S_e
1777450204.241996,2122,0,S_e
1777450204.244549,2094,0,S_e
1777450204.247425,2021,0,S_e
1777450204.253529,1956,0,S_e
1777450204.2545578,2005,0,S_e
1777450204.257657,2121,0,S_e
1777450204.261774,2115,0,S_e
1777450204.2635,2048,0,S_e
1777450204.2660549,1937,0,S_e
1777450204.268596,2006,0,S_e
1777450204.274993,2106,0,S_e
1777450204.2750888,2142,0,S_e
1777450204.278378,2091,0,S_e
1777450204.282608,2004,0,S_e
1777450204.28429,1991,0,S_e
1777450204.286856,2020,0,S_e
1777450204.289458,2133,0,S_e
1777450204.295344,2113,0,S_e
1777450204.296258,2027,0,S_e
1777450204.299705,1966,0,S_e
1777450204.3018692,2018,0,S_e
1777450204.305086,2096,0,S_e
1777450204.307636,2129,0,S_e
1777450204.310465,2129,0,S_e
1777450204.313499,1986,0,S_e
1777450204.3170528,1973,0,S_e
1777450204.320182,2049,0,S_e
1777450204.324387,2089,0,S_e
1777450204.32615,2183,0,S_e
1777450204.3287208,2101,0,S_e
1777450204.331452,1922,0,S_e
1777450204.337482,1982,0,S_e
1777450204.337871,2058,0,S_e
1777450204.341177,2112,0,S_e
1777450204.345504,2066,0,S_e
1777450204.347221,1970,0,S_e
1777450204.349764,1936,0,S_e
1777450204.352452,2018,0,S_e
1777450204.358801,2090,0,S_e
1777450204.359191,2077,0,S_e
1777450204.362515,2096,0,S_e
1777450204.364918,1978,0,S_e
1777450204.368387,2018,0,S_e
1777450204.370935,2062,0,S_e
1777450204.373475,2096,0,S_e
1777450204.379403,2080,0,S_e
1777450204.380341,2040,0,S_e
1777450204.382987,1978,0,S_e
1777450204.387504,2014,0,S_e
1777450204.389204,2087,0,S_e
1777450204.391746,2099,0,S_e
1777450204.394562,2088,0,S_e
1777450204.400456,1968,0,S_e
1777450204.401076,1935,0,S_e
1777450204.4035552,2060,0,S_e
1777450204.408121,2116,0,S_e
1777450204.409836,2087,0,S_e
1777450204.4125838,2057,0,S_e
1777450204.4161541,1937,0,S_e
1777450204.421237,1958,0,S_e
1777450204.421924,2087,0,S_e
1777450204.424997,2102,0,S_e
1777450204.4291651,2062,0,S_e
1777450204.4308438,1977,0,S_e
1777450204.4335701,1932,0,S_e
1777450204.43656,1978,0,S_e
1777450204.441875,2074,0,S_e
1777450204.444128,2077,0,S_e
1777450204.446375,2018,0,S_e
1777450204.450113,1965,0,S_e
1777450204.451763,1954,0,S_e
1777450204.454586,2038,0,S_e
1777450204.457571,2100,0,S_e
1777450204.46343,2051,0,S_e
1777450204.463796,1999,0,S_e
1777450204.466811,1924,0,S_e
1777450204.471075,2031,0,S_e
1777450204.4728682,2115,0,S_e
1777450204.475591,2086,0,S_e
1777450204.478566,1977,0,S_e
1777450204.4840589,1959,0,S_e
1777450204.484753,1952,0,S_e
1777450204.487849,2053,0,S_e
1777450204.492011,2093,0,S_e
1777450204.4938502,2099,0,S_e
1777450204.4965708,1984,0,S_e
1777450204.499569,1914,0,S_e
1777450204.504647,2009,0,S_e
1777450204.508577,2092,0,S_e
1777450204.508895,2138,0,S_e
1777450204.513178,2054,0,S_e
1777450204.515126,1922,0,S_e
1777450204.517688,1921,0,S_e
1777450204.520546,2004,0,S_e
1777450204.5235782,2132,0,S_e
1777450204.527596,2098,0,S_e
1777450204.5304708,1975,0,S_e
1777450204.535269,1961,0,S_e
1777450204.536638,2013,0,S_e
1777450204.5392032,2098,0,S_e
1777450204.541745,2119,0,S_e
1777450204.544589,2077,0,S_e
1777450204.548148,1952,0,S_e
1777450204.551583,1952,0,S_e
1777450204.554084,2035,0,S_e
1777450204.557657,2081,0,S_e
1777450204.560222,2075,0,S_e
1777450204.562774,2018,0,S_e
1777450204.5690298,1939,0,S_e
1777450204.569408,1973,0,S_e
1777450204.57231,2078,0,S_e
1777450204.574571,2106,0,S_e
1777450204.57776,2053,0,S_e
1777450204.58054,1994,0,S_e
1777450204.583574,1951,0,S_e
1777450204.590003,2023,0,S_e
1777450204.591316,2121,0,S_e
1777450204.593002,2116,0,S_e
1777450204.597078,2025,0,S_e
1777450204.598839,1957,0,S_e
1777450204.6015842,1973,0,S_e
1777450204.6045399,2075,0,S_e
1777450204.610195,2138,0,S_e
1777450204.6106088,2067,0,S_e
1777450204.613875,1993,0,S_e
1777450204.61809,1969,0,S_e
1777450204.619817,2038,0,S_e
1777450204.622596,2106,0,S_e
1777450204.6255622,2122,0,S_e
1777450204.631834,2055,0,S_e
1777450204.6325178,1977,0,S_e
1777450204.635235,1960,0,S_e
1777450204.638277,2070,0,S_e
1777450204.640573,2062,0,S_e
1777450204.643562,2040,0,S_e
1777450204.646546,2027,0,S_e
1777450204.6495612,1952,0,S_e
1777450204.653824,1990,0,S_e
1777450204.6556811,2063,0,S_e
1777450204.6586308,2070,0,S_e
1777450204.6615832,2053,0,S_e
1777450204.664556,1980,0,S_e
1777450204.667547,2000,0,S_e
1777450204.6706922,2103,0,S_e
1777450204.674442,2131,0,S_e
1777450204.677363,2092,0,S_e
1777450204.680289,2069,0,S_e
1777450204.683676,1999,0,S_e
1777450204.68557,2039,0,S_e
1777450204.688577,2098,0,S_e
1777450204.691571,2140,0,S_e
1777450204.696331,2103,0,S_e
1777450204.698168,1977,0,S_e
1777450204.7012181,1999,0,S_e
1777450204.70504,2063,0,S_e
1777450204.70685,2120,0,S_e
1777450204.709634,2142,0,S_e
1777450204.7125702,2054,0,S_e
1777450204.715568,1982,0,S_e
1777450204.72165,1998,0,S_e
1777450204.721942,2081,0,S_e
1777450204.7281852,2122,0,S_e
1777450204.728374,2085,0,S_e
1777450204.731128,2005,0,S_e
1777450204.733772,1972,0,S_e
1777450204.7365692,2026,0,S_e
1777450204.742641,2092,0,S_e
1777450204.745975,2077,0,S_e
1777450204.7493498,2022,0,S_e
1777450204.7515461,1946,0,S_e
1777450204.753243,1969,0,S_e
1777450204.754587,2063,0,S_e
1777450204.75757,2104,0,S_e
1777450204.760588,2074,0,S_e
1777450204.765381,1996,0,S_e
1777450204.767172,1952,0,S_e
1777450204.772983,2035,0,S_e
1777450204.773094,2118,0,S_e
1777450204.7757282,2151,0,S_e
1777450204.778561,2037,0,S_e
1777450204.7815611,1972,0,S_e
1777450204.786149,1957,0,S_e
1777450204.788383,2049,0,S_e
1777450204.7912252,2084,0,S_e
1777450204.7942898,2081,0,S_e
1777450204.7969909,1977,0,S_e
1777450204.799697,1949,0,S_e
1777450204.8025758,2008,0,S_e
1777450204.808707,2079,0,S_e
1777450204.810354,2096,0,S_e
1777450204.812117,2042,0,S_e
1777450204.816289,1944,0,S_e
1777450204.817991,1995,0,S_e
1777450204.8205812,2041,0,S_e
1777450204.8235478,2051,0,S_e
1777450204.830014,2058,0,S_e
1777450204.8308449,2014,0,S_e
1777450204.833497,1938,0,S_e
1777450204.83777,1981,0,S_e
1777450204.839641,2054,0,S_e
1777450204.8421912,2134,0,S_e
1777450204.844754,2086,0,S_e
1777450204.847706,1976,0,S_e
1777450204.8521779,1980,0,S_e
1777450204.8547132,2050,0,S_e
1777450204.8576498,2108,0,S_e
1777450204.8595572,2161,0,S_e
1777450204.862574,2069,0,S_e
1777450204.8655732,2012,0,S_e
1777450204.872618,2045,0,S_e
1777450204.8735201,2140,0,S_e
1777450204.87609,2140,0,S_e
1777450204.8788521,2113,0,S_e
1777450204.88062,2015,0,S_e
1777450204.883554,2005,0,S_e
1777450204.886577,2056,0,S_e
1777450204.889538,2116,0,S_e
1777450204.894639,2108,0,S_e
1777450204.896405,2051,0,S_e
1777450204.89935,1940,0,S_e
1777450204.902126,2008,0,S_e
1777450204.904703,2073,0,S_e
1777450204.9075682,2076,0,S_e
1777450204.910539,2088,0,S_e
1777450204.915637,2006,0,S_e
1777450204.91798,1980,0,S_e
1777450204.92011,2016,0,S_e
1777450204.924008,2063,0,S_e
1777450204.925882,2084,0,S_e
1777450204.928575,2036,0,S_e
1777450204.931571,1932,0,S_e
1777450204.938196,1958,0,S_e
1777450204.9389482,2053,0,S_e
1777450204.941227,2121,0,S_e
1777450204.944077,2057,0,S_e
1777450204.947593,2020,0,S_e
1777450204.9501598,1955,0,S_e
1777450204.952728,1979,0,S_e
1777450204.955703,2085,0,S_e
1777450204.961237,2077,0,S_e
1777450204.963378,2056,0,S_e
1777450204.965322,1948,0,S_e
1777450204.9683032,1964,0,S_e
1777450204.9718132,2053,0,S_e
1777450204.973693,2101,0,S_e
1777450204.9766898,2118,0,S_e
1777450204.980355,2026,0,S_e
1777450204.98562,1940,0,S_e
1777450204.986851,2042,0,S_e
1777450204.988799,2117,0,S_e
1777450204.993104,2076,0,S_e
1777450204.994982,2033,0,S_e
1777450204.9976661,1976,0,S_e
1777450205.000684,1980,0,S_e
1777450205.003707,2053,0,S_e
1777450205.008422,2109,0,S_e
1777450205.011196,2089,0,S_e
1777450205.016032,2023,0,S_e
1777450205.017803,1957,0,S_e
1777450205.0204318,1981,0,S_e
1777450205.02191,2089,0,S_e
1777450205.0252879,2097,0,S_e
1777450205.028227,2088,0,S_e
1777450205.035475,2011,0,S_e
1777450205.038764,1977,0,S_e
1777450205.04061,2064,0,S_e
1777450205.0425642,2100,0,S_e
1777450205.0428102,2127,0,S_e
1777450205.0457,2089,0,S_e
1777450205.048693,1983,0,S_e
1777450205.0517209,2003,0,S_e
1777450205.06009,2105,0,S_e
1777450205.060291,2138,0,S_e
1777450205.062172,2117,0,S_e
1777450205.065483,2010,0,S_e
1777450205.067481,1999,0,S_e
1777450205.0709178,2066,0,S_e
1777450205.0726788,2153,0,S_e
1777450205.07568,2119,0,S_e
1777450205.082193,2060,0,S_e
1777450205.082293,1982,0,S_e
1777450205.0854158,1994,0,S_e
1777450205.0885088,2073,0,S_e
1777450205.0921311,2097,0,S_e
1777450205.094334,2090,0,S_e
1777450205.097004,2026,0,S_e
1777450205.0996869,1954,0,S_e
1777450205.102709,2021,0,S_e
1777450205.108116,2096,0,S_e
1777450205.1118479,2147,0,S_e
1777450205.1132019,2101,0,S_e
1777450205.115826,1968,0,S_e
1777450205.118015,1980,0,S_e
1777450205.121047,2131,0,S_e
1777450205.124029,2096,0,S_e
1777450205.1281369,2080,0,S_e
1777450205.130892,2051,0,S_e
1777450205.133505,1976,0,S_e
1777450205.137973,2067,0,S_e
1777450205.140194,2084,0,S_e
1777450205.141678,2101,0,S_e
1777450205.144675,2082,0,S_e
1777450205.147666,2013,0,S_e
1777450205.1540349,1977,0,S_e
1777450205.154452,2077,0,S_e
1777450205.157917,2117,0,S_e
1777450205.159957,2114,0,S_e
1777450205.16289,2039,0,S_e
1777450205.1657732,1989,0,S_e
1777450205.1686661,2030,0,S_e
1777450205.171674,2077,0,S_e
