timestamp,ch1,ch2,label
1777450366.564613,41,0,S_ɔ
1777450366.569393,2074,0,S_ɔ
1777450366.576801,1941,0,S_ɔ
1777450366.577761,1954,0,S_ɔ
1777450366.5799308,2100,0,S_ɔ
1777450366.580054,2167,0,S_ɔ
1777450366.580242,2112,0,S_ɔ
1777450366.583273,2008,0,S_ɔ
1777450366.5864232,1939,0,S_ɔ
1777450366.5892742,2024,0,S_ɔ
1777450366.597501,2139,0,S_ɔ
1777450366.600458,2184,0,S_ɔ
1777450366.602905,2087,0,S_ɔ
1777450366.6043289,1962,0,S_ɔ
1777450366.6062489,1956,0,S_ɔ
1777450366.607611,2094,0,S_ɔ
1777450366.6102889,2163,0,S_ɔ
1777450366.6132228,2128,0,S_ɔ
1777450366.6194,2026,0,S_ɔ
1777450366.6206698,1929,0,S_ɔ
1777450366.623144,2009,0,S_ɔ
1777450366.626399,2127,0,S_ɔ
1777450366.628321,2147,0,S_ɔ
1777450366.631232,2089,0,S_ɔ
1777450366.634258,1974,0,S_ɔ
1777450366.642459,1943,0,S_ɔ
1777450366.644098,2085,0,S_ɔ
1777450366.6451998,2122,0,S_ɔ
1777450366.6484082,2134,0,S_ɔ
1777450366.650295,2030,0,S_ɔ
1777450366.6529548,1916,0,S_ɔ
1777450366.655648,1982,0,S_ɔ
1777450366.658344,2133,0,S_ɔ
1777450366.664758,2171,0,S_ɔ
1777450366.6661649,2095,0,S_ɔ
1777450366.668142,1978,0,S_ɔ
1777450366.672652,1937,0,S_ɔ
1777450366.674161,2061,0,S_ɔ
1777450366.6768131,2165,0,S_ɔ
1777450366.679457,2139,0,S_ɔ
1777450366.682244,2058,0,S_ɔ
1777450366.6882188,1946,0,S_ɔ
1777450366.690024,1975,0,S_ɔ
1777450366.693252,2122,0,S_ɔ
1777450366.694731,2177,0,S_ɔ
1777450366.697323,2135,0,S_ɔ
1777450366.7002409,1995,0,S_ɔ
1777450366.703233,1942,0,S_ɔ
1777450366.709753,2048,0,S_ɔ
1777450366.712171,2155,0,S_ɔ
1777450366.713557,2147,0,S_ɔ
1777450366.716852,2074,0,S_ɔ
1777450366.719415,1942,0,S_ɔ
1777450366.721222,1950,0,S_ɔ
1777450366.724229,2112,0,S_ɔ
1777450366.7272441,2147,0,S_ɔ
1777450366.731116,2122,0,S_ɔ
1777450366.734064,2012,0,S_ɔ
1777450366.738307,1940,0,S_ɔ
1777450366.740166,2005,0,S_ɔ
1777450366.742944,2156,0,S_ɔ
1777450366.745555,2140,0,S_ɔ
1777450366.7482638,2072,0,S_ɔ
1777450366.7515898,1979,0,S_ɔ
1777450366.755201,1945,0,S_ɔ
1777450366.758784,2085,0,S_ɔ
1777450366.7606678,2131,0,S_ɔ
1777450366.763266,2137,0,S_ɔ
1777450366.7661152,2042,0,S_ɔ
1777450366.77267,1927,0,S_ɔ
1777450366.773676,2002,0,S_ɔ
1777450366.776164,2126,0,S_ɔ
1777450366.7790668,2150,0,S_ɔ
1777450366.7812538,2080,0,S_ɔ
1777450366.7841191,1959,0,S_ɔ
1777450366.787105,1923,0,S_ɔ
1777450366.794698,2050,0,S_ɔ
1777450366.795081,2152,0,S_ɔ
1777450366.7966871,2119,0,S_ɔ
1777450366.8005388,2033,0,S_ɔ
1777450366.803138,1926,0,S_ɔ
1777450366.8056881,1990,0,S_ɔ
1777450366.8082392,2117,0,S_ɔ
1777450366.8111,2159,0,S_ɔ
1777450366.814856,2086,0,S_ɔ
1777450366.818958,1977,0,S_ɔ
1777450366.821146,1934,0,S_ɔ
1777450366.823308,2024,0,S_ɔ
1777450366.826103,2134,0,S_ɔ
1777450366.8291478,2136,0,S_ɔ
1777450366.834953,2050,0,S_ɔ
1777450366.8356411,1908,0,S_ɔ
1777450366.839324,1950,0,S_ɔ
1777450366.8423512,2096,0,S_ɔ
1777450366.8441331,2148,0,S_ɔ
1777450366.847111,2115,0,S_ɔ
1777450366.8501382,1978,0,S_ɔ
1777450366.855623,1913,0,S_ɔ
1777450366.856357,2006,0,S_ɔ
1777450366.8595572,2147,0,S_ɔ
1777450366.8627892,2140,0,S_ɔ
1777450366.865433,2037,0,S_ɔ
1777450366.8681679,1944,0,S_ɔ
1777450366.871107,1949,0,S_ɔ
1777450366.8776782,2079,0,S_ɔ
1777450366.8791292,2146,0,S_ɔ
1777450366.8806882,2126,0,S_ɔ
1777450366.884437,2027,0,S_ɔ
1777450366.8863869,1903,0,S_ɔ
1777450366.889171,1991,0,S_ɔ
1777450366.892119,2114,0,S_ɔ
1777450366.898616,2176,0,S_ɔ
1777450366.8993359,2034,0,S_ɔ
1777450366.902209,1914,0,S_ɔ
1777450366.9050229,1917,0,S_ɔ
1777450366.9078279,2069,0,S_ɔ
1777450366.910387,2103,0,S_ɔ
1777450366.913127,2109,0,S_ɔ
1777450366.916171,2016,0,S_ɔ
1777450366.923237,1929,0,S_ɔ
1777450366.926628,1973,0,S_ɔ
1777450366.929439,2146,0,S_ɔ
1777450366.929636,2176,0,S_ɔ
1777450366.931218,2107,0,S_ɔ
1777450366.934151,1982,0,S_ɔ
1777450366.937124,1937,0,S_ɔ
1777450366.944278,2120,0,S_ɔ
1777450366.946152,2148,0,S_ɔ
1777450366.9476302,2168,0,S_ɔ
1777450366.9495628,2080,0,S_ɔ
1777450366.953728,1950,0,S_ɔ
1777450366.955137,1957,0,S_ɔ
1777450366.958121,2165,0,S_ɔ
1777450366.9611368,2193,0,S_ɔ
1777450366.966649,2147,0,S_ɔ
1777450366.967147,2025,0,S_ɔ
1777450366.971478,1944,0,S_ɔ
1777450366.973778,2055,0,S_ɔ
1777450366.9761229,2203,0,S_ɔ
1777450366.979143,2199,0,S_ɔ
1777450366.982115,2066,0,S_ɔ
1777450366.990328,1925,0,S_ɔ
1777450366.991986,2001,0,S_ɔ
1777450366.993031,2170,0,S_ɔ
1777450366.996748,2172,0,S_ɔ
1777450366.998583,2074,0,S_ɔ
1777450367.000128,1959,0,S_ɔ
1777450367.0031528,1943,0,S_ɔ
1777450367.0061219,1993,0,S_ɔ
1777450367.011471,2160,0,S_ɔ
1777450367.013238,2197,0,S_ɔ
1777450367.015266,2011,0,S_ɔ
1777450367.0203269,1970,0,S_ɔ
1777450367.0216289,1960,0,S_ɔ
1777450367.0241868,2188,0,S_ɔ
1777450367.027104,2195,0,S_ɔ
1777450367.032526,2109,0,S_ɔ
1777450367.033468,2029,0,S_ɔ
1777450367.037067,1980,0,S_ɔ
1777450367.0397282,2049,0,S_ɔ
1777450367.042457,2085,0,S_ɔ
1777450367.045247,2226,0,S_ɔ
1777450367.0481799,2100,0,S_ɔ
1777450367.053729,1936,0,S_ɔ
1777450367.054724,1967,0,S_ɔ
1777450367.058347,2061,0,S_ɔ
1777450367.060699,2175,0,S_ɔ
1777450367.063421,2135,0,S_ɔ
1777450367.0660648,2001,0,S_ɔ
1777450367.0689769,1904,0,S_ɔ
1777450367.074968,1972,0,S_ɔ
1777450367.075402,2138,0,S_ɔ
1777450367.078953,2205,0,S_ɔ
1777450367.082491,2159,0,S_ɔ
1777450367.084291,2033,0,S_ɔ
1777450367.086984,1927,0,S_ɔ
1777450367.08998,2065,0,S_ɔ
1777450367.09298,2131,0,S_ɔ
1777450367.097234,2137,0,S_ɔ
1777450367.0990138,2096,0,S_ɔ
1777450367.102931,2000,0,S_ɔ
1777450367.1053598,1939,0,S_ɔ
1777450367.108015,2121,0,S_ɔ
1777450367.1109812,2126,0,S_ɔ
1777450367.114113,2170,0,S_ɔ
1777450367.117429,2040,0,S_ɔ
1777450367.1211112,1975,0,S_ɔ
1777450367.1238348,1967,0,S_ɔ
1777450367.126522,2195,0,S_ɔ
1777450367.129083,2070,0,S_ɔ
1777450367.132001,2052,0,S_ɔ
1777450367.134978,1906,0,S_ɔ
1777450367.138743,1958,0,S_ɔ
1777450367.141951,2109,0,S_ɔ
1777450367.1446111,2299,0,S_ɔ
1777450367.1471848,2124,0,S_ɔ
1777450367.1500008,2083,0,S_ɔ
1777450367.1529799,1919,0,S_ɔ
1777450367.1588259,2187,0,S_ɔ
1777450367.159518,2078,0,S_ɔ
1777450367.1629791,2169,0,S_ɔ
1777450367.165099,2075,0,S_ɔ
1777450367.167979,1996,0,S_ɔ
1777450367.170975,1896,0,S_ɔ
1777450367.17401,2010,0,S_ɔ
1777450367.178945,2090,0,S_ɔ
1777450367.1811998,2142,0,S_ɔ
1777450367.1830242,2161,0,S_ɔ
1777450367.186353,1935,0,S_ɔ
1777450367.18901,1935,0,S_ɔ
1777450367.1919942,2127,0,S_ɔ
1777450367.195007,2128,0,S_ɔ
1777450367.200165,2102,0,S_ɔ
1777450367.202056,2037,0,S_ɔ
1777450367.2041442,1916,0,S_ɔ
1777450367.208985,2030,0,S_ɔ
1777450367.210274,2130,0,S_ɔ
1777450367.213006,2167,0,S_ɔ
1777450367.2160058,2093,0,S_ɔ
1777450367.2197728,1879,0,S_ɔ
1777450367.222097,1910,0,S_ɔ
1777450367.2269409,2124,0,S_ɔ
1777450367.228668,2187,0,S_ɔ
1777450367.231223,2080,0,S_ɔ
1777450367.233997,2024,0,S_ɔ
1777450367.2409222,1866,0,S_ɔ
1777450367.241322,2001,0,S_ɔ
1777450367.244355,2229,0,S_ɔ
1777450367.2466931,2218,0,S_ɔ
1777450367.249373,2070,0,S_ɔ
1777450367.2520661,1944,0,S_ɔ
1777450367.254977,1961,0,S_ɔ
1777450367.261025,2044,0,S_ɔ
1777450367.2614028,2175,0,S_ɔ
1777450367.2642,2189,0,S_ɔ
1777450367.267827,2077,0,S_ɔ
1777450367.270584,1937,0,S_ɔ
1777450367.2731369,2007,0,S_ɔ
1777450367.275975,2203,0,S_ɔ
1777450367.280548,2184,0,S_ɔ
1777450367.282818,2149,0,S_ɔ
1777450367.285627,1981,0,S_ɔ
1777450367.2890491,1978,0,S_ɔ
1777450367.291593,2053,0,S_ɔ
1777450367.2941298,2137,0,S_ɔ
1777450367.296986,2188,0,S_ɔ
1777450367.301708,1998,0,S_ɔ
1777450367.303218,1924,0,S_ɔ
1777450367.306093,2029,0,S_ɔ
1777450367.309728,2155,0,S_ɔ
1777450367.3122802,2185,0,S_ɔ
1777450367.3149881,2114,0,S_ɔ
1777450367.317968,1973,0,S_ɔ
1777450367.321501,1959,0,S_ɔ
1777450367.325182,2098,0,S_ɔ
1777450367.3275478,2200,0,S_ɔ
1777450367.3302028,2171,0,S_ɔ
1777450367.3329651,2034,0,S_ɔ
1777450367.336,1913,0,S_ɔ
1777450367.342365,2019,0,S_ɔ
1777450367.3426938,2100,0,S_ɔ
1777450367.345032,2210,0,S_ɔ
1777450367.3485749,2131,0,S_ɔ
1777450367.351149,1991,0,S_ɔ
1777450367.353885,1912,0,S_ɔ
1777450367.356898,2077,0,S_ɔ
1777450367.362459,2105,0,S_ɔ
1777450367.363981,2182,0,S_ɔ
1777450367.3660438,2054,0,S_ɔ
1777450367.369386,1971,0,S_ɔ
1777450367.371979,2011,0,S_ɔ
1777450367.3748522,2082,0,S_ɔ
1777450367.377892,2185,0,S_ɔ
1777450367.3823009,2179,0,S_ɔ
1777450367.384141,2016,0,S_ɔ
1777450367.387039,1908,0,S_ɔ
1777450367.390572,2035,0,S_ɔ
1777450367.3931231,2141,0,S_ɔ
1777450367.3958662,2195,0,S_ɔ
1777450367.398855,2048,0,S_ɔ
1777450367.4030888,1965,0,S_ɔ
1777450367.405992,1955,0,S_ɔ
1777450367.408354,2071,0,S_ɔ
1777450367.411052,2184,0,S_ɔ
1777450367.4139142,2146,0,S_ɔ
1777450367.416865,2034,0,S_ɔ
1777450367.422879,1879,0,S_ɔ
1777450367.422962,1992,0,S_ɔ
1777450367.42698,2121,0,S_ɔ
1777450367.4291,2163,0,S_ɔ
1777450367.43186,2059,0,S_ɔ
1777450367.43485,2024,0,S_ɔ
1777450367.437854,1944,0,S_ɔ
1777450367.4441888,2036,0,S_ɔ
1777450367.444277,2122,0,S_ɔ
1777450367.4473028,2097,0,S_ɔ
1777450367.450048,2085,0,S_ɔ
1777450367.45295,1911,0,S_ɔ
1777450367.45587,1947,0,S_ɔ
1777450367.458866,2106,0,S_ɔ
1777450367.463829,2181,0,S_ɔ
1777450367.46577,2091,0,S_ɔ
1777450367.4708421,2079,0,S_ɔ
1777450367.4709818,1979,0,S_ɔ
1777450367.47387,2042,0,S_ɔ
1777450367.4768379,2171,0,S_ɔ
1777450367.479868,2109,0,S_ɔ
1777450367.4842508,2042,0,S_ɔ
1777450367.48625,1968,0,S_ɔ
1777450367.490339,1967,0,S_ɔ
1777450367.4929228,2119,0,S_ɔ
1777450367.495478,2180,0,S_ɔ
1777450367.4980218,2076,0,S_ɔ
1777450367.500968,1989,0,S_ɔ
1777450367.504159,1957,0,S_ɔ
1777450367.508275,1995,0,S_ɔ
1777450367.5109708,2103,0,S_ɔ
1777450367.513558,2144,0,S_ɔ
1777450367.516106,2073,0,S_ɔ
1777450367.5188448,1938,0,S_ɔ
1777450367.5253701,1956,0,S_ɔ
1777450367.5257401,2104,0,S_ɔ
1777450367.528903,2177,0,S_ɔ
1777450367.532404,2098,0,S_ɔ
1777450367.5341692,2042,0,S_ɔ
1777450367.5368588,1899,0,S_ɔ
1777450367.539885,1995,0,S_ɔ
1777450367.5453131,2123,0,S_ɔ
1777450367.5460072,2151,0,S_ɔ
1777450367.5498,2082,0,S_ɔ
1777450367.552675,1955,0,S_ɔ
1777450367.555309,1950,0,S_ɔ
1777450367.557881,2075,0,S_ɔ
1777450367.560849,2158,0,S_ɔ
1777450367.5651789,2150,0,S_ɔ
1777450367.567195,2015,0,S_ɔ
1777450367.5699892,1948,0,S_ɔ
1777450367.57391,1978,0,S_ɔ
1777450367.5764601,2143,0,S_ɔ
1777450367.579006,2174,0,S_ɔ
1777450367.5818439,2095,0,S_ɔ
1777450367.585687,1995,0,S_ɔ
1777450367.588928,1935,0,S_ɔ
1777450367.591896,2081,0,S_ɔ
1777450367.59472,2225,0,S_ɔ
1777450367.5972621,2102,0,S_ɔ
1777450367.599852,2022,0,S_ɔ
1777450367.605651,1938,0,S_ɔ
1777450367.606625,1968,0,S_ɔ
1777450367.609372,2103,0,S_ɔ
1777450367.612258,2140,0,S_ɔ
1777450367.614996,2099,0,S_ɔ
1777450367.6178539,1929,0,S_ɔ
1777450367.620851,1888,0,S_ɔ
1777450367.626941,2051,0,S_ɔ
1777450367.6276438,2189,0,S_ɔ
1777450367.630371,2125,0,S_ɔ
1777450367.634086,2038,0,S_ɔ
1777450367.6359081,1975,0,S_ɔ
1777450367.639952,1943,0,S_ɔ
1777450367.641721,2080,0,S_ɔ
1777450367.64473,2184,0,S_ɔ
1777450367.648897,2074,0,S_ɔ
1777450367.652195,1997,0,S_ɔ
1777450367.654809,1919,0,S_ɔ
1777450367.657807,2004,0,S_ɔ
1777450367.66031,2127,0,S_ɔ
1777450367.662865,2166,0,S_ɔ
1777450367.665719,2093,0,S_ɔ
1777450367.669822,1952,0,S_ɔ
1777450367.671811,1917,0,S_ɔ
1777450367.6748009,2117,0,S_ɔ
1777450367.678963,2154,0,S_ɔ
1777450367.680745,2147,0,S_ɔ
1777450367.683748,2044,0,S_ɔ
1777450367.6867251,1953,0,S_ɔ
1777450367.6909592,1940,0,S_ɔ
1777450367.692941,2161,0,S_ɔ
1777450367.6960452,2224,0,S_ɔ
1777450367.700066,2069,0,S_ɔ
1777450367.7017338,1912,0,S_ɔ
1777450367.704739,1937,0,S_ɔ
1777450367.70772,2048,0,S_ɔ
1777450367.71156,2149,0,S_ɔ
1777450367.713744,2123,0,S_ɔ
1777450367.71679,2016,0,S_ɔ
1777450367.720761,1937,0,S_ɔ
1777450367.723306,1967,0,S_ɔ
1777450367.7258549,2118,0,S_ɔ
1777450367.7316952,2157,0,S_ɔ
1777450367.732075,2076,0,S_ɔ
1777450367.735523,2008,0,S_ɔ
1777450367.7392378,1917,0,S_ɔ
1777450367.740959,2063,0,S_ɔ
1777450367.743762,2137,0,S_ɔ
1777450367.746754,2139,0,S_ɔ
1777450367.752904,2072,0,S_ɔ
1777450367.754734,1979,0,S_ɔ
1777450367.756144,1959,0,S_ɔ
1777450367.7598941,2142,0,S_ɔ
1777450367.76173,2191,0,S_ɔ
1777450367.764728,2124,0,S_ɔ
1777450367.76772,1967,0,S_ɔ
1777450367.772995,1899,0,S_ɔ
1777450367.775239,2024,0,S_ɔ
1777450367.777071,2145,0,S_ɔ
1777450367.780797,2144,0,S_ɔ
1777450367.782751,2039,0,S_ɔ
1777450367.785727,1922,0,S_ɔ
1777450367.788764,1933,0,S_ɔ
1777450367.793699,2097,0,S_ɔ
1777450367.795388,2159,0,S_ɔ
1777450367.79943,2111,0,S_ɔ
1777450367.80091,1975,0,S_ɔ
1777450367.803791,1885,0,S_ɔ
1777450367.806732,1992,0,S_ɔ
1777450367.810474,2133,0,S_ɔ
1777450367.814173,2138,0,S_ɔ
1777450367.815996,2059,0,S_ɔ
1777450367.820099,1956,0,S_ɔ
1777450367.823209,1919,0,S_ɔ
1777450367.8247738,2054,0,S_ɔ
1777450367.8277462,2164,0,S_ɔ
1777450367.834186,2125,0,S_ɔ
1777450367.8346088,2012,0,S_ɔ
1777450367.837903,1883,0,S_ɔ
1777450367.8405309,1970,0,S_ɔ
1777450367.843235,2132,0,S_ɔ
1777450367.8457458,2172,0,S_ɔ
1777450367.8487208,2057,0,S_ɔ
1777450367.8554082,1954,0,S_ɔ
1777450367.856072,1909,0,S_ɔ
1777450367.858907,2043,0,S_ɔ
1777450367.8629398,2206,0,S_ɔ
1777450367.864672,2075,0,S_ɔ
1777450367.8672168,2016,0,S_ɔ
1777450367.8697422,1925,0,S_ɔ
1777450367.875626,1932,0,S_ɔ
1777450367.876354,2126,0,S_ɔ
1777450367.8838139,2131,0,S_ɔ
1777450367.884036,2107,0,S_ɔ
1777450367.885788,1944,0,S_ɔ
1777450367.888345,1871,0,S_ɔ
1777450367.8908958,2007,0,S_ɔ
1777450367.893888,2118,0,S_ɔ
1777450367.897426,2126,0,S_ɔ
1777450367.899724,2029,0,S_ɔ
1777450367.9028668,1889,0,S_ɔ
1777450367.905688,1912,0,S_ɔ
1777450367.908635,2083,0,S_ɔ
1777450367.9115992,2132,0,S_ɔ
1777450367.914622,2074,0,S_ɔ
1777450367.9211771,1957,0,S_ɔ
1777450367.9226098,1872,0,S_ɔ
1777450367.924294,1977,0,S_ɔ
1777450367.9273589,2088,0,S_ɔ
1777450367.930057,2138,0,S_ɔ
1777450367.932638,2054,0,S_ɔ
1777450367.935605,1924,0,S_ɔ
1777450367.94061,1876,0,S_ɔ
1777450367.942546,2074,0,S_ɔ
1777450367.946683,2164,0,S_ɔ
1777450367.94811,2140,0,S_ɔ
1777450367.950763,2012,0,S_ɔ
1777450367.9536152,1930,0,S_ɔ
1777450367.95661,2011,0,S_ɔ
1777450367.961196,2136,0,S_ɔ
1777450367.963485,2185,0,S_ɔ
1777450367.967644,2105,0,S_ɔ
1777450367.9692218,1959,0,S_ɔ
1777450367.972003,1917,0,S_ɔ
1777450367.974595,2034,0,S_ɔ
1777450367.97763,2112,0,S_ɔ
1777450367.984668,2119,0,S_ɔ
1777450367.98654,2067,0,S_ɔ
1777450367.986874,1916,0,S_ɔ
1777450367.991468,1999,0,S_ɔ
1777450367.994914,2151,0,S_ɔ
1777450367.9963,2200,0,S_ɔ
1777450367.998966,2093,0,S_ɔ
1777450368.002005,1993,0,S_ɔ
1777450368.008487,1947,0,S_ɔ
1777450368.008566,2045,0,S_ɔ
1777450368.012099,2143,0,S_ɔ
1777450368.014954,2157,0,S_ɔ
1777450368.016753,2039,0,S_ɔ
1777450368.01982,1915,0,S_ɔ
1777450368.022617,1979,0,S_ɔ
1777450368.02561,2119,0,S_ɔ
1777450368.031958,2171,0,S_ɔ
1777450368.034584,2114,0,S_ɔ
1777450368.036125,1988,0,S_ɔ
1777450368.0401258,1920,0,S_ɔ
1777450368.0431428,2018,0,S_ɔ
1777450368.04932,2173,0,S_ɔ
1777450368.066417,2186,0,S_ɔ
1777450368.06651,2076,0,S_ɔ
1777450368.066567,1919,0,S_ɔ
1777450368.0666182,1957,0,S_ɔ
1777450368.066666,2112,0,S_ɔ
1777450368.066714,2163,0,S_ɔ
1777450368.073822,2136,0,S_ɔ
1777450368.085521,2009,0,S_ɔ
1777450368.087907,1888,0,S_ɔ
1777450368.0880158,2005,0,S_ɔ
1777450368.088049,2158,0,S_ɔ
1777450368.088074,2143,0,S_ɔ
1777450368.088099,2048,0,S_ɔ
1777450368.0881548,1942,0,S_ɔ
1777450368.088608,1939,0,S_ɔ
1777450368.091607,2084,0,S_ɔ
1777450368.0945852,2136,0,S_ɔ
1777450368.0999308,2117,0,S_ɔ
1777450368.102485,2032,0,S_ɔ
1777450368.104352,1865,0,S_ɔ
1777450368.108473,1921,0,S_ɔ
1777450368.1102989,2068,0,S_ɔ
1777450368.1128588,2110,0,S_ɔ
1777450368.1155891,2068,0,S_ɔ
1777450368.1185951,1890,0,S_ɔ
1777450368.12288,1830,0,S_ɔ
1777450368.12521,2011,0,S_ɔ
1777450368.1294909,2099,0,S_ɔ
1777450368.131254,2120,0,S_ɔ
1777450368.1340759,2000,0,S_ɔ
1777450368.136676,1919,0,S_ɔ
1777450368.1395211,1922,0,S_ɔ
1777450368.1457129,2044,0,S_ɔ
1777450368.146139,2147,0,S_ɔ
1777450368.1496398,2090,0,S_ɔ
1777450368.154291,2006,0,S_ɔ
1777450368.154616,1920,0,S_ɔ
1777450368.15749,2031,0,S_ɔ
1777450368.1604638,2151,0,S_ɔ
1777450368.1634932,2182,0,S_ɔ
1777450368.168871,2110,0,S_ɔ
1777450368.1705449,1953,0,S_ɔ
1777450368.174952,1913,0,S_ɔ
1777450368.176706,2104,0,S_ɔ
1777450368.1785002,2219,0,S_ɔ
1777450368.1814961,2100,0,S_ɔ
1777450368.1844668,1987,0,S_ɔ
1777450368.190847,1899,0,S_ɔ
1777450368.19223,2008,0,S_ɔ
1777450368.1937542,2143,0,S_ɔ
1777450368.196602,2150,0,S_ɔ
1777450368.200153,2079,0,S_ɔ
1777450368.2029781,1942,0,S_ɔ
1777450368.205538,1947,0,S_ɔ
1777450368.2084942,2107,0,S_ɔ
1777450368.2176619,2171,0,S_ɔ
1777450368.2197928,2111,0,S_ɔ
1777450368.2206159,2025,0,S_ɔ
1777450368.22112,1926,0,S_ɔ
1777450368.225299,1986,0,S_ɔ
1777450368.22711,2125,0,S_ɔ
1777450368.229686,2169,0,S_ɔ
1777450368.232491,2097,0,S_ɔ
1777450368.235462,1941,0,S_ɔ
1777450368.239916,1939,0,S_ɔ
1777450368.242186,2081,0,S_ɔ
1777450368.245277,2146,0,S_ɔ
1777450368.24842,2150,0,S_ɔ
1777450368.2504551,2055,0,S_ɔ
1777450368.2534678,1909,0,S_ɔ
1777450368.256462,1977,0,S_ɔ
1777450368.262847,2123,0,S_ɔ
1777450368.264108,2148,0,S_ɔ
1777450368.26577,2101,0,S_ɔ
1777450368.270581,1984,0,S_ɔ
1777450368.272533,1930,0,S_ɔ
1777450368.2744708,2053,0,S_ɔ
1777450368.2774599,2147,0,S_ɔ
1777450368.280491,2151,0,S_ɔ
1777450368.286753,2054,0,S_ɔ
1777450368.287492,1942,0,S_ɔ
1777450368.289564,1944,0,S_ɔ
1777450368.2927969,2104,0,S_ɔ
1777450368.296324,2174,0,S_ɔ
1777450368.298574,2099,0,S_ɔ
1777450368.301504,1992,0,S_ɔ
1777450368.304469,1926,0,S_ɔ
1777450368.307487,2035,0,S_ɔ
1777450368.312596,2165,0,S_ɔ
1777450368.314538,2159,0,S_ɔ
1777450368.317117,2064,0,S_ɔ
1777450368.321358,1948,0,S_ɔ
1777450368.323541,1940,0,S_ɔ
1777450368.32548,2099,0,S_ɔ
1777450368.32848,2178,0,S_ɔ
1777450368.331469,2123,0,S_ɔ
1777450368.337308,2036,0,S_ɔ
1777450368.338527,1917,0,S_ɔ
1777450368.342022,1996,0,S_ɔ
1777450368.3441122,2133,0,S_ɔ
1777450368.347424,2170,0,S_ɔ
1777450368.3496718,2091,0,S_ɔ
1777450368.352515,1959,0,S_ɔ
1777450368.3593721,1907,0,S_ɔ
1777450368.3594828,2095,0,S_ɔ
1777450368.3639119,2148,0,S_ɔ
1777450368.36605,2143,0,S_ɔ
1777450368.368256,2015,0,S_ɔ
1777450368.371066,1924,0,S_ɔ
1777450368.3738172,1995,0,S_ɔ
1777450368.376487,2140,0,S_ɔ
1777450368.379499,2147,0,S_ɔ
1777450368.3850272,2074,0,S_ɔ
1777450368.387999,1980,0,S_ɔ
1777450368.3888059,1909,0,S_ɔ
1777450368.3937018,2078,0,S_ɔ
1777450368.395704,2136,0,S_ɔ
1777450368.397363,2116,0,S_ɔ
1777450368.4040608,2027,0,S_ɔ
1777450368.406424,1909,0,S_ɔ
1777450368.4082181,1963,0,S_ɔ
1777450368.410482,2116,0,S_ɔ
1777450368.413707,2125,0,S_ɔ
1777450368.415967,2056,0,S_ɔ
1777450368.418656,1934,0,S_ɔ
1777450368.421416,1899,0,S_ɔ
1777450368.424354,2027,0,S_ɔ
1777450368.429659,2131,0,S_ɔ
1777450368.431793,2127,0,S_ɔ
1777450368.435186,2030,0,S_ɔ
1777450368.439221,1889,0,S_ɔ
1777450368.439626,1939,0,S_ɔ
1777450368.4423838,2107,0,S_ɔ
1777450368.445426,2182,0,S_ɔ
1777450368.450398,2112,0,S_ɔ
1777450368.453675,1991,0,S_ɔ
1777450368.457479,1898,0,S_ɔ
1777450368.459423,2025,0,S_ɔ
1777450368.4611928,2129,0,S_ɔ
1777450368.463862,2149,0,S_ɔ
1777450368.4665248,2115,0,S_ɔ
1777450368.469363,1935,0,S_ɔ
1777450368.4759119,1949,0,S_ɔ
1777450368.477459,2099,0,S_ɔ
1777450368.479635,2159,0,S_ɔ
1777450368.484558,2116,0,S_ɔ
1777450368.4849012,2027,0,S_ɔ
1777450368.48736,1933,0,S_ɔ
1777450368.49036,2005,0,S_ɔ
1777450368.496047,2123,0,S_ɔ
1777450368.497288,2170,0,S_ɔ
1777450368.500799,2083,0,S_ɔ
1777450368.5039082,1975,0,S_ɔ
1777450368.5058649,1966,0,S_ɔ
1777450368.5084229,2044,0,S_ɔ
1777450368.5113358,2125,0,S_ɔ
1777450368.514336,2111,0,S_ɔ
1777450368.5189,2005,0,S_ɔ
1777450368.520819,1919,0,S_ɔ
1777450368.524014,1959,0,S_ɔ
1777450368.52735,2102,0,S_ɔ
1777450368.529481,2135,0,S_ɔ
1777450368.532358,2089,0,S_ɔ
1777450368.53534,1990,0,S_ɔ
1777450368.54194,1955,0,S_ɔ
1777450368.542333,2050,0,S_ɔ
1777450368.544649,2178,0,S_ɔ
1777450368.547743,2146,0,S_ɔ
1777450368.551017,2081,0,S_ɔ
1777450368.553886,1940,0,S_ɔ
1777450368.556463,1970,0,S_ɔ
1777450368.559351,2131,0,S_ɔ
1777450368.56553,2162,0,S_ɔ
1777450368.566263,2083,0,S_ɔ
1777450368.569221,1996,0,S_ɔ
1777450368.5723908,1886,0,S_ɔ
1777450368.574403,2025,0,S_ɔ
1777450368.577346,2148,0,S_ɔ
1777450368.5809128,2145,0,S_ɔ
1777450368.583466,2069,0,S_ɔ
1777450368.58798,1920,0,S_ɔ
1777450368.590045,1939,0,S_ɔ
1777450368.5945458,2132,0,S_ɔ
1777450368.5962582,2177,0,S_ɔ
1777450368.599334,2118,0,S_ɔ
1777450368.601881,2000,0,S_ɔ
1777450368.6044369,1910,0,S_ɔ
1777450368.610709,1991,0,S_ɔ
1777450368.61108,2132,0,S_ɔ
1777450368.613728,2161,0,S_ɔ
1777450368.61686,2074,0,S_ɔ
1777450368.620342,1913,0,S_ɔ
1777450368.622897,1909,0,S_ɔ
1777450368.625449,2053,0,S_ɔ
1777450368.62835,2138,0,S_ɔ
1777450368.633002,2135,0,S_ɔ
1777450368.634669,2005,0,S_ɔ
1777450368.637776,1916,0,S_ɔ
1777450368.640907,1995,0,S_ɔ
1777450368.643671,2130,0,S_ɔ
1777450368.646389,2103,0,S_ɔ
1777450368.649259,2100,0,S_ɔ
1777450368.655243,1970,0,S_ɔ
1777450368.655634,1905,0,S_ɔ
1777450368.659154,2023,0,S_ɔ
1777450368.6620631,2137,0,S_ɔ
1777450368.665568,2150,0,S_ɔ
1777450368.667208,2033,0,S_ɔ
1777450368.670224,1915,0,S_ɔ
1777450368.673216,1982,0,S_ɔ
1777450368.6774778,2136,0,S_ɔ
1777450368.679546,2150,0,S_ɔ
1777450368.6837819,2088,0,S_ɔ
1777450368.6855118,1987,0,S_ɔ
1777450368.68861,1919,0,S_ɔ
1777450368.691359,2035,0,S_ɔ
1777450368.6942139,2142,0,S_ɔ
1777450368.698825,2138,0,S_ɔ
1777450368.7009122,2048,0,S_ɔ
1777450368.703723,1901,0,S_ɔ
1777450368.7068841,1936,0,S_ɔ
1777450368.709579,2096,0,S_ɔ
1777450368.712241,2163,0,S_ɔ
1777450368.715206,2105,0,S_ɔ
1777450368.7199109,2005,0,S_ɔ
1777450368.7230551,1931,0,S_ɔ
1777450368.7246468,2021,0,S_ɔ
1777450368.7278159,2168,0,S_ɔ
1777450368.730932,2196,0,S_ɔ
1777450368.7334862,2083,0,S_ɔ
1777450368.736217,1969,0,S_ɔ
1777450368.741929,1959,0,S_ɔ
1777450368.743619,2115,0,S_ɔ
1777450368.745783,2209,0,S_ɔ
1777450368.7496278,2150,0,S_ɔ
1777450368.751393,2033,0,S_ɔ
1777450368.754224,1957,0,S_ɔ
1777450368.7577999,2017,0,S_ɔ
1777450368.760519,2173,0,S_ɔ
1777450368.7641978,2199,0,S_ɔ
1777450368.766277,2114,0,S_ɔ
1777450368.770549,1940,0,S_ɔ
1777450368.772325,1946,0,S_ɔ
1777450368.7752478,2096,0,S_ɔ
1777450368.7782452,2178,0,S_ɔ
1777450368.78126,2140,0,S_ɔ
1777450368.7857091,2063,0,S_ɔ
1777450368.787783,1930,0,S_ɔ
1777450368.7909172,1975,0,S_ɔ
1777450368.793643,2141,0,S_ɔ
1777450368.796329,2170,0,S_ɔ
1777450368.799215,2120,0,S_ɔ
1777450368.802191,1978,0,S_ɔ
1777450368.806397,1930,0,S_ɔ
1777450368.8085551,2052,0,S_ɔ
1777450368.811668,2155,0,S_ɔ
1777450368.8143208,2167,0,S_ɔ
1777450368.817216,2024,0,S_ɔ
1777450368.82021,1914,0,S_ɔ
1777450368.8232262,1983,0,S_ɔ
1777450368.835652,2124,0,S_ɔ
1777450368.837285,2129,0,S_ɔ
1777450368.8376331,2125,0,S_ɔ
1777450368.837794,2008,0,S_ɔ
1777450368.838211,1925,0,S_ɔ
1777450368.841237,2042,0,S_ɔ
1777450368.844227,2149,0,S_ɔ
1777450368.849879,2160,0,S_ɔ
1777450368.8504949,2070,0,S_ɔ
1777450368.854191,1941,0,S_ɔ
1777450368.857048,1935,0,S_ɔ
1777450368.859613,2100,0,S_ɔ
1777450368.862227,2163,0,S_ɔ
1777450368.8652182,2096,0,S_ɔ
1777450368.8697238,2001,0,S_ɔ
1777450368.871718,1930,0,S_ɔ
1777450368.874361,2019,0,S_ɔ
1777450368.877552,2139,0,S_ɔ
1777450368.880299,2162,0,S_ɔ
1777450368.8832362,2096,0,S_ɔ
1777450368.886208,1943,0,S_ɔ
1777450368.890887,1949,0,S_ɔ
1777450368.892879,2099,0,S_ɔ
1777450368.895823,2165,0,S_ɔ
1777450368.898619,2157,0,S_ɔ
1777450368.901341,2025,0,S_ɔ
1777450368.9042208,1914,0,S_ɔ
1777450368.9072409,1978,0,S_ɔ
1777450368.911368,2139,0,S_ɔ
1777450368.913284,2157,0,S_ɔ
1777450368.917475,2066,0,S_ɔ
1777450368.919281,1960,0,S_ɔ
1777450368.922252,1934,0,S_ɔ
1777450368.9252212,2064,0,S_ɔ
1777450368.9282382,2137,0,S_ɔ
1777450368.932827,2136,0,S_ɔ
1777450368.934687,2084,0,S_ɔ
1777450368.937707,1893,0,S_ɔ
1777450368.9404092,1971,0,S_ɔ
1777450368.943091,2156,0,S_ɔ
1777450368.946111,2159,0,S_ɔ
1777450368.949093,2106,0,S_ɔ
1777450368.953239,2018,0,S_ɔ
1777450368.955306,1971,0,S_ɔ
1777450368.959327,2042,0,S_ɔ
1777450368.961102,2094,0,S_ɔ
1777450368.964122,2131,0,S_ɔ
1777450368.967093,2026,0,S_ɔ
1777450368.970102,1920,0,S_ɔ
1777450368.973653,1960,0,S_ɔ
1777450368.977428,2086,0,S_ɔ
1777450368.980042,2112,0,S_ɔ
1777450368.982997,2130,0,S_ɔ
1777450368.985587,1997,0,S_ɔ
1777450368.988138,1908,0,S_ɔ
1777450368.9910989,2042,0,S_ɔ
1777450368.995243,2144,0,S_ɔ
1777450368.997524,2175,0,S_ɔ
1777450369.001704,2076,0,S_ɔ
1777450369.0035331,1934,0,S_ɔ
1777450369.006083,1957,0,S_ɔ
1777450369.009094,2087,0,S_ɔ
1777450369.015025,2175,0,S_ɔ
1777450369.015142,2166,0,S_ɔ
1777450369.018503,2045,0,S_ɔ
1777450369.0225039,1898,0,S_ɔ
1777450369.024297,2001,0,S_ɔ
1777450369.0270798,2138,0,S_ɔ
1777450369.03011,2168,0,S_ɔ
1777450369.035071,2095,0,S_ɔ
1777450369.037363,1941,0,S_ɔ
1777450369.040266,1920,0,S_ɔ
1777450369.042827,2066,0,S_ɔ
1777450369.045405,2158,0,S_ɔ
1777450369.048107,2126,0,S_ɔ
1777450369.051083,1993,0,S_ɔ
1777450369.055459,1909,0,S_ɔ
1777450369.057463,1980,0,S_ɔ
1777450369.061366,2125,0,S_ɔ
1777450369.0631301,2120,0,S_ɔ
1777450369.066109,2055,0,S_ɔ
1777450369.069083,1953,0,S_ɔ
1777450369.0721111,1936,0,S_ɔ
1777450369.077733,2052,0,S_ɔ
1777450369.078954,2131,0,S_ɔ
1777450369.083117,2104,0,S_ɔ
1777450369.084825,2027,0,S_ɔ
1777450369.08738,1921,0,S_ɔ
1777450369.090081,1972,0,S_ɔ
1777450369.0957499,2100,0,S_ɔ
1777450369.0961092,2147,0,S_ɔ
1777450369.099249,2101,0,S_ɔ
1777450369.103157,1955,0,S_ɔ
1777450369.105109,1912,0,S_ɔ
1777450369.108097,2012,0,S_ɔ
1777450369.1110988,2135,0,S_ɔ
1777450369.116132,2162,0,S_ɔ
1777450369.118027,2100,0,S_ɔ
1777450369.121972,1887,0,S_ɔ
1777450369.1235142,1902,0,S_ɔ
1777450369.126127,2089,0,S_ɔ
1777450369.12909,2142,0,S_ɔ
1777450369.132143,2116,0,S_ɔ
1777450369.137002,1950,0,S_ɔ
1777450369.138858,1875,0,S_ɔ
1777450369.141849,2044,0,S_ɔ
1777450369.144574,2135,0,S_ɔ
1777450369.147124,2145,0,S_ɔ
1777450369.150115,2092,0,S_ɔ
1777450369.153089,1955,0,S_ɔ
1777450369.15697,1950,0,S_ɔ
1777450369.160169,2104,0,S_ɔ
1777450369.164334,2150,0,S_ɔ
1777450369.1660318,2139,0,S_ɔ
1777450369.168571,2017,0,S_ɔ
1777450369.171098,1916,0,S_ɔ
1777450369.174099,2001,0,S_ɔ
1777450369.177451,2137,0,S_ɔ
1777450369.18095,2169,0,S_ɔ
1777450369.1831958,2072,0,S_ɔ
1777450369.186332,1981,0,S_ɔ
1777450369.189093,1945,0,S_ɔ
1777450369.192111,2069,0,S_ɔ
1777450369.197578,2166,0,S_ɔ
1777450369.198206,2159,0,S_ɔ
1777450369.201238,2065,0,S_ɔ
1777450369.204988,1945,0,S_ɔ
1777450369.2075882,1996,0,S_ɔ
1777450369.210148,2156,0,S_ɔ
1777450369.213119,2202,0,S_ɔ
1777450369.217481,2124,0,S_ɔ
1777450369.219455,1971,0,S_ɔ
1777450369.222419,1931,0,S_ɔ
1777450369.2251022,2068,0,S_ɔ
1777450369.227989,2168,0,S_ɔ
1777450369.230973,2171,0,S_ɔ
1777450369.2339892,2050,0,S_ɔ
1777450369.23766,1945,0,S_ɔ
1777450369.2413828,1965,0,S_ɔ
1777450369.243882,2142,0,S_ɔ
1777450369.247036,2192,0,S_ɔ
1777450369.2495801,2122,0,S_ɔ
1777450369.251986,2009,0,S_ɔ
1777450369.258358,1937,0,S_ɔ
1777450369.258718,2052,0,S_ɔ
1777450369.261819,2180,0,S_ɔ
1777450369.265863,2166,0,S_ɔ
1777450369.267549,2089,0,S_ɔ
1777450369.270143,1945,0,S_ɔ
1777450369.273005,1986,0,S_ɔ
1777450369.27864,2107,0,S_ɔ
1777450369.279522,2132,0,S_ɔ
1777450369.282145,2130,0,S_ɔ
1777450369.2859,2034,0,S_ɔ
1777450369.288512,1946,0,S_ɔ
1777450369.291052,1995,0,S_ɔ
1777450369.29398,2135,0,S_ɔ
1777450369.299732,2163,0,S_ɔ
1777450369.3016472,2078,0,S_ɔ
1777450369.3041642,1974,0,S_ɔ
1777450369.306509,1921,0,S_ɔ
1777450369.310198,2083,0,S_ɔ
1777450369.31199,2187,0,S_ɔ
1777450369.315018,2129,0,S_ɔ
1777450369.317981,2074,0,S_ɔ
1777450369.3237472,1937,0,S_ɔ
1777450369.324131,1977,0,S_ɔ
1777450369.327871,2112,0,S_ɔ
1777450369.330454,2188,0,S_ɔ
1777450369.33429,2091,0,S_ɔ
1777450369.335977,1965,0,S_ɔ
1777450369.3389912,1929,0,S_ɔ
1777450369.3419678,2012,0,S_ɔ
1777450369.346752,2160,0,S_ɔ
1777450369.350647,2122,0,S_ɔ
1777450369.351509,2069,0,S_ɔ
1777450369.3563452,1907,0,S_ɔ
1777450369.357069,1943,0,S_ɔ
1777450369.360196,2082,0,S_ɔ
1777450369.362975,2196,0,S_ɔ
1777450369.3659651,2101,0,S_ɔ
1777450369.3719392,1976,0,S_ɔ
1777450369.375457,1883,0,S_ɔ
1777450369.378297,2017,0,S_ɔ
1777450369.38007,2182,0,S_ɔ
1777450369.382097,2155,0,S_ɔ
1777450369.383979,1984,0,S_ɔ
1777450369.386985,1863,0,S_ɔ
1777450369.3899782,1937,0,S_ɔ
1777450369.3945332,2111,0,S_ɔ
1777450369.397844,2099,0,S_ɔ
1777450369.4033978,2009,0,S_ɔ
1777450369.403745,2034,0,S_ɔ
1777450369.405868,1935,0,S_ɔ
1777450369.408555,1979,0,S_ɔ
1777450369.411175,2140,0,S_ɔ
1777450369.41405,2199,0,S_ɔ
1777450369.425997,2090,0,S_ɔ
1777450369.42685,1940,0,S_ɔ
1777450369.430305,1898,0,S_ɔ
1777450369.4308321,2018,0,S_ɔ
1777450369.4311628,2168,0,S_ɔ
1777450369.433316,2122,0,S_ɔ
1777450369.4352791,1977,0,S_ɔ
1777450369.4379861,1937,0,S_ɔ
1777450369.444858,2000,0,S_ɔ
1777450369.44507,2138,0,S_ɔ
1777450369.448717,2163,0,S_ɔ
1777450369.452047,2157,0,S_ɔ
1777450369.453662,1950,0,S_ɔ
1777450369.456339,1945,0,S_ɔ
1777450369.45897,2063,0,S_ɔ
1777450369.462632,2128,0,S_ɔ
1777450369.468656,2102,0,S_ɔ
1777450369.470243,2054,0,S_ɔ
1777450369.4720929,1929,0,S_ɔ
1777450369.477083,1979,0,S_ɔ
1777450369.4773262,2166,0,S_ɔ
1777450369.480614,2146,0,S_ɔ
1777450369.48326,2120,0,S_ɔ
1777450369.485995,2004,0,S_ɔ
1777450369.489022,1962,0,S_ɔ
1777450369.497761,2016,0,S_ɔ
1777450369.498376,2143,0,S_ɔ
1777450369.499329,2159,0,S_ɔ
1777450369.5052118,2134,0,S_ɔ
1777450369.505257,1912,0,S_ɔ
1777450369.506987,1968,0,S_ɔ
1777450369.510022,2136,0,S_ɔ
1777450369.512987,2189,0,S_ɔ
1777450369.524899,2137,0,S_ɔ
1777450369.5283,1988,0,S_ɔ
1777450369.528752,1899,0,S_ɔ
1777450369.529053,2047,0,S_ɔ
1777450369.529562,2169,0,S_ɔ
1777450369.531739,2187,0,S_ɔ
1777450369.5343099,2075,0,S_ɔ
1777450369.5406451,1931,0,S_ɔ
1777450369.541248,1940,0,S_ɔ
1777450369.546027,2104,0,S_ɔ
1777450369.548023,2182,0,S_ɔ
1777450369.551718,2124,0,S_ɔ
1777450369.554392,2016,0,S_ɔ
1777450369.555155,1934,0,S_ɔ
1777450369.557838,2009,0,S_ɔ
1777450369.5608902,2166,0,S_ɔ
1777450369.56781,2176,0,S_ɔ
1777450369.568792,2177,0,S_ɔ
1777450369.570871,1964,0,S_ɔ
1777450369.5732522,1925,0,S_ɔ
1777450369.57796,2052,0,S_ɔ
1777450369.579912,2180,0,S_ɔ
1777450369.582471,2108,0,S_ɔ
1777450369.589033,1997,0,S_ɔ
1777450369.5905678,1895,0,S_ɔ
1777450369.5922172,1979,0,S_ɔ
1777450369.595644,2148,0,S_ɔ
1777450369.5976691,2151,0,S_ɔ
1777450369.599841,2140,0,S_ɔ
1777450369.602864,2007,0,S_ɔ
1777450369.605841,1883,0,S_ɔ
1777450369.6089542,2058,0,S_ɔ
1777450369.613649,2173,0,S_ɔ
1777450369.61554,2064,0,S_ɔ
1777450369.61917,2053,0,S_ɔ
1777450369.6226351,1899,0,S_ɔ
1777450369.624771,2017,0,S_ɔ
1777450369.627362,2047,0,S_ɔ
1777450369.629858,2142,0,S_ɔ
1777450369.632868,2111,0,S_ɔ
1777450369.6381161,1988,0,S_ɔ
1777450369.640469,1928,0,S_ɔ
1777450369.641957,2015,0,S_ɔ
1777450369.645379,2147,0,S_ɔ
1777450369.649184,2146,0,S_ɔ
1777450369.650856,2053,0,S_ɔ
1777450369.6538749,1986,0,S_ɔ
1777450369.6569002,1915,0,S_ɔ
1777450369.662848,2138,0,S_ɔ
1777450369.6649878,2144,0,S_ɔ
1777450369.6671538,2132,0,S_ɔ
1777450369.6699362,1985,0,S_ɔ
1777450369.671944,1900,0,S_ɔ
1777450369.674835,1976,0,S_ɔ
1777450369.677856,2121,0,S_ɔ
1777450369.680855,2143,0,S_ɔ
1777450369.687155,2063,0,S_ɔ
1777450369.687286,1933,0,S_ɔ
1777450369.6913888,1918,0,S_ɔ
1777450369.693152,2090,0,S_ɔ
1777450369.696717,2183,0,S_ɔ
1777450369.698833,2113,0,S_ɔ
1777450369.701827,2029,0,S_ɔ
1777450369.704832,1931,0,S_ɔ
1777450369.707993,1997,0,S_ɔ
1777450369.71218,2136,0,S_ɔ
1777450369.714313,2169,0,S_ɔ
1777450369.717582,2076,0,S_ɔ
1777450369.7210062,1987,0,S_ɔ
1777450369.723037,1942,0,S_ɔ
1777450369.725832,2060,0,S_ɔ
1777450369.72887,2171,0,S_ɔ
1777450369.731842,2105,0,S_ɔ
1777450369.73665,2028,0,S_ɔ
1777450369.738848,1939,0,S_ɔ
1777450369.740936,1998,0,S_ɔ
1777450369.7458298,2132,0,S_ɔ
1777450369.7480938,2150,0,S_ɔ
1777450369.749853,2111,0,S_ɔ
1777450369.756362,2002,0,S_ɔ
1777450369.757143,1918,0,S_ɔ
1777450369.759179,2077,0,S_ɔ
1777450369.7642791,2185,0,S_ɔ
1777450369.76619,2157,0,S_ɔ
1777450369.768457,2099,0,S_ɔ
1777450369.7711492,1938,0,S_ɔ
1777450369.7738318,1940,0,S_ɔ
1777450369.776839,2116,0,S_ɔ
1777450369.7844212,2209,0,S_ɔ
1777450369.785855,2107,0,S_ɔ
1777450369.786206,1989,0,S_ɔ
1777450369.7894452,1903,0,S_ɔ
1777450369.793352,2049,0,S_ɔ
1777450369.795479,2135,0,S_ɔ
1777450369.798084,2130,0,S_ɔ
1777450369.805513,2086,0,S_ɔ
1777450369.814911,1945,0,S_ɔ
1777450369.8152478,1930,0,S_ɔ
1777450369.815531,2159,0,S_ɔ
1777450369.8157818,2161,0,S_ɔ
1777450369.816088,2171,0,S_ɔ
1777450369.818996,2046,0,S_ɔ
1777450369.821732,1887,0,S_ɔ
1777450369.8247302,2010,0,S_ɔ
1777450369.832432,2120,0,S_ɔ
1777450369.8350039,2145,0,S_ɔ
1777450369.837248,2079,0,S_ɔ
1777450369.837785,1978,0,S_ɔ
1777450369.843018,1916,0,S_ɔ
1777450369.843324,2044,0,S_ɔ
1777450369.846293,2144,0,S_ɔ
1777450369.848959,2122,0,S_ɔ
1777450369.8564491,2094,0,S_ɔ
1777450369.858175,1916,0,S_ɔ
1777450369.859128,1985,0,S_ɔ
1777450369.860885,2114,0,S_ɔ
1777450369.8644962,2141,0,S_ɔ
1777450369.86674,2104,0,S_ɔ
1777450369.8697321,2046,0,S_ɔ
1777450369.872732,1927,0,S_ɔ
1777450369.875731,2097,0,S_ɔ
1777450369.881545,2170,0,S_ɔ
1777450369.8834429,2171,0,S_ɔ
1777450369.885756,2085,0,S_ɔ
1777450369.888937,1970,0,S_ɔ
1777450369.891031,2006,0,S_ɔ
1777450369.8940969,2181,0,S_ɔ
1777450369.896738,2189,0,S_ɔ
1777450369.901238,2112,0,S_ɔ
1777450369.903937,2001,0,S_ɔ
1777450369.905865,1981,0,S_ɔ
1777450369.911544,2057,0,S_ɔ
1777450369.9118888,2179,0,S_ɔ
1777450369.9148211,2187,0,S_ɔ
1777450369.917723,2042,0,S_ɔ
1777450369.9207292,1951,0,S_ɔ
1777450369.923852,1990,0,S_ɔ
1777450369.929176,2131,0,S_ɔ
1777450369.930957,2186,0,S_ɔ
1777450369.933723,2132,0,S_ɔ
1777450369.936355,2020,0,S_ɔ
1777450369.938847,1919,0,S_ɔ
1777450369.941738,1999,0,S_ɔ
1777450369.944727,2129,0,S_ɔ
1777450369.950258,2156,0,S_ɔ
1777450369.952001,2069,0,S_ɔ
1777450369.95432,1942,0,S_ɔ
1777450369.9574668,1932,0,S_ɔ
1777450369.959738,2096,0,S_ɔ
1777450369.962704,2175,0,S_ɔ
1777450369.9657018,2111,0,S_ɔ
1777450369.9687302,1998,0,S_ɔ
1777450369.975041,1952,0,S_ɔ
1777450369.975483,1989,0,S_ɔ
1777450369.979108,2138,0,S_ɔ
1777450369.9811919,2153,0,S_ɔ
1777450369.9845161,2055,0,S_ɔ
1777450369.986706,1952,0,S_ɔ
1777450369.9897301,1933,0,S_ɔ
1777450369.992706,2072,0,S_ɔ
1777450369.995727,2137,0,S_ɔ
1777450370.00226,2113,0,S_ɔ
1777450370.002422,2028,0,S_ɔ
1777450370.005328,1901,0,S_ɔ
1777450370.008925,1986,0,S_ɔ
1777450370.010895,2130,0,S_ɔ
1777450370.013708,2162,0,S_ɔ
1777450370.016761,2111,0,S_ɔ
1777450370.019725,1968,0,S_ɔ
1777450370.024655,1928,0,S_ɔ
1777450370.0263522,2028,0,S_ɔ
1777450370.029412,2150,0,S_ɔ
1777450370.0328262,2157,0,S_ɔ
1777450370.03477,2048,0,S_ɔ
1777450370.0377018,1937,0,S_ɔ
1777450370.040703,1934,0,S_ɔ
1777450370.0438101,2120,0,S_ɔ
1777450370.047839,2156,0,S_ɔ
1777450370.049772,2123,0,S_ɔ
1777450370.05275,1990,0,S_ɔ
1777450370.056354,1895,0,S_ɔ
1777450370.05922,2009,0,S_ɔ
1777450370.061826,2140,0,S_ɔ
1777450370.0647302,2137,0,S_ɔ
1777450370.0710511,2061,0,S_ɔ
1777450370.071146,1929,0,S_ɔ
1777450370.0743942,1964,0,S_ɔ
1777450370.077767,2100,0,S_ɔ
1777450370.079795,2138,0,S_ɔ
1777450370.082731,2093,0,S_ɔ
1777450370.0856068,2010,0,S_ɔ
1777450370.0886028,1897,0,S_ɔ
1777450370.094273,1991,0,S_ɔ
1777450370.0946329,2123,0,S_ɔ
1777450370.097753,2127,0,S_ɔ
1777450370.1006389,2074,0,S_ɔ
1777450370.1038258,1927,0,S_ɔ
1777450370.106587,1952,0,S_ɔ
1777450370.109621,2060,0,S_ɔ
1777450370.1126442,2160,0,S_ɔ
1777450370.1162171,2134,0,S_ɔ
1777450370.119683,2020,0,S_ɔ
1777450370.122846,1895,0,S_ɔ
1777450370.124636,1970,0,S_ɔ
1777450370.1276212,2126,0,S_ɔ
1777450370.130624,2157,0,S_ɔ
1777450370.133589,2107,0,S_ɔ
1777450370.1386082,1971,0,S_ɔ
1777450370.140434,1927,0,S_ɔ
1777450370.1426592,2069,0,S_ɔ
1777450370.146514,2153,0,S_ɔ
1777450370.1492438,2142,0,S_ɔ
1777450370.151798,2049,0,S_ɔ
1777450370.1546218,1935,0,S_ɔ
1777450370.1613498,1935,0,S_ɔ
1777450370.162795,2089,0,S_ɔ
1777450370.164782,2168,0,S_ɔ
1777450370.167388,2098,0,S_ɔ
1777450370.1708958,1981,0,S_ɔ
1777450370.172616,1935,0,S_ɔ
1777450370.175581,2026,0,S_ɔ
1777450370.1791759,2147,0,S_ɔ
1777450370.18369,2167,0,S_ɔ
1777450370.185148,2037,0,S_ɔ
1777450370.18819,1936,0,S_ɔ
1777450370.191228,1966,0,S_ɔ
1777450370.193612,2096,0,S_ɔ
1777450370.196592,2164,0,S_ɔ
1777450370.199594,2092,0,S_ɔ
1777450370.204128,1965,0,S_ɔ
1777450370.206506,1927,0,S_ɔ
1777450370.2098439,2043,0,S_ɔ
1777450370.212568,2138,0,S_ɔ
1777450370.215212,2125,0,S_ɔ
1777450370.217757,2037,0,S_ɔ
1777450370.220576,1920,0,S_ɔ
1777450370.230839,1905,0,S_ɔ
1777450370.231693,2048,0,S_ɔ
1777450370.2321012,2139,0,S_ɔ
1777450370.2327418,2011,0,S_ɔ
1777450370.23598,1947,0,S_ɔ
1777450370.238732,1889,0,S_ɔ
1777450370.241602,1958,0,S_ɔ
1777450370.244575,2058,0,S_ɔ
1777450370.2499578,2108,0,S_ɔ
1777450370.251625,2035,0,S_ɔ
1777450370.253762,1947,0,S_ɔ
1777450370.257736,1924,0,S_ɔ
1777450370.2595851,2033,0,S_ɔ
1777450370.262591,2156,0,S_ɔ
1777450370.2655842,2135,0,S_ɔ
1777450370.270823,1998,0,S_ɔ
1777450370.272842,1882,0,S_ɔ
1777450370.274692,1944,0,S_ɔ
1777450370.278686,2108,0,S_ɔ
1777450370.2806232,2143,0,S_ɔ
1777450370.283607,2031,0,S_ɔ
1777450370.2866151,1983,0,S_ɔ
1777450370.293056,1918,0,S_ɔ
1777450370.293416,2003,0,S_ɔ
1777450370.296486,2113,0,S_ɔ
1777450370.300517,2143,0,S_ɔ
1777450370.30237,2055,0,S_ɔ
1777450370.3049212,1961,0,S_ɔ
1777450370.3076181,1926,0,S_ɔ
1777450370.310606,2074,0,S_ɔ
1777450370.314624,2162,0,S_ɔ
1777450370.317913,2072,0,S_ɔ
1777450370.322198,1946,0,S_ɔ
1777450370.322607,1885,0,S_ɔ
1777450370.325614,1995,0,S_ɔ
1777450370.328619,2103,0,S_ɔ
1777450370.331614,2087,0,S_ɔ
1777450370.3368452,2054,0,S_ɔ
1777450370.3383942,1913,0,S_ɔ
1777450370.3413272,1927,0,S_ɔ
1777450370.344411,2082,0,S_ɔ
1777450370.347135,2114,0,S_ɔ
1777450370.3496242,2113,0,S_ɔ
1777450370.352587,1984,0,S_ɔ
1777450370.3581529,1921,0,S_ɔ
1777450370.358829,2033,0,S_ɔ
1777450370.361996,2145,0,S_ɔ
1777450370.365948,2072,0,S_ɔ
1777450370.367797,2057,0,S_ɔ
1777450370.3706229,1928,0,S_ɔ
1777450370.373615,1917,0,S_ɔ
1777450370.379871,2044,0,S_ɔ
1777450370.3807821,2117,0,S_ɔ
1777450370.3829231,2120,0,S_ɔ
1777450370.385688,1991,0,S_ɔ
1777450370.3889868,1918,0,S_ɔ
1777450370.391534,1940,0,S_ɔ
1777450370.39449,2151,0,S_ɔ
1777450370.3997598,2173,0,S_ɔ
1777450370.401938,2103,0,S_ɔ
1777450370.4038348,1973,0,S_ɔ
1777450370.407857,1924,0,S_ɔ
1777450370.409693,2083,0,S_ɔ
1777450370.41249,2119,0,S_ɔ
1777450370.415492,2172,0,S_ɔ
1777450370.42144,2037,0,S_ɔ
1777450370.422028,1895,0,S_ɔ
1777450370.424706,1970,0,S_ɔ
1777450370.4285948,2125,0,S_ɔ
1777450370.430458,2144,0,S_ɔ
1777450370.4334772,2079,0,S_ɔ
1777450370.4364748,1964,0,S_ɔ
1777450370.442114,1908,0,S_ɔ
1777450370.4427688,2072,0,S_ɔ
1777450370.445642,2160,0,S_ɔ
1777450370.449507,2162,0,S_ɔ
1777450370.4514718,2067,0,S_ɔ
1777450370.454483,1945,0,S_ɔ
1777450370.457487,1936,0,S_ɔ
1777450370.462851,2128,0,S_ɔ
1777450370.463489,2161,0,S_ɔ
1777450370.466796,2159,0,S_ɔ
1777450370.470793,1962,0,S_ɔ
1777450370.47253,1871,0,S_ɔ
1777450370.475473,2015,0,S_ɔ
1777450370.478477,2143,0,S_ɔ
1777450370.484569,2135,0,S_ɔ
1777450370.4846458,2046,0,S_ɔ
1777450370.48806,1916,0,S_ɔ
1777450370.491082,1916,0,S_ɔ
1777450370.4943428,2129,0,S_ɔ
1777450370.496885,2188,0,S_ɔ
1777450370.4994931,2115,0,S_ɔ
1777450370.505383,2012,0,S_ɔ
1777450370.5057359,1922,0,S_ɔ
1777450370.5094662,2021,0,S_ɔ
1777450370.511838,2147,0,S_ɔ
1777450370.515161,2151,0,S_ɔ
1777450370.517717,2083,0,S_ɔ
1777450370.5204859,1967,0,S_ɔ
1777450370.526388,1948,0,S_ɔ
1777450370.5267708,2097,0,S_ɔ
1777450370.5298612,2159,0,S_ɔ
1777450370.533851,2140,0,S_ɔ
1777450370.5356941,2028,0,S_ɔ
1777450370.53845,1924,0,S_ɔ
1777450370.541471,1983,0,S_ɔ
1777450370.5468411,2124,0,S_ɔ
1777450370.5478458,2168,0,S_ɔ
1777450370.550542,2074,0,S_ɔ
1777450370.554658,1981,0,S_ɔ
1777450370.5565062,1936,0,S_ɔ
1777450370.5594702,2062,0,S_ɔ
1777450370.562474,2151,0,S_ɔ
1777450370.5674372,2146,0,S_ɔ
1777450370.5697951,2039,0,S_ɔ
1777450370.571677,1932,0,S_ɔ
1777450370.575497,1969,0,S_ɔ
1777450370.578403,2123,0,S_ɔ
1777450370.580958,2180,0,S_ɔ
1777450370.583499,2098,0,S_ɔ
1777450370.5881758,1980,0,S_ɔ
1777450370.590104,1928,0,S_ɔ
1777450370.594167,2040,0,S_ɔ
1777450370.595668,2122,0,S_ɔ
1777450370.598507,2156,0,S_ɔ
1777450370.6014569,2072,0,S_ɔ
1777450370.604473,1933,0,S_ɔ
1777450370.609108,1968,0,S_ɔ
1777450370.612134,2061,0,S_ɔ
1777450370.615953,2157,0,S_ɔ
1777450370.617429,2120,0,S_ɔ
1777450370.619987,1994,0,S_ɔ
1777450370.62253,1895,0,S_ɔ
1777450370.6253572,1978,0,S_ɔ
1777450370.629278,2126,0,S_ɔ
1777450370.632649,2158,0,S_ɔ
1777450370.636804,2092,0,S_ɔ
1777450370.638248,1932,0,S_ɔ
1777450370.640801,1921,0,S_ɔ
1777450370.6433861,2132,0,S_ɔ
1777450370.649077,2188,0,S_ɔ
1777450370.650264,2071,0,S_ɔ
1777450370.652951,1977,0,S_ɔ
1777450370.6571221,1900,0,S_ɔ
1777450370.658858,1944,0,S_ɔ
1777450370.661407,2137,0,S_ɔ
1777450370.664364,2122,0,S_ɔ
1777450370.6695838,2057,0,S_ɔ
1777450370.671807,1945,0,S_ɔ
1777450370.673516,1928,0,S_ɔ
1777450370.6773272,2090,0,S_ɔ
1777450370.679989,2167,0,S_ɔ
1777450370.682543,2146,0,S_ɔ
1777450370.685442,2053,0,S_ɔ
1777450370.690154,1893,0,S_ɔ
1777450370.692383,1939,0,S_ɔ
1777450370.6943629,2127,0,S_ɔ
1777450370.69788,2182,0,S_ɔ
1777450370.700447,2065,0,S_ɔ
1777450370.703339,1945,0,S_ɔ
1777450370.706357,1888,0,S_ɔ
1777450370.7104902,2023,0,S_ɔ
1777450370.712384,2149,0,S_ɔ
1777450370.717796,2201,0,S_ɔ
1777450370.719264,2054,0,S_ɔ
1777450370.721819,1970,0,S_ɔ
1777450370.724371,1947,0,S_ɔ
1777450370.727363,2148,0,S_ɔ
1777450370.730947,2229,0,S_ɔ
1777450370.734766,2185,0,S_ɔ
1777450370.737161,2017,0,S_ɔ
1777450370.7399712,1943,0,S_ɔ
1777450370.742524,2066,0,S_ɔ
1777450370.745331,2169,0,S_ɔ
1777450370.751314,2198,0,S_ɔ
1777450370.751677,2140,0,S_ɔ
1777450370.754726,1955,0,S_ɔ
1777450370.758691,1938,0,S_ɔ
1777450370.7603981,2122,0,S_ɔ
1777450370.763328,2169,0,S_ɔ
1777450370.7663229,2145,0,S_ɔ
1777450370.772144,2004,0,S_ɔ
1777450370.772778,1900,0,S_ɔ
1777450370.775449,2007,0,S_ɔ
1777450370.7794712,2125,0,S_ɔ
1777450370.781323,2164,0,S_ɔ
1777450370.7843242,2080,0,S_ɔ
1777450370.787323,1968,0,S_ɔ
1777450370.792565,1922,0,S_ɔ
1777450370.794067,2075,0,S_ɔ
1777450370.797052,2172,0,S_ɔ
1777450370.7998269,2122,0,S_ɔ
1777450370.802334,2043,0,S_ɔ
1777450370.8053231,1915,0,S_ɔ
1777450370.808349,1993,0,S_ɔ
1777450370.813078,2119,0,S_ɔ
1777450370.815226,2163,0,S_ɔ
1777450370.8185759,2114,0,S_ɔ
1777450370.8213289,1949,0,S_ɔ
1777450370.823355,1911,0,S_ɔ
1777450370.8263512,2055,0,S_ɔ
1777450370.829352,2149,0,S_ɔ
1777450370.835493,2148,0,S_ɔ
1777450370.836649,2051,0,S_ɔ
1777450370.8393202,1931,0,S_ɔ
1777450370.8423738,1947,0,S_ɔ
1777450370.8442519,2109,0,S_ɔ
1777450370.847244,2191,0,S_ɔ
1777450370.850239,2065,0,S_ɔ
1777450370.853215,1967,0,S_ɔ
1777450370.8580182,1920,0,S_ɔ
1777450370.860068,2026,0,S_ɔ
1777450370.8632169,2148,0,S_ɔ
1777450370.8660312,2122,0,S_ɔ
1777450370.868628,2065,0,S_ɔ
1777450370.8712058,1926,0,S_ɔ
1777450370.8742,1954,0,S_ɔ
1777450370.879646,2131,0,S_ɔ
1777450370.881217,2199,0,S_ɔ
1777450370.883987,2093,0,S_ɔ
1777450370.886936,2033,0,S_ɔ
1777450370.889596,1901,0,S_ɔ
1777450370.892194,1992,0,S_ɔ
1777450370.8951979,2139,0,S_ɔ
1777450370.9001222,2131,0,S_ɔ
1777450370.9019232,2050,0,S_ɔ
1777450370.905041,1934,0,S_ɔ
1777450370.907852,1928,0,S_ɔ
1777450370.9104488,2065,0,S_ɔ
1777450370.913213,2182,0,S_ɔ
1777450370.916225,2143,0,S_ɔ
1777450370.921547,2027,0,S_ɔ
1777450370.923857,1919,0,S_ɔ
1777450370.9253519,1985,0,S_ɔ
1777450370.929696,2134,0,S_ɔ
1777450370.9314702,2172,0,S_ɔ
1777450370.934228,2069,0,S_ɔ
1777450370.9372082,1950,0,S_ɔ
1777450370.9402308,1884,0,S_ɔ
1777450370.9441621,2054,0,S_ɔ
1777450370.9464052,2157,0,S_ɔ
1777450370.950717,2147,0,S_ɔ
1777450370.9523158,2023,0,S_ɔ
1777450370.955243,1932,0,S_ɔ
1777450370.958244,1997,0,S_ɔ
1777450370.9612422,2157,0,S_ɔ
1777450370.9655948,2170,0,S_ɔ
1777450370.9677691,2101,0,S_ɔ
1777450370.971101,2004,0,S_ɔ
1777450370.973844,1932,0,S_ɔ
1777450370.9765298,2046,0,S_ɔ
1777450370.9792352,2147,0,S_ɔ
1777450370.98224,2179,0,S_ɔ
1777450370.9871109,2036,0,S_ɔ
1777450370.989253,1938,0,S_ɔ
1777450370.991634,1980,0,S_ɔ
1777450370.9955041,2121,0,S_ɔ
1777450370.997335,2180,0,S_ɔ
1777450371.0002298,2089,0,S_ɔ
1777450371.003204,1995,0,S_ɔ
1777450371.0085602,1874,0,S_ɔ
1777450371.010854,2041,0,S_ɔ
1777450371.012568,2154,0,S_ɔ
1777450371.016774,2157,0,S_ɔ
1777450371.01857,2057,0,S_ɔ
1777450371.021237,1954,0,S_ɔ
1777450371.0242372,1977,0,S_ɔ
1777450371.027204,2128,0,S_ɔ
1777450371.030934,2160,0,S_ɔ
1777450371.034185,2129,0,S_ɔ
1777450371.036478,1995,0,S_ɔ
1777450371.039623,1900,0,S_ɔ
1777450371.042263,1992,0,S_ɔ
1777450371.045229,2145,0,S_ɔ
1777450371.05124,2161,0,S_ɔ
1777450371.051557,2067,0,S_ɔ
1777450371.054976,1922,0,S_ɔ
1777450371.0579991,1921,0,S_ɔ
1777450371.0605628,2089,0,S_ɔ
1777450371.063112,2153,0,S_ɔ
1777450371.066111,2108,0,S_ɔ
1777450371.072747,2020,0,S_ɔ
1777450371.072879,1898,0,S_ɔ
1777450371.076747,1979,0,S_ɔ
1777450371.078308,2152,0,S_ɔ
1777450371.081113,2165,0,S_ɔ
1777450371.084076,2090,0,S_ɔ
1777450371.087119,1965,0,S_ɔ
1777450371.092959,1941,0,S_ɔ
1777450371.093121,2062,0,S_ɔ
1777450371.096818,2139,0,S_ɔ
1777450371.0999439,2143,0,S_ɔ
1777450371.102497,2059,0,S_ɔ
1777450371.1050901,1921,0,S_ɔ
1777450371.108116,1984,0,S_ɔ
1777450371.113023,2130,0,S_ɔ
1777450371.114944,2165,0,S_ɔ
1777450371.1177359,2086,0,S_ɔ
1777450371.12096,2008,0,S_ɔ
1777450371.123072,1925,0,S_ɔ
1777450371.1260679,2017,0,S_ɔ
1777450371.129069,2116,0,S_ɔ
1777450371.135482,2128,0,S_ɔ
1777450371.136702,2071,0,S_ɔ
1777450371.1381838,1910,0,S_ɔ
1777450371.1422029,1933,0,S_ɔ
1777450371.1440692,2110,0,S_ɔ
1777450371.147069,2182,0,S_ɔ
1777450371.150076,2091,0,S_ɔ
1777450371.155562,2001,0,S_ɔ
1777450371.1567569,1900,0,S_ɔ
1777450371.159418,2013,0,S_ɔ
1777450371.163261,2155,0,S_ɔ
1777450371.1651032,2150,0,S_ɔ
1777450371.168092,2087,0,S_ɔ
1777450371.171098,1951,0,S_ɔ
1777450371.1753988,1930,0,S_ɔ
1777450371.177463,2093,0,S_ɔ
1777450371.1812532,2177,0,S_ɔ
1777450371.183121,2110,0,S_ɔ
1777450371.186103,2017,0,S_ɔ
1777450371.1891031,1906,0,S_ɔ
1777450371.1920881,1991,0,S_ɔ
1777450371.195827,2121,0,S_ɔ
1777450371.19887,2146,0,S_ɔ
1777450371.201526,2077,0,S_ɔ
1777450371.2045681,1965,0,S_ɔ
1777450371.20711,1919,0,S_ɔ
1777450371.210073,2066,0,S_ɔ
1777450371.2167811,2156,0,S_ɔ
1777450371.217178,2165,0,S_ɔ
1777450371.219262,2033,0,S_ɔ
1777450371.222146,1904,0,S_ɔ
1777450371.225195,1957,0,S_ɔ
1777450371.22808,2153,0,S_ɔ
1777450371.231117,2188,0,S_ɔ
1777450371.234111,2098,0,S_ɔ
1777450371.23867,1981,0,S_ɔ
1777450371.240785,1903,0,S_ɔ
1777450371.244905,2064,0,S_ɔ
1777450371.246485,2146,0,S_ɔ
1777450371.24911,2149,0,S_ɔ
1777450371.252077,2047,0,S_ɔ
1777450371.255113,1916,0,S_ɔ
1777450371.2594078,1945,0,S_ɔ
1777450371.262452,2121,0,S_ɔ
1777450371.265185,2181,0,S_ɔ
1777450371.2681909,2102,0,S_ɔ
1777450371.270754,1970,0,S_ɔ
1777450371.273325,1911,0,S_ɔ
1777450371.2761989,2023,0,S_ɔ
1777450371.281805,2109,0,S_ɔ
1777450371.283359,2145,0,S_ɔ
1777450371.286217,2075,0,S_ɔ
1777450371.2891269,1921,0,S_ɔ
1777450371.291681,1941,0,S_ɔ
1777450371.294236,2099,0,S_ɔ
1777450371.297199,2154,0,S_ɔ
1777450371.300528,2118,0,S_ɔ
1777450371.304051,2007,0,S_ɔ
1777450371.306741,1896,0,S_ɔ
1777450371.310034,1994,0,S_ɔ
1777450371.312448,2116,0,S_ɔ
1777450371.315166,2130,0,S_ɔ
1777450371.318065,2036,0,S_ɔ
1777450371.323446,1925,0,S_ɔ
1777450371.3251798,1929,0,S_ɔ
1777450371.327115,2051,0,S_ɔ
1777450371.33089,2124,0,S_ɔ
1777450371.3335192,2167,0,S_ɔ
1777450371.33609,2035,0,S_ɔ
1777450371.339095,1911,0,S_ɔ
1777450371.3443232,1985,0,S_ɔ
1777450371.3465018,2147,0,S_ɔ
1777450371.349198,2154,0,S_ɔ
1777450371.35233,2099,0,S_ɔ
1777450371.354145,1960,0,S_ɔ
1777450371.3571048,1942,0,S_ɔ
1777450371.360092,2050,0,S_ɔ
1777450371.365448,2148,0,S_ɔ
1777450371.3674781,2112,0,S_ɔ
1777450371.3693,2063,0,S_ɔ
1777450371.373369,1995,0,S_ɔ
1777450371.3751118,1969,0,S_ɔ
1777450371.378112,2123,0,S_ɔ
1777450371.3811069,2189,0,S_ɔ
1777450371.3864598,2115,0,S_ɔ
1777450371.387109,2011,0,S_ɔ
1777450371.392086,1918,0,S_ɔ
1777450371.393706,2076,0,S_ɔ
1777450371.396489,2139,0,S_ɔ
1777450371.399162,2175,0,S_ɔ
1777450371.401963,2035,0,S_ɔ
1777450371.40693,1951,0,S_ɔ
1777450371.408382,1994,0,S_ɔ
1777450371.4112031,2117,0,S_ɔ
1777450371.4140968,2119,0,S_ɔ
1777450371.4169421,2108,0,S_ɔ
1777450371.419948,2087,0,S_ɔ
1777450371.4229472,1945,0,S_ɔ
1777450371.42892,1987,0,S_ɔ
1777450371.42908,2189,0,S_ɔ
1777450371.433293,2171,0,S_ɔ
1777450371.434997,2028,0,S_ɔ
1777450371.4379451,1939,0,S_ɔ
1777450371.440945,1908,0,S_ɔ
1777450371.4441202,2095,0,S_ɔ
1777450371.44874,2189,0,S_ɔ
1777450371.451553,2151,0,S_ɔ
1777450371.455502,2035,0,S_ɔ
1777450371.456943,1986,0,S_ɔ
1777450371.4595149,2091,0,S_ɔ
1777450371.462071,2200,0,S_ɔ
1777450371.46837,2177,0,S_ɔ
1777450371.4687738,2106,0,S_ɔ
1777450371.471796,2010,0,S_ɔ
1777450371.4756448,1933,0,S_ɔ
1777450371.4773052,2055,0,S_ɔ
1777450371.47997,2108,0,S_ɔ
1777450371.482971,2212,0,S_ɔ
1777450371.488704,2136,0,S_ɔ
1777450371.489449,1983,0,S_ɔ
1777450371.492328,1979,0,S_ɔ
1777450371.496278,2135,0,S_ɔ
1777450371.4979782,2158,0,S_ɔ
1777450371.500978,2129,0,S_ɔ
1777450371.504,1965,0,S_ɔ
1777450371.5095859,1882,0,S_ɔ
1777450371.5099678,2041,0,S_ɔ
1777450371.513082,2151,0,S_ɔ
1777450371.517452,2194,0,S_ɔ
1777450371.519176,2106,0,S_ɔ
1777450371.52194,1851,0,S_ɔ
1777450371.52494,1952,0,S_ɔ
1777450371.531418,2141,0,S_ɔ
1777450371.531501,2181,0,S_ɔ
1777450371.53483,2115,0,S_ɔ
1777450371.538327,1980,0,S_ɔ
1777450371.540103,1824,0,S_ɔ
1777450371.542948,2077,0,S_ɔ
1777450371.545974,2131,0,S_ɔ
1777450371.551071,2217,0,S_ɔ
1777450371.553201,2146,0,S_ɔ
1777450371.555201,1988,0,S_ɔ
1777450371.55875,1953,0,S_ɔ
1777450371.561406,2178,0,S_ɔ
1777450371.5654678,2155,0,S_ɔ
1777450371.5699809,2148,0,S_ɔ
1777450371.570115,2118,0,S_ɔ
1777450371.577226,1944,0,S_ɔ
1777450371.577321,1986,0,S_ɔ
1777450371.5796201,2038,0,S_ɔ
1777450371.583262,2141,0,S_ɔ
1777450371.5850759,2026,0,S_ɔ
1777450371.587969,1950,0,S_ɔ
1777450371.590971,1893,0,S_ɔ
1777450371.5967,2080,0,S_ɔ
1777450371.597306,2209,0,S_ɔ
1777450371.6001248,2105,0,S_ɔ
1777450371.60417,2036,0,S_ɔ
1777450371.605951,2037,0,S_ɔ
1777450371.6089768,2096,0,S_ɔ
1777450371.611976,2196,0,S_ɔ
1777450371.617431,2040,0,S_ɔ
1777450371.618625,2064,0,S_ɔ
1777450371.621174,2037,0,S_ɔ
1777450371.625176,1919,0,S_ɔ
1777450371.6269069,2051,0,S_ɔ
1777450371.629819,2172,0,S_ɔ
1777450371.632822,2108,0,S_ɔ
1777450371.637816,2078,0,S_ɔ
1777450371.639581,1958,0,S_ɔ
1777450371.643562,2015,0,S_ɔ
1777450371.645181,2177,0,S_ɔ
1777450371.6478238,2205,0,S_ɔ
1777450371.6508212,2092,0,S_ɔ
1777450371.654426,1995,0,S_ɔ
1777450371.657894,1913,0,S_ɔ
1777450371.65985,2070,0,S_ɔ
1777450371.663751,2144,0,S_ɔ
1777450371.6669,2198,0,S_ɔ
1777450371.668818,2076,0,S_ɔ
1777450371.671819,1915,0,S_ɔ
1777450371.67484,2019,0,S_ɔ
1777450371.6780338,2117,0,S_ɔ
1777450371.6814568,2134,0,S_ɔ
1777450371.6839721,2196,0,S_ɔ
1777450371.6871371,2012,0,S_ɔ
1777450371.689826,1892,0,S_ɔ
1777450371.6928508,1991,0,S_ɔ
1777450371.6982331,2136,0,S_ɔ
1777450371.6991842,2158,0,S_ɔ
1777450371.702604,2067,0,S_ɔ
1777450371.705694,1904,0,S_ɔ
1777450371.70829,1973,0,S_ɔ
1777450371.710838,2080,0,S_ɔ
1777450371.713851,2211,0,S_ɔ
1777450371.719182,2178,0,S_ɔ
1777450371.721805,2130,0,S_ɔ
1777450371.7232928,1849,0,S_ɔ
1777450371.7258592,1979,0,S_ɔ
1777450371.728819,2182,0,S_ɔ
1777450371.731822,2194,0,S_ɔ
1777450371.734818,2086,0,S_ɔ
1777450371.738615,1945,0,S_ɔ
1777450371.741878,1912,0,S_ɔ
1777450371.7443619,2089,0,S_ɔ
1777450371.74749,2178,0,S_ɔ
1777450371.75005,2158,0,S_ɔ
1777450371.752864,2116,0,S_ɔ
1777450371.7584581,1949,0,S_ɔ
1777450371.759854,1960,0,S_ɔ
1777450371.762743,2151,0,S_ɔ
1777450371.765593,2115,0,S_ɔ
1777450371.7688289,2122,0,S_ɔ
1777450371.771411,1940,0,S_ɔ
1777450371.7739751,1933,0,S_ɔ
1777450371.776866,2080,0,S_ɔ
1777450371.781297,2156,0,S_ɔ
1777450371.7838562,2127,0,S_ɔ
1777450371.787828,2084,0,S_ɔ
1777450371.789568,1928,0,S_ɔ
1777450371.7921221,1953,0,S_ɔ
1777450371.794852,2106,0,S_ɔ
1777450371.800868,2212,0,S_ɔ
1777450371.801264,2096,0,S_ɔ
1777450371.804456,1944,0,S_ɔ
1777450371.8068821,2006,0,S_ɔ
1777450371.810025,2050,0,S_ɔ
1777450371.812885,2126,0,S_ɔ
1777450371.815815,2220,0,S_ɔ
1777450371.8206139,2076,0,S_ɔ
1777450371.822876,1949,0,S_ɔ
1777450371.8257122,1958,0,S_ɔ
1777450371.8282151,2077,0,S_ɔ
1777450371.830841,2117,0,S_ɔ
1777450371.8338401,2131,0,S_ɔ
1777450371.836847,1987,0,S_ɔ
1777450371.8411012,1997,0,S_ɔ
1777450371.843015,2053,0,S_ɔ
1777450371.84699,2139,0,S_ɔ
1777450371.8488169,2088,0,S_ɔ
1777450371.851846,2123,0,S_ɔ
1777450371.854826,1990,0,S_ɔ
1777450371.857815,1942,0,S_ɔ
1777450371.8614001,2109,0,S_ɔ
1777450371.864834,2136,0,S_ɔ
1777450371.867481,2121,0,S_ɔ
1777450371.870672,2021,0,S_ɔ
1777450371.873224,1968,0,S_ɔ
1777450371.8758569,2034,0,S_ɔ
1777450371.8820171,2175,0,S_ɔ
1777450371.882399,2188,0,S_ɔ
1777450371.88593,2070,0,S_ɔ
1777450371.887867,1982,0,S_ɔ
1777450371.8909829,1921,0,S_ɔ
1777450371.893832,2071,0,S_ɔ
1777450371.896855,2170,0,S_ɔ
1777450371.901887,2138,0,S_ɔ
1777450371.905312,2082,0,S_ɔ
1777450371.9062731,1893,0,S_ɔ
1777450371.909587,1954,0,S_ɔ
1777450371.912214,2111,0,S_ɔ
1777450371.914856,2155,0,S_ɔ
1777450371.917907,2095,0,S_ɔ
1777450371.9228292,2023,0,S_ɔ
1777450371.9242828,1927,0,S_ɔ
1777450371.928064,1942,0,S_ɔ
1777450371.92993,2183,0,S_ɔ
1777450371.932866,2190,0,S_ɔ
1777450371.9358232,2069,0,S_ɔ
1777450371.938825,1926,0,S_ɔ
1777450371.943121,1990,0,S_ɔ
1777450371.9457211,2152,0,S_ɔ
1777450371.9499562,2121,0,S_ɔ
1777450371.9513001,2144,0,S_ɔ
1777450371.95385,2009,0,S_ɔ
1777450371.95672,1920,0,S_ɔ
1777450371.96259,2009,0,S_ɔ
1777450371.963223,2138,0,S_ɔ
1777450371.966337,2143,0,S_ɔ
1777450371.9700842,2057,0,S_ɔ
1777450371.971807,1986,0,S_ɔ
1777450371.974721,1966,0,S_ɔ
1777450371.9776871,2078,0,S_ɔ
1777450371.983325,2169,0,S_ɔ
1777450371.9847722,2127,0,S_ɔ
1777450371.9868522,2030,0,S_ɔ
1777450371.99048,1940,0,S_ɔ
1777450371.993126,2005,0,S_ɔ
1777450371.9956942,2109,0,S_ɔ
1777450371.9987168,2128,0,S_ɔ
1777450372.003594,2089,0,S_ɔ
1777450372.0050719,1949,0,S_ɔ
1777450372.007926,1925,0,S_ɔ
1777450372.01074,2113,0,S_ɔ
1777450372.013719,2169,0,S_ɔ
1777450372.0166872,2158,0,S_ɔ
1777450372.023561,1990,0,S_ɔ
1777450372.0239391,1883,0,S_ɔ
1777450372.026693,1985,0,S_ɔ
1777450372.029482,2140,0,S_ɔ
1777450372.032659,2157,0,S_ɔ
1777450372.035199,2107,0,S_ɔ
1777450372.037722,1955,0,S_ɔ
1777450372.040879,1924,0,S_ɔ
1777450372.0440981,2052,0,S_ɔ
1777450372.0477371,2114,0,S_ɔ
1777450372.0511308,2149,0,S_ɔ
1777450372.0532212,2076,0,S_ɔ
1777450372.055778,1890,0,S_ɔ
1777450372.058721,1992,0,S_ɔ
1777450372.064268,2129,0,S_ɔ
1777450372.065108,2176,0,S_ɔ
1777450372.0679538,2109,0,S_ɔ
1777450372.0717702,2039,0,S_ɔ
1777450372.073733,1938,0,S_ɔ
1777450372.076732,2022,0,S_ɔ
1777450372.0797281,2171,0,S_ɔ
1777450372.084749,2143,0,S_ɔ
1777450372.086378,2031,0,S_ɔ
1777450372.090247,1929,0,S_ɔ
1777450372.0917819,1941,0,S_ɔ
1777450372.094722,2139,0,S_ɔ
1777450372.0976908,2197,0,S_ɔ
1777450372.100731,2113,0,S_ɔ
1777450372.1054149,1994,0,S_ɔ
1777450372.10689,1954,0,S_ɔ
1777450372.1109068,2016,0,S_ɔ
1777450372.1141481,2130,0,S_ɔ
1777450372.115693,2118,0,S_ɔ
1777450372.11871,2066,0,S_ɔ
1777450372.121686,1922,0,S_ɔ
1777450372.125886,1934,0,S_ɔ
1777450372.127726,2099,0,S_ɔ
1777450372.1316822,2177,0,S_ɔ
1777450372.1348548,2124,0,S_ɔ
1777450372.136728,1968,0,S_ɔ
1777450372.139694,1865,0,S_ɔ
1777450372.142712,1978,0,S_ɔ
1777450372.146274,2127,0,S_ɔ
1777450372.1497111,2164,0,S_ɔ
1777450372.152364,2053,0,S_ɔ
1777450372.155712,1913,0,S_ɔ
1777450372.158294,1889,0,S_ɔ
1777450372.161027,2063,0,S_ɔ
1777450372.167667,2163,0,S_ɔ
1777450372.168973,2106,0,S_ɔ
1777450372.1714292,1989,0,S_ɔ
1777450372.1737769,1893,0,S_ɔ
1777450372.1770828,1970,0,S_ɔ
1777450372.1790159,2091,0,S_ɔ
1777450372.181738,2113,0,S_ɔ
1777450372.184721,2085,0,S_ɔ
1777450372.1879349,1983,0,S_ɔ
1777450372.1942022,1905,0,S_ɔ
1777450372.196127,2033,0,S_ɔ
1777450372.19751,2144,0,S_ɔ
1777450372.201344,2134,0,S_ɔ
1777450372.203299,2029,0,S_ɔ
1777450372.206027,1919,0,S_ɔ
1777450372.2087622,1963,0,S_ɔ
1777450372.2116969,2120,0,S_ɔ
1777450372.21762,2173,0,S_ɔ
1777450372.2188969,2106,0,S_ɔ
1777450372.2220259,1983,0,S_ɔ
1777450372.226177,1915,0,S_ɔ
1777450372.2278001,2026,0,S_ɔ
1777450372.229698,2156,0,S_ɔ
1777450372.232696,2159,0,S_ɔ
1777450372.235706,2061,0,S_ɔ
1777450372.240492,1899,0,S_ɔ
1777450372.24292,1979,0,S_ɔ
1777450372.2448452,2117,0,S_ɔ
1777450372.24973,2154,0,S_ɔ
1777450372.251694,2098,0,S_ɔ
1777450372.254378,1993,0,S_ɔ
1777450372.257038,1892,0,S_ɔ
1777450372.2597172,1997,0,S_ɔ
1777450372.266358,2128,0,S_ɔ
1777450372.266458,2140,0,S_ɔ
1777450372.2707598,2053,0,S_ɔ
1777450372.274548,1929,0,S_ɔ
1777450372.27522,1925,0,S_ɔ
1777450372.278074,2076,0,S_ɔ
1777450372.280689,2174,0,S_ɔ
1777450372.2881012,2105,0,S_ɔ
1777450372.288395,2017,0,S_ɔ
1777450372.2909892,1883,0,S_ɔ
1777450372.295456,1996,0,S_ɔ
1777450372.2957802,2130,0,S_ɔ
1777450372.2988212,2132,0,S_ɔ
1777450372.3016698,2093,0,S_ɔ
1777450372.304574,1963,0,S_ɔ
1777450372.311799,1919,0,S_ɔ
1777450372.3126788,2055,0,S_ɔ
1777450372.316184,2165,0,S_ɔ
1777450372.3177652,2148,0,S_ɔ
1777450372.321599,2030,0,S_ɔ
1777450372.3239622,1897,0,S_ɔ
1777450372.3255901,1964,0,S_ɔ
1777450372.332444,2107,0,S_ɔ
1777450372.335045,2150,0,S_ɔ
1777450372.3353019,2095,0,S_ɔ
1777450372.34222,1969,0,S_ɔ
1777450372.3426292,1902,0,S_ɔ
1777450372.344856,2050,0,S_ɔ
1777450372.3465972,2123,0,S_ɔ
1777450372.349594,2132,0,S_ɔ
1777450372.352584,2014,0,S_ɔ
1777450372.357471,1947,0,S_ɔ
1777450372.3602931,1960,0,S_ɔ
1777450372.362816,2105,0,S_ɔ
1777450372.365216,2149,0,S_ɔ
1777450372.369015,2092,0,S_ɔ
1777450372.370592,1984,0,S_ɔ
1777450372.3736188,1916,0,S_ɔ
1777450372.376597,2014,0,S_ɔ
1777450372.381834,2139,0,S_ɔ
1777450372.384546,2147,0,S_ɔ
1777450372.3863091,2057,0,S_ɔ
1777450372.389475,1967,0,S_ɔ
1777450372.392895,1931,0,S_ɔ
1777450372.3946009,2064,0,S_ɔ
1777450372.397602,2167,0,S_ɔ
1777450372.400583,2116,0,S_ɔ
1777450372.406995,1998,0,S_ɔ
1777450372.407476,1901,0,S_ɔ
1777450372.410322,1979,0,S_ɔ
1777450372.4135711,2146,0,S_ɔ
1777450372.415627,2149,0,S_ɔ
1777450372.4185758,2079,0,S_ɔ
1777450372.4216058,2001,0,S_ɔ
1777450372.424609,1931,0,S_ɔ
1777450372.4304,2093,0,S_ɔ
1777450372.4308171,2142,0,S_ɔ
1777450372.434423,2107,0,S_ɔ
1777450372.437784,2019,0,S_ɔ
1777450372.439743,1855,0,S_ɔ
1777450372.442742,1931,0,S_ɔ
1777450372.445605,2090,0,S_ɔ
1777450372.448589,2142,0,S_ɔ
1777450372.451699,2069,0,S_ɔ
1777450372.4561658,1994,0,S_ɔ
1777450372.4585989,1936,0,S_ɔ
1777450372.4608982,2034,0,S_ɔ
1777450372.463754,2142,0,S_ɔ
1777450372.467935,2124,0,S_ɔ
1777450372.469588,2035,0,S_ɔ
1777450372.472596,1910,0,S_ɔ
1777450372.475589,1948,0,S_ɔ
1777450372.482272,2111,0,S_ɔ
1777450372.48311,2138,0,S_ɔ
1777450372.487052,2056,0,S_ɔ
1777450372.4877949,1984,0,S_ɔ
1777450372.491881,1913,0,S_ɔ
1777450372.493972,2025,0,S_ɔ
1777450372.496599,2183,0,S_ɔ
1777450372.502298,2138,0,S_ɔ
1777450372.503072,2038,0,S_ɔ
1777450372.506712,1921,0,S_ɔ
1777450372.5097668,1946,0,S_ɔ
1777450372.5117471,2089,0,S_ɔ
1777450372.5147479,2188,0,S_ɔ
1777450372.517597,2103,0,S_ɔ
1777450372.520628,1965,0,S_ɔ
1777450372.5235991,1911,0,S_ɔ
1777450372.529907,2104,0,S_ɔ
1777450372.531302,2255,0,S_ɔ
1777450372.533837,2091,0,S_ɔ
1777450372.536818,2026,0,S_ɔ
1777450372.53878,1946,0,S_ɔ
1777450372.542089,1978,0,S_ɔ
1777450372.544642,2096,0,S_ɔ
1777450372.550357,2178,0,S_ɔ
1777450372.552404,2106,0,S_ɔ
1777450372.554951,1982,0,S_ɔ
1777450372.558453,1913,0,S_ɔ
1777450372.5610082,2051,0,S_ɔ
1777450372.563162,2149,0,S_ɔ
1777450372.5658472,2194,0,S_ɔ
1777450372.5686421,2118,0,S_ɔ
1777450372.571485,1966,0,S_ɔ
1777450372.577512,1887,0,S_ɔ
1777450372.580389,2082,0,S_ɔ
1777450372.580736,2166,0,S_ɔ
1777450372.586066,2150,0,S_ɔ
1777450372.588202,2002,0,S_ɔ
1777450372.5906,1889,0,S_ɔ
1777450372.59329,1982,0,S_ɔ
1777450372.599638,2109,0,S_ɔ
1777450372.601984,2196,0,S_ɔ
1777450372.6038668,2091,0,S_ɔ
1777450372.606078,1960,0,S_ɔ
1777450372.611423,1945,0,S_ɔ
1777450372.6117198,2056,0,S_ɔ
1777450372.6134489,2150,0,S_ɔ
1777450372.616452,2178,0,S_ɔ
1777450372.6194549,2072,0,S_ɔ
1777450372.625643,1924,0,S_ɔ
1777450372.6266098,1961,0,S_ɔ
1777450372.6288261,2078,0,S_ɔ
1777450372.632268,2098,0,S_ɔ
1777450372.6368861,2102,0,S_ɔ
1777450372.639227,1998,0,S_ɔ
1777450372.641061,1915,0,S_ɔ
1777450372.6437042,2084,0,S_ɔ
1777450372.648473,2133,0,S_ɔ
1777450372.652616,2106,0,S_ɔ
1777450372.653654,2107,0,S_ɔ
1777450372.656387,1971,0,S_ɔ
1777450372.659907,1955,0,S_ɔ
1777450372.661696,2145,0,S_ɔ
1777450372.664479,2166,0,S_ɔ
1777450372.667459,2140,0,S_ɔ
1777450372.670472,1998,0,S_ɔ
1777450372.677732,1943,0,S_ɔ
1777450372.6792672,2030,0,S_ɔ
1777450372.6814961,2170,0,S_ɔ
1777450372.6868749,2166,0,S_ɔ
1777450372.687236,2092,0,S_ɔ
1777450372.689437,1973,0,S_ɔ
1777450372.6920161,1953,0,S_ɔ
1777450372.697661,2112,0,S_ɔ
1777450372.697794,2186,0,S_ɔ
1777450372.701781,2141,0,S_ɔ
1777450372.7037408,2049,0,S_ɔ
1777450372.707177,1923,0,S_ɔ
1777450372.710043,1989,0,S_ɔ
1777450372.7126,2157,0,S_ɔ
1777450372.715457,2194,0,S_ɔ
1777450372.721875,2106,0,S_ɔ
1777450372.722267,1973,0,S_ɔ
1777450372.726557,1939,0,S_ɔ
1777450372.728223,2049,0,S_ɔ
1777450372.731638,2159,0,S_ɔ
1777450372.7338,2156,0,S_ɔ
1777450372.736516,2058,0,S_ɔ
1777450372.739479,1901,0,S_ɔ
1777450372.742441,1975,0,S_ɔ
1777450372.746788,2112,0,S_ɔ
1777450372.749238,2170,0,S_ɔ
1777450372.7525592,2108,0,S_ɔ
1777450372.756246,1983,0,S_ɔ
1777450372.758174,1910,0,S_ɔ
1777450372.760857,2034,0,S_ɔ
1777450372.7635682,2134,0,S_ɔ
1777450372.766479,2126,0,S_ɔ
1777450372.771209,2046,0,S_ɔ
1777450372.773916,1897,0,S_ɔ
1777450372.775866,1936,0,S_ɔ
1777450372.77899,2125,0,S_ɔ
1777450372.782917,2144,0,S_ɔ
1777450372.784519,2130,0,S_ɔ
1777450372.787484,2005,0,S_ɔ
1777450372.7904482,1916,0,S_ɔ
1777450372.807727,2001,0,S_ɔ
1777450372.833442,2152,0,S_ɔ
1777450372.83358,2140,0,S_ɔ
1777450372.833693,2053,0,S_ɔ
1777450372.833771,1959,0,S_ɔ
1777450372.834823,1940,0,S_ɔ
1777450372.834913,2083,0,S_ɔ
1777450372.83502,2135,0,S_ɔ
1777450372.8350878,2095,0,S_ɔ
1777450372.8351748,1999,0,S_ɔ
1777450372.835304,1890,0,S_ɔ
1777450372.835395,1983,0,S_ɔ
1777450372.835478,2121,0,S_ɔ
1777450372.8355799,2199,0,S_ɔ
1777450372.835705,2063,0,S_ɔ
1777450372.838461,1970,0,S_ɔ
1777450372.84835,1983,0,S_ɔ
1777450372.848567,2123,0,S_ɔ
1777450372.850643,2203,0,S_ɔ
1777450372.8510458,2187,0,S_ɔ
1777450372.853943,2058,0,S_ɔ
1777450372.85777,1953,0,S_ɔ
1777450372.859482,2041,0,S_ɔ
1777450372.8658628,2163,0,S_ɔ
1777450372.866287,2183,0,S_ɔ
1777450372.869935,2167,0,S_ɔ
1777450372.872909,1996,0,S_ɔ
1777450372.8746932,1936,0,S_ɔ
1777450372.8775082,2085,0,S_ɔ
1777450372.88047,2176,0,S_ɔ
1777450372.8834748,2164,0,S_ɔ
1777450372.888739,2068,0,S_ɔ
1777450372.891299,1907,0,S_ɔ
1777450372.892753,1970,0,S_ɔ
1777450372.8959959,2170,0,S_ɔ
1777450372.8993,2176,0,S_ɔ
1777450372.9018939,2098,0,S_ɔ
1777450372.90445,1997,0,S_ɔ
1777450372.907327,1920,0,S_ɔ
1777450372.912158,2021,0,S_ɔ
1777450372.91437,2144,0,S_ɔ
1777450372.917245,2146,0,S_ɔ
1777450372.920712,2057,0,S_ɔ
1777450372.922694,1922,0,S_ɔ
1777450372.925348,1941,0,S_ɔ
1777450372.928309,2115,0,S_ɔ
1777450372.931456,2175,0,S_ɔ
1777450372.935041,2126,0,S_ɔ
1777450372.9374988,1995,0,S_ɔ
1777450372.9408581,1927,0,S_ɔ
1777450372.944161,2017,0,S_ɔ
1777450372.9463391,2124,0,S_ɔ
1777450372.9493492,2172,0,S_ɔ
1777450372.952321,2090,0,S_ɔ
1777450372.9589481,1936,0,S_ɔ
1777450372.9594061,1943,0,S_ɔ
1777450372.9624388,2098,0,S_ɔ
1777450372.965761,2176,0,S_ɔ
1777450372.967603,2136,0,S_ɔ
1777450372.970335,2028,0,S_ɔ
1777450372.973345,1880,0,S_ɔ
1777450372.976316,1995,0,S_ɔ
1777450372.9822369,2124,0,S_ɔ
1777450372.983223,2168,0,S_ɔ
1777450372.986326,2092,0,S_ɔ
1777450372.9905431,1949,0,S_ɔ
1777450372.992046,1918,0,S_ɔ
1777450372.994616,2096,0,S_ɔ
1777450372.997347,2176,0,S_ɔ
1777450373.0003479,2130,0,S_ɔ
1777450373.0055099,2051,0,S_ɔ
1777450373.008189,1915,0,S_ɔ
1777450373.009652,1947,0,S_ɔ
1777450373.012925,2124,0,S_ɔ
1777450373.0156438,2152,0,S_ɔ
1777450373.018334,2087,0,S_ɔ
1777450373.021354,1957,0,S_ɔ
1777450373.02687,1933,0,S_ɔ
1777450373.027843,2031,0,S_ɔ
1777450373.0312362,2149,0,S_ɔ
1777450373.035799,2149,0,S_ɔ
1777450373.03749,2070,0,S_ɔ
1777450373.039351,1941,0,S_ɔ
1777450373.042345,1955,0,S_ɔ
1777450373.045347,2118,0,S_ɔ
1777450373.049737,2158,0,S_ɔ
1777450373.0519402,2131,0,S_ɔ
1777450373.054902,2011,0,S_ɔ
1777450373.058049,1915,0,S_ɔ
1777450373.060826,1991,0,S_ɔ
1777450373.063381,2151,0,S_ɔ
1777450373.06636,2181,0,S_ɔ
1777450373.0714839,2097,0,S_ɔ
1777450373.073966,1944,0,S_ɔ
1777450373.075348,1945,0,S_ɔ
1777450373.0784209,2143,0,S_ɔ
1777450373.0818639,2179,0,S_ɔ
1777450373.084419,2136,0,S_ɔ
1777450373.087363,2010,0,S_ɔ
1777450373.090347,1905,0,S_ɔ
1777450373.0941598,1982,0,S_ɔ
1777450373.097613,2132,0,S_ɔ
1777450373.100529,2157,0,S_ɔ
1777450373.102407,2081,0,S_ɔ
1777450373.105323,1956,0,S_ɔ
1777450373.108348,1922,0,S_ɔ
1777450373.1113138,2059,0,S_ɔ
1777450373.116359,2174,0,S_ɔ
1777450373.118786,2131,0,S_ɔ
1777450373.120503,2036,0,S_ɔ
1777450373.123436,1937,0,S_ɔ
1777450373.126923,1972,0,S_ɔ
1777450373.129486,2140,0,S_ɔ
1777450373.13234,2155,0,S_ɔ
1777450373.1386938,2109,0,S_ɔ
1777450373.139315,1989,0,S_ɔ
1777450373.1427531,1931,0,S_ɔ
1777450373.1464908,2075,0,S_ɔ
1777450373.148385,2176,0,S_ɔ
1777450373.150929,2122,0,S_ɔ
1777450373.153484,2045,0,S_ɔ
1777450373.156399,1946,0,S_ɔ
1777450373.159808,1952,0,S_ɔ
1777450373.1635048,2100,0,S_ɔ
1777450373.167435,2155,0,S_ɔ
1777450373.169183,2095,0,S_ɔ
1777450373.171743,1974,0,S_ɔ
1777450373.174366,1907,0,S_ɔ
1777450373.1773398,2035,0,S_ɔ
1777450373.180727,2148,0,S_ɔ
1777450373.18424,2164,0,S_ɔ
1777450373.186924,2067,0,S_ɔ
1777450373.190311,1918,0,S_ɔ
1777450373.19287,1951,0,S_ɔ
1777450373.1954129,2106,0,S_ɔ
1777450373.198195,2185,0,S_ɔ
1777450373.202407,2103,0,S_ɔ
1777450373.2056901,1989,0,S_ɔ
1777450373.207341,1931,0,S_ɔ
1777450373.210285,2026,0,S_ɔ
1777450373.213223,2148,0,S_ɔ
1777450373.2161999,2171,0,S_ɔ
1777450373.2192352,2068,0,S_ɔ
1777450373.224294,1930,0,S_ɔ
1777450373.226161,1911,0,S_ɔ
1777450373.230287,2056,0,S_ɔ
1777450373.231958,2158,0,S_ɔ
1777450373.234209,2130,0,S_ɔ
1777450373.237184,2029,0,S_ɔ
1777450373.240208,1910,0,S_ɔ
1777450373.245734,1980,0,S_ɔ
1777450373.247613,2171,0,S_ɔ
1777450373.249322,2169,0,S_ɔ
1777450373.253547,2100,0,S_ɔ
1777450373.25542,1979,0,S_ɔ
1777450373.258216,1920,0,S_ɔ
1777450373.2612119,2073,0,S_ɔ
1777450373.267797,2155,0,S_ɔ
1777450373.2678668,2133,0,S_ɔ
1777450373.2714188,2040,0,S_ɔ
1777450373.2741172,1905,0,S_ɔ
1777450373.277493,1969,0,S_ɔ
1777450373.279188,2128,0,S_ɔ
1777450373.2822201,2138,0,S_ɔ
1777450373.2851892,2090,0,S_ɔ
1777450373.289113,1947,0,S_ɔ
1777450373.292277,1909,0,S_ɔ
1777450373.295438,2049,0,S_ɔ
1777450373.297274,2132,0,S_ɔ
1777450373.300214,2135,0,S_ɔ
1777450373.303225,2007,0,S_ɔ
1777450373.306196,1909,0,S_ɔ
1777450373.310525,1934,0,S_ɔ
1777450373.31231,2078,0,S_ɔ
1777450373.316403,2156,0,S_ɔ
1777450373.318202,2101,0,S_ɔ
1777450373.321223,1956,0,S_ɔ
1777450373.324188,1903,0,S_ɔ
1777450373.32722,2021,0,S_ɔ
1777450373.331646,2157,0,S_ɔ
1777450373.333429,2136,0,S_ɔ
1777450373.336231,2070,0,S_ɔ
1777450373.339247,1927,0,S_ɔ
1777450373.342237,1934,0,S_ɔ
1777450373.345191,2091,0,S_ɔ
1777450373.348211,2174,0,S_ɔ
1777450373.352347,2119,0,S_ɔ
1777450373.3553789,1986,0,S_ɔ
1777450373.3572538,1939,0,S_ɔ
1777450373.361293,1991,0,S_ɔ
1777450373.3638568,2114,0,S_ɔ
1777450373.366405,2150,0,S_ɔ
1777450373.369183,2052,0,S_ɔ
1777450373.373457,1925,0,S_ɔ
1777450373.3756201,1915,0,S_ɔ
1777450373.379698,2072,0,S_ɔ
1777450373.3812501,2161,0,S_ɔ
1777450373.3842099,2129,0,S_ɔ
1777450373.3871849,2024,0,S_ɔ
1777450373.390207,1921,0,S_ɔ
1777450373.394829,1997,0,S_ɔ
1777450373.396587,2107,0,S_ɔ
1777450373.400764,2186,0,S_ɔ
1777450373.4024022,2086,0,S_ɔ
1777450373.405212,1958,0,S_ɔ
1777450373.4081979,1933,0,S_ɔ
1777450373.411222,2069,0,S_ɔ
1777450373.415668,2160,0,S_ɔ
1777450373.4177542,2150,0,S_ɔ
1777450373.420867,2059,0,S_ɔ
1777450373.423449,1953,0,S_ɔ
1777450373.426213,1940,0,S_ɔ
1777450373.4292212,2131,0,S_ɔ
1777450373.432194,2174,0,S_ɔ
1777450373.4369102,2061,0,S_ɔ
1777450373.4384599,1996,0,S_ɔ
1777450373.442508,1919,0,S_ɔ
1777450373.444235,2024,0,S_ɔ
1777450373.4472032,2177,0,S_ɔ
1777450373.450182,2160,0,S_ɔ
1777450373.4532218,2052,0,S_ɔ
1777450373.4596639,1930,0,S_ɔ
1777450373.461083,1942,0,S_ɔ
1777450373.463189,2078,0,S_ɔ
1777450373.467942,2193,0,S_ɔ
1777450373.46833,2121,0,S_ɔ
1777450373.471245,1990,0,S_ɔ
1777450373.4742029,1917,0,S_ɔ
1777450373.477204,2030,0,S_ɔ
1777450373.4841821,2184,0,S_ɔ
1777450373.4867892,2181,0,S_ɔ
1777450373.4880168,2086,0,S_ɔ
1777450373.4911082,1965,0,S_ɔ
1777450373.4932852,1922,0,S_ɔ
1777450373.4952052,2101,0,S_ɔ
1777450373.4982111,2178,0,S_ɔ
1777450373.501229,2141,0,S_ɔ
1777450373.5083709,2010,0,S_ɔ
1777450373.5086458,1890,0,S_ɔ
1777450373.510519,1967,0,S_ɔ
1777450373.51512,2140,0,S_ɔ
1777450373.5171041,2164,0,S_ɔ
1777450373.519082,2094,0,S_ɔ
1777450373.52208,1930,0,S_ɔ
1777450373.530484,1917,0,S_ɔ
1777450373.5317671,2082,0,S_ɔ
1777450373.53212,2167,0,S_ɔ
1777450373.534515,2097,0,S_ɔ
1777450373.53868,2037,0,S_ɔ
1777450373.540742,1901,0,S_ɔ
1777450373.543304,1966,0,S_ɔ
1777450373.5460749,2116,0,S_ɔ
1777450373.553697,2172,0,S_ɔ
1777450373.554074,2101,0,S_ɔ
1777450373.557554,1979,0,S_ɔ
1777450373.559226,1920,0,S_ɔ
1777450373.564519,2061,0,S_ɔ
1777450373.5646489,2187,0,S_ɔ
1777450373.567285,2170,0,S_ɔ
1777450373.5701451,2062,0,S_ɔ
1777450373.5730739,1912,0,S_ɔ
1777450373.577038,1955,0,S_ɔ
1777450373.58212,2140,0,S_ɔ
1777450373.5836642,2189,0,S_ɔ
1777450373.5888178,2134,0,S_ɔ
1777450373.5888991,2008,0,S_ɔ
1777450373.591459,1921,0,S_ɔ
1777450373.594213,2044,0,S_ɔ
1777450373.597101,2154,0,S_ɔ
1777450373.60172,2137,0,S_ɔ
1777450373.603946,2054,0,S_ɔ
1777450373.6084769,1917,0,S_ɔ
1777450373.610285,1964,0,S_ɔ
1777450373.612278,2115,0,S_ɔ
1777450373.615107,2180,0,S_ɔ
1777450373.618092,2156,0,S_ɔ
1777450373.624154,2018,0,S_ɔ
1777450373.624245,1928,0,S_ɔ
1777450373.627883,2024,0,S_ɔ
1777450373.630839,2153,0,S_ɔ
1777450373.634476,2156,0,S_ɔ
1777450373.6361039,2083,0,S_ɔ
1777450373.639387,1930,0,S_ɔ
1777450373.642078,1934,0,S_ɔ
1777450373.64741,2096,0,S_ɔ
1777450373.649822,2162,0,S_ɔ
1777450373.651874,2125,0,S_ɔ
1777450373.65623,2049,0,S_ɔ
1777450373.65825,1927,0,S_ɔ
1777450373.6600819,1995,0,S_ɔ
1777450373.663062,2149,0,S_ɔ
1777450373.6660821,2173,0,S_ɔ
1777450373.6718569,2082,0,S_ɔ
1777450373.672582,1952,0,S_ɔ
1777450373.67554,1942,0,S_ɔ
1777450373.67977,2082,0,S_ɔ
1777450373.681383,2171,0,S_ɔ
1777450373.6840892,2145,0,S_ɔ
1777450373.6870642,2024,0,S_ɔ
1777450373.690086,1938,0,S_ɔ
1777450373.6940181,1987,0,S_ɔ
1777450373.6961658,2154,0,S_ɔ
1777450373.699175,2137,0,S_ɔ
1777450373.702284,2108,0,S_ɔ
1777450373.705051,2009,0,S_ɔ
1777450373.708089,1928,0,S_ɔ
1777450373.71106,2063,0,S_ɔ
1777450373.716477,2176,0,S_ɔ
1777450373.717814,2144,0,S_ɔ
1777450373.720791,2095,0,S_ɔ
1777450373.723784,1947,0,S_ɔ
1777450373.726541,2006,0,S_ɔ
1777450373.729106,2165,0,S_ɔ
1777450373.73211,2163,0,S_ɔ
1777450373.737658,2092,0,S_ɔ
1777450373.7384021,1976,0,S_ɔ
1777450373.742532,1918,0,S_ɔ
1777450373.7464309,1976,0,S_ɔ
1777450373.748491,2183,0,S_ɔ
1777450373.7500732,2196,0,S_ɔ
1777450373.753081,2078,0,S_ɔ
1777450373.756665,1967,0,S_ɔ
1777450373.764566,1976,0,S_ɔ
1777450373.767057,2137,0,S_ɔ
1777450373.772031,2196,0,S_ɔ
1777450373.77221,2146,0,S_ɔ
1777450373.7724218,2009,0,S_ɔ
1777450373.7745311,1883,0,S_ɔ
1777450373.7771351,1998,0,S_ɔ
1777450373.7830899,2153,0,S_ɔ
1777450373.784396,2203,0,S_ɔ
1777450373.7865422,2076,0,S_ɔ
1777450373.7911549,1935,0,S_ɔ
1777450373.793333,1940,0,S_ɔ
1777450373.795087,2066,0,S_ɔ
1777450373.7980878,2042,0,S_ɔ
1777450373.8010812,2121,0,S_ɔ
1777450373.8068779,2075,0,S_ɔ
1777450373.809354,1852,0,S_ɔ
1777450373.812885,1964,0,S_ɔ
1777450373.8137732,2150,0,S_ɔ
1777450373.8169248,2164,0,S_ɔ
1777450373.819146,2060,0,S_ɔ
1777450373.822088,1941,0,S_ɔ
1777450373.828529,1950,0,S_ɔ
1777450373.8299341,2079,0,S_ɔ
1777450373.8328152,2177,0,S_ɔ
1777450373.835757,2099,0,S_ɔ
1777450373.837905,2007,0,S_ɔ
1777450373.840275,1956,0,S_ɔ
1777450373.8430688,1994,0,S_ɔ
1777450373.8460789,2121,0,S_ɔ
1777450373.8491058,2162,0,S_ɔ
1777450373.854872,2112,0,S_ɔ
1777450373.856714,1960,0,S_ɔ
1777450373.860826,1898,0,S_ɔ
1777450373.8642502,2054,0,S_ɔ
1777450373.8648021,2158,0,S_ɔ
1777450373.86767,2164,0,S_ɔ
1777450373.870522,2089,0,S_ɔ
1777450373.877093,1945,0,S_ɔ
1777450373.880488,1932,0,S_ɔ
1777450373.884256,2120,0,S_ɔ
1777450373.884387,2155,0,S_ɔ
1777450373.886446,2096,0,S_ɔ
1777450373.888085,2049,0,S_ɔ
1777450373.8911,1868,0,S_ɔ
1777450373.894102,2054,0,S_ɔ
1777450373.900023,2227,0,S_ɔ
1777450373.901808,2179,0,S_ɔ
1777450373.903632,2040,0,S_ɔ
1777450373.9065971,1956,0,S_ɔ
1777450373.910021,1922,0,S_ɔ
1777450373.9125981,2118,0,S_ɔ
1777450373.915167,2196,0,S_ɔ
1777450373.91806,2092,0,S_ɔ
1777450373.924048,2043,0,S_ɔ
1777450373.924876,1925,0,S_ɔ
1777450373.9274812,2066,0,S_ɔ
1777450373.9308941,2144,0,S_ɔ
1777450373.93436,2192,0,S_ɔ
1777450373.936054,2100,0,S_ɔ
1777450373.93908,1947,0,S_ɔ
1777450373.9420538,1903,0,S_ɔ
1777450373.948085,2089,0,S_ɔ
1777450373.949912,2154,0,S_ɔ
1777450373.952884,2120,0,S_ɔ
1777450373.9561422,2015,0,S_ɔ
1777450373.958168,1946,0,S_ɔ
1777450373.960293,2004,0,S_ɔ
1777450373.9630852,2102,0,S_ɔ
1777450373.969206,2151,0,S_ɔ
1777450373.9693272,2099,0,S_ɔ
1777450373.9728608,1916,0,S_ɔ
1777450373.976471,1950,0,S_ɔ
1777450373.9786339,2005,0,S_ɔ
1777450373.981098,2129,0,S_ɔ
1777450373.9840882,2135,0,S_ɔ
1777450373.987124,2074,0,S_ɔ
1777450373.9900851,1931,0,S_ɔ
1777450373.994828,1937,0,S_ɔ
1777450373.996747,2136,0,S_ɔ
1777450374.002031,2154,0,S_ɔ
1777450374.00212,2102,0,S_ɔ
1777450374.0056572,1921,0,S_ɔ
1777450374.008241,1877,0,S_ɔ
1777450374.011094,2019,0,S_ɔ
1777450374.014074,2137,0,S_ɔ
1777450374.020703,2104,0,S_ɔ
1777450374.0211232,2059,0,S_ɔ
1777450374.023305,1946,0,S_ɔ
1777450374.028584,1946,0,S_ɔ
1777450374.0306292,2115,0,S_ɔ
1777450374.032842,2118,0,S_ɔ
1777450374.035423,2105,0,S_ɔ
1777450374.040707,2052,0,S_ɔ
1777450374.041148,1891,0,S_ɔ
1777450374.04578,2026,0,S_ɔ
1777450374.048386,2177,0,S_ɔ
1777450374.0504131,2113,0,S_ɔ
1777450374.053355,2082,0,S_ɔ
1777450374.056113,1968,0,S_ɔ
1777450374.059094,1958,0,S_ɔ
1777450374.062115,2072,0,S_ɔ
1777450374.067592,2167,0,S_ɔ
1777450374.068991,2130,0,S_ɔ
1777450374.0722501,2032,0,S_ɔ
1777450374.075851,1933,0,S_ɔ
1777450374.0780659,2007,0,S_ɔ
1777450374.079971,2140,0,S_ɔ
1777450374.083172,2140,0,S_ɔ
1777450374.088715,2091,0,S_ɔ
1777450374.090337,1966,0,S_ɔ
1777450374.0934882,1904,0,S_ɔ
1777450374.0959392,2074,0,S_ɔ
1777450374.098229,2135,0,S_ɔ
1777450374.101003,2164,0,S_ɔ
1777450374.103963,2070,0,S_ɔ
1777450374.1069598,1946,0,S_ɔ
1777450374.1137202,1989,0,S_ɔ
1777450374.114184,2095,0,S_ɔ
1777450374.116259,2183,0,S_ɔ
1777450374.11991,2070,0,S_ɔ
1777450374.122314,1984,0,S_ɔ
1777450374.126602,1939,0,S_ɔ
1777450374.127999,2044,0,S_ɔ
1777450374.134741,2141,0,S_ɔ
1777450374.1353621,2135,0,S_ɔ
1777450374.139658,2087,0,S_ɔ
1777450374.140626,1957,0,S_ɔ
1777450374.143467,1945,0,S_ɔ
1777450374.147707,2181,0,S_ɔ
1777450374.149133,2167,0,S_ɔ
1777450374.151962,2113,0,S_ɔ
1777450374.1549592,2002,0,S_ɔ
1777450374.162156,1900,0,S_ɔ
1777450374.1631129,2023,0,S_ɔ
1777450374.166688,2188,0,S_ɔ
1777450374.1675699,2183,0,S_ɔ
1777450374.170689,2088,0,S_ɔ
1777450374.1730912,1920,0,S_ɔ
1777450374.1761348,1959,0,S_ɔ
1777450374.1792798,2158,0,S_ɔ
1777450374.184714,2184,0,S_ɔ
1777450374.1864681,2110,0,S_ɔ
1777450374.188566,2038,0,S_ɔ
1777450374.191932,1911,0,S_ɔ
1777450374.194069,2034,0,S_ɔ
1777450374.1971352,2110,0,S_ɔ
1777450374.1999831,2178,0,S_ɔ
1777450374.20295,2131,0,S_ɔ
1777450374.210985,1976,0,S_ɔ
1777450374.2147,1966,0,S_ɔ
1777450374.2152,2112,0,S_ɔ
1777450374.2153778,2160,0,S_ɔ
1777450374.220766,2165,0,S_ɔ
1777450374.220944,2067,0,S_ɔ
1777450374.224098,1911,0,S_ɔ
1777450374.226951,1953,0,S_ɔ
1777450374.232419,2163,0,S_ɔ
1777450374.234609,2176,0,S_ɔ
1777450374.2373672,2066,0,S_ɔ
1777450374.24031,1953,0,S_ɔ
1777450374.242499,1968,0,S_ɔ
1777450374.245467,2088,0,S_ɔ
1777450374.248084,2166,0,S_ɔ
1777450374.250947,2117,0,S_ɔ
1777450374.253956,2052,0,S_ɔ
1777450374.259208,1904,0,S_ɔ
1777450374.2618911,1990,0,S_ɔ
1777450374.264,2110,0,S_ɔ
1777450374.266331,2177,0,S_ɔ
1777450374.2700129,2129,0,S_ɔ
1777450374.272471,2031,0,S_ɔ
1777450374.275102,1880,0,S_ɔ
1777450374.2818391,2012,0,S_ɔ
1777450374.2819588,2087,0,S_ɔ
1777450374.28421,2173,0,S_ɔ
1777450374.287162,2096,0,S_ɔ
1777450374.291568,1930,0,S_ɔ
1777450374.293791,1910,0,S_ɔ
1777450374.2963579,2103,0,S_ɔ
1777450374.299027,2151,0,S_ɔ
1777450374.3019662,2149,0,S_ɔ
1777450374.307411,2040,0,S_ɔ
1777450374.308204,1918,0,S_ɔ
1777450374.31202,2046,0,S_ɔ
1777450374.3151639,2094,0,S_ɔ
1777450374.3170922,2165,0,S_ɔ
1777450374.3203971,2068,0,S_ɔ
1777450374.322958,1954,0,S_ɔ
1777450374.325952,1949,0,S_ɔ
1777450374.332169,2104,0,S_ɔ
1777450374.3325791,2172,0,S_ɔ
1777450374.335978,2150,0,S_ɔ
1777450374.338124,2030,0,S_ɔ
1777450374.341632,1942,0,S_ɔ
1777450374.344513,1978,0,S_ɔ
1777450374.3470678,2106,0,S_ɔ
1777450374.349965,2138,0,S_ɔ
1777450374.357041,2077,0,S_ɔ
1777450374.3574631,1979,0,S_ɔ
1777450374.359248,1935,0,S_ɔ
1777450374.362478,2062,0,S_ɔ
1777450374.365921,2139,0,S_ɔ
1777450374.367984,2153,0,S_ɔ
1777450374.370974,2051,0,S_ɔ
1777450374.373939,1910,0,S_ɔ
1777450374.376965,2009,0,S_ɔ
1777450374.381449,2104,0,S_ɔ
1777450374.383564,2156,0,S_ɔ
1777450374.386464,2101,0,S_ɔ
1777450374.390191,1965,0,S_ɔ
1777450374.3922281,1899,0,S_ɔ
1777450374.3949828,2048,0,S_ɔ
1777450374.397942,2153,0,S_ɔ
1777450374.400969,2125,0,S_ɔ
1777450374.405607,2072,0,S_ɔ
1777450374.407557,1920,0,S_ɔ
1777450374.4106581,1982,0,S_ɔ
1777450374.41385,2155,0,S_ɔ
1777450374.415964,2180,0,S_ɔ
1777450374.41897,2124,0,S_ɔ
1777450374.4219332,1981,0,S_ɔ
1777450374.428113,1934,0,S_ɔ
1777450374.428832,2043,0,S_ɔ
1777450374.431902,2154,0,S_ɔ
1777450374.433985,2133,0,S_ɔ
1777450374.437025,2026,0,S_ɔ
1777450374.439967,1924,0,S_ɔ
1777450374.442944,1919,0,S_ɔ
1777450374.445963,2102,0,S_ɔ
1777450374.45111,2160,0,S_ɔ
1777450374.453278,2109,0,S_ɔ
1777450374.454997,2022,0,S_ɔ
1777450374.458045,1914,0,S_ɔ
1777450374.461678,2012,0,S_ɔ
1777450374.464245,2161,0,S_ɔ
1777450374.466968,2202,0,S_ɔ
1777450374.4699671,2085,0,S_ɔ
1777450374.473952,1968,0,S_ɔ
1777450374.476198,1935,0,S_ɔ
1777450374.479228,2085,0,S_ɔ
1777450374.482625,2178,0,S_ɔ
1777450374.4855459,2127,0,S_ɔ
1777450374.488111,2040,0,S_ɔ
1777450374.4910522,1933,0,S_ɔ
1777450374.497347,1978,0,S_ɔ
1777450374.497798,2121,0,S_ɔ
1777450374.501271,2168,0,S_ɔ
1777450374.503561,2085,0,S_ɔ
1777450374.506996,1972,0,S_ɔ
1777450374.508956,1923,0,S_ɔ
1777450374.511931,2054,0,S_ɔ
1777450374.514956,2148,0,S_ɔ
1777450374.521059,2143,0,S_ɔ
1777450374.521151,2017,0,S_ɔ
1777450374.525065,1883,0,S_ɔ
1777450374.527884,1942,0,S_ɔ
1777450374.5311291,2120,0,S_ɔ
1777450374.532931,2138,0,S_ɔ
1777450374.535918,2048,0,S_ɔ
1777450374.5389178,1937,0,S_ɔ
1777450374.543636,1880,0,S_ɔ
1777450374.545679,2078,0,S_ɔ
1777450374.548308,2138,0,S_ɔ
1777450374.5517042,2129,0,S_ɔ
1777450374.554444,2187,0,S_ɔ
1777450374.557028,1803,0,S_ɔ
1777450374.559944,1954,0,S_ɔ
1777450374.565366,2059,0,S_ɔ
1777450374.566405,2148,0,S_ɔ
1777450374.569708,2105,0,S_ɔ
1777450374.572247,1985,0,S_ɔ
1777450374.575746,1875,0,S_ɔ
1777450374.5783198,2005,0,S_ɔ
1777450374.580959,2167,0,S_ɔ
1777450374.583958,2122,0,S_ɔ
1777450374.587862,2062,0,S_ɔ
1777450374.590088,1898,0,S_ɔ
1777450374.593091,1969,0,S_ɔ
1777450374.596267,2121,0,S_ɔ
1777450374.598974,2133,0,S_ɔ
1777450374.602026,2104,0,S_ɔ
1777450374.604935,2012,0,S_ɔ
1777450374.61086,1876,0,S_ɔ
1777450374.611474,2004,0,S_ɔ
1777450374.614444,2134,0,S_ɔ
1777450374.6189382,2110,0,S_ɔ
1777450374.6209202,2066,0,S_ɔ
1777450374.623471,1955,0,S_ɔ
1777450374.626026,1858,0,S_ɔ
1777450374.6289651,2068,0,S_ɔ
1777450374.63377,2157,0,S_ɔ
1777450374.63595,2103,0,S_ɔ
1777450374.6381812,2044,0,S_ɔ
1777450374.642188,1938,0,S_ɔ
1777450374.644133,2003,0,S_ɔ
1777450374.6469572,2101,0,S_ɔ
1777450374.649929,2200,0,S_ɔ
1777450374.6559622,2022,0,S_ɔ
1777450374.656613,1983,0,S_ɔ
1777450374.65969,1938,0,S_ɔ
1777450374.66396,2076,0,S_ɔ
1777450374.665754,2166,0,S_ɔ
1777450374.668303,2138,0,S_ɔ
1777450374.670964,2028,0,S_ɔ
1777450374.676966,1903,0,S_ɔ
1777450374.6779468,1963,0,S_ɔ
1777450374.6808572,2136,0,S_ɔ
1777450374.685483,2159,0,S_ɔ
1777450374.687031,2095,0,S_ɔ
1777450374.689594,1958,0,S_ɔ
1777450374.692149,1898,0,S_ɔ
1777450374.694937,2013,0,S_ɔ
1777450374.6994078,2165,0,S_ɔ
1777450374.7015731,2124,0,S_ɔ
1777450374.705696,2070,0,S_ɔ
1777450374.707364,1852,0,S_ɔ
1777450374.710067,1941,0,S_ɔ
1777450374.71296,2100,0,S_ɔ
1777450374.7159889,2152,0,S_ɔ
1777450374.721341,2103,0,S_ɔ
1777450374.7219892,1999,0,S_ɔ
1777450374.7256892,1888,0,S_ɔ
1777450374.7289321,2033,0,S_ɔ
1777450374.730962,2183,0,S_ɔ
1777450374.7339299,2154,0,S_ɔ
1777450374.7369668,2051,0,S_ɔ
1777450374.742552,1932,0,S_ɔ
1777450374.743541,1965,0,S_ɔ
1777450374.7461069,2102,0,S_ɔ
1777450374.7504041,2145,0,S_ɔ
1777450374.752226,2111,0,S_ɔ
1777450374.754817,2024,0,S_ɔ
1777450374.757813,1894,0,S_ɔ
1777450374.7643058,2034,0,S_ɔ
1777450374.764682,2136,0,S_ɔ
1777450374.7679858,2182,0,S_ɔ
1777450374.771729,2079,0,S_ɔ
1777450374.7736309,1938,0,S_ɔ
1777450374.776177,1924,0,S_ɔ
1777450374.778823,2048,0,S_ɔ
1777450374.784928,2105,0,S_ɔ
1777450374.785277,2120,0,S_ɔ
1777450374.789247,2008,0,S_ɔ
1777450374.79173,1879,0,S_ɔ
1777450374.795081,1978,0,S_ɔ
1777450374.7968278,2089,0,S_ɔ
1777450374.799829,2149,0,S_ɔ
1777450374.80283,2102,0,S_ɔ
1777450374.806892,1962,0,S_ɔ
1777450374.810346,1943,0,S_ɔ
1777450374.811986,2075,0,S_ɔ
1777450374.814879,2174,0,S_ɔ
1777450374.817801,2135,0,S_ɔ
1777450374.821653,2005,0,S_ɔ
1777450374.8242009,1924,0,S_ɔ
1777450374.827917,1935,0,S_ɔ
1777450374.830139,2092,0,S_ɔ
1777450374.8332632,2192,0,S_ɔ
1777450374.8361092,2058,0,S_ɔ
1777450374.83884,1968,0,S_ɔ
1777450374.8418071,1915,0,S_ɔ
1777450374.844836,1964,0,S_ɔ
1777450374.8492959,2142,0,S_ɔ
1777450374.851309,2154,0,S_ɔ
1777450374.854265,2100,0,S_ɔ
1777450374.857288,1939,0,S_ɔ
1777450374.859949,1878,0,S_ɔ
1777450374.862806,2144,0,S_ɔ
1777450374.865834,2139,0,S_ɔ
1777450374.871029,2088,0,S_ɔ
1777450374.872897,2022,0,S_ɔ
1777450374.874985,1904,0,S_ɔ
1777450374.878796,1979,0,S_ɔ
1777450374.8814368,2147,0,S_ɔ
1777450374.884105,2112,0,S_ɔ
1777450374.8868449,2066,0,S_ɔ
1777450374.892,1947,0,S_ɔ
1777450374.8939898,1976,0,S_ɔ
1777450374.895933,2060,0,S_ɔ
1777450374.89996,2157,0,S_ɔ
1777450374.901922,2131,0,S_ɔ
1777450374.904842,2046,0,S_ɔ
1777450374.90784,1934,0,S_ɔ
1777450374.914046,2019,0,S_ɔ
1777450374.9150531,2171,0,S_ɔ
1777450374.917703,2195,0,S_ɔ
1777450374.922098,2135,0,S_ɔ
1777450374.923867,1977,0,S_ɔ
1777450374.926423,1959,0,S_ɔ
1777450374.928971,2123,0,S_ɔ
1777450374.931801,2189,0,S_ɔ
1777450374.935016,2161,0,S_ɔ
1777450374.938818,2061,0,S_ɔ
1777450374.941309,1949,0,S_ɔ
1777450374.944296,2024,0,S_ɔ
1777450374.947045,2144,0,S_ɔ
1777450374.9498382,2177,0,S_ɔ
1777450374.9558709,2153,0,S_ɔ
1777450374.955924,2014,0,S_ɔ
1777450374.9592252,1920,0,S_ɔ
1777450374.9634502,2091,0,S_ɔ
1777450374.9652538,2199,0,S_ɔ
1777450374.96785,2184,0,S_ɔ
1777450374.970836,2093,0,S_ɔ
1777450374.976921,1905,0,S_ɔ
1777450374.977561,1981,0,S_ɔ
1777450374.98075,2140,0,S_ɔ
1777450374.9832058,2196,0,S_ɔ
1777450374.986498,2094,0,S_ɔ
1777450374.989059,2007,0,S_ɔ
1777450374.991799,1887,0,S_ɔ
1777450374.994896,2067,0,S_ɔ
1777450375.001321,2126,0,S_ɔ
1777450375.0020869,2163,0,S_ɔ
1777450375.0047622,2090,0,S_ɔ
1777450375.0092642,1940,0,S_ɔ
1777450375.011009,1944,0,S_ɔ
1777450375.012794,2113,0,S_ɔ
1777450375.0157921,2185,0,S_ɔ
1777450375.018836,2133,0,S_ɔ
1777450375.0229938,2026,0,S_ɔ
1777450375.0260239,1917,0,S_ɔ
1777450375.030157,2058,0,S_ɔ
1777450375.031837,2137,0,S_ɔ
1777450375.034317,2181,0,S_ɔ
1777450375.0368671,2072,0,S_ɔ
1777450375.043555,1955,0,S_ɔ
1777450375.044161,1907,0,S_ɔ
1777450375.046602,2086,0,S_ɔ
1777450375.0507882,2136,0,S_ɔ
1777450375.052661,2132,0,S_ɔ
1777450375.055236,2012,0,S_ɔ
1777450375.057832,1899,0,S_ɔ
1777450375.0637922,1990,0,S_ɔ
1777450375.064466,2129,0,S_ɔ
1777450375.067521,2174,0,S_ɔ
1777450375.071672,2078,0,S_ɔ
1777450375.07342,1982,0,S_ɔ
1777450375.0759811,1901,0,S_ɔ
1777450375.078849,2085,0,S_ɔ
1777450375.084074,2135,0,S_ɔ
1777450375.086216,2104,0,S_ɔ
1777450375.0881531,2034,0,S_ɔ
1777450375.092014,1910,0,S_ɔ
1777450375.0938308,1960,0,S_ɔ
1777450375.0968409,2137,0,S_ɔ
1777450375.099823,2213,0,S_ɔ
1777450375.105247,2049,0,S_ɔ
1777450375.105849,1973,0,S_ɔ
1777450375.11005,1897,0,S_ɔ
1777450375.1128051,2028,0,S_ɔ
1777450375.115442,2140,0,S_ɔ
1777450375.117986,2133,0,S_ɔ
1777450375.120843,2038,0,S_ɔ
1777450375.12655,1922,0,S_ɔ
1777450375.127284,1919,0,S_ɔ
1777450375.129935,2107,0,S_ɔ
1777450375.133999,2189,0,S_ɔ
1777450375.135804,2111,0,S_ɔ
1777450375.138849,2003,0,S_ɔ
1777450375.141836,1904,0,S_ɔ
1777450375.146998,2006,0,S_ɔ
1777450375.148331,2135,0,S_ɔ
1777450375.150959,2151,0,S_ɔ
1777450375.1550741,2089,0,S_ɔ
1777450375.156857,1940,0,S_ɔ
1777450375.159841,1943,0,S_ɔ
1777450375.1628401,2075,0,S_ɔ
1777450375.168535,2169,0,S_ɔ
1777450375.169308,2121,0,S_ɔ
1777450375.173221,2012,0,S_ɔ
1777450375.175501,1906,0,S_ɔ
1777450375.1790888,1982,0,S_ɔ
1777450375.1808069,2140,0,S_ɔ
1777450375.183837,2158,0,S_ɔ
1777450375.186889,2066,0,S_ɔ
1777450375.1916108,1960,0,S_ɔ
1777450375.193631,1906,0,S_ɔ
1777450375.196374,2043,0,S_ɔ
1777450375.1996381,2151,0,S_ɔ
1777450375.201838,2134,0,S_ɔ
1777450375.204832,2029,0,S_ɔ
1777450375.207835,1917,0,S_ɔ
1777450375.212951,1949,0,S_ɔ
1777450375.215094,2122,0,S_ɔ
1777450375.2172039,2149,0,S_ɔ
1777450375.220843,2105,0,S_ɔ
1777450375.222836,1970,0,S_ɔ
1777450375.225857,1911,0,S_ɔ
1777450375.228836,2050,0,S_ɔ
1777450375.2345622,2130,0,S_ɔ
1777450375.234891,2143,0,S_ɔ
1777450375.2398899,2040,0,S_ɔ
1777450375.2414222,1887,0,S_ɔ
1777450375.244129,1967,0,S_ɔ
1777450375.246808,2108,0,S_ɔ
1777450375.249838,2172,0,S_ɔ
1777450375.255179,2093,0,S_ɔ
1777450375.2571032,1975,0,S_ɔ
1777450375.258948,1933,0,S_ɔ
1777450375.2631109,2000,0,S_ɔ
1777450375.264927,2175,0,S_ɔ
1777450375.267849,2186,0,S_ɔ
1777450375.2708359,2066,0,S_ɔ
1777450375.277248,1895,0,S_ɔ
1777450375.277916,1926,0,S_ɔ
1777450375.279957,2084,0,S_ɔ
1777450375.283072,2232,0,S_ɔ
1777450375.286178,2136,0,S_ɔ
1777450375.2889862,1968,0,S_ɔ
1777450375.29184,1868,0,S_ɔ
1777450375.294807,2004,0,S_ɔ
1777450375.300354,2132,0,S_ɔ
1777450375.301004,2154,0,S_ɔ
1777450375.304079,2054,0,S_ɔ
1777450375.308598,1924,0,S_ɔ
1777450375.310482,1937,0,S_ɔ
1777450375.313046,2088,0,S_ɔ
1777450375.3158028,2157,0,S_ɔ
1777450375.318839,2123,0,S_ɔ
1777450375.322585,2024,0,S_ɔ
1777450375.32615,1902,0,S_ɔ
1777450375.3279428,1993,0,S_ɔ
1777450375.330854,2103,0,S_ɔ
1777450375.333834,2135,0,S_ɔ
1777450375.336843,2070,0,S_ɔ
1777450375.339798,1950,0,S_ɔ
1777450375.344275,1938,0,S_ɔ
1777450375.34592,2042,0,S_ɔ
1777450375.350108,2120,0,S_ɔ
1777450375.351804,2134,0,S_ɔ
1777450375.354701,2032,0,S_ɔ
1777450375.357692,1875,0,S_ɔ
1777450375.3607092,1956,0,S_ɔ
1777450375.365014,2093,0,S_ɔ
1777450375.367191,2149,0,S_ɔ
1777450375.370122,2115,0,S_ɔ
1777450375.3727849,1986,0,S_ɔ
1777450375.375689,1902,0,S_ɔ
1777450375.3787038,1990,0,S_ɔ
1777450375.381685,2159,0,S_ɔ
1777450375.385769,2160,0,S_ɔ
1777450375.389034,2058,0,S_ɔ
1777450375.391669,1911,0,S_ɔ
1777450375.39494,1961,0,S_ɔ
1777450375.396724,2127,0,S_ɔ
1777450375.399713,2191,0,S_ɔ
1777450375.406064,2136,0,S_ɔ
1777450375.407017,2023,0,S_ɔ
1777450375.4098408,1902,0,S_ɔ
1777450375.412502,2043,0,S_ɔ
1777450375.4154508,2155,0,S_ɔ
1777450375.4180071,2178,0,S_ɔ
1777450375.420722,2091,0,S_ɔ
1777450375.426958,1930,0,S_ɔ
1777450375.427263,1934,0,S_ɔ
1777450375.430652,2107,0,S_ɔ
1777450375.432991,2179,0,S_ɔ
1777450375.436175,2143,0,S_ɔ
1777450375.4387221,2002,0,S_ɔ
1777450375.4417129,1908,0,S_ɔ
1777450375.446955,1996,0,S_ɔ
1777450375.448854,2154,0,S_ɔ
1777450375.450927,2175,0,S_ɔ
1777450375.454491,2091,0,S_ɔ
1777450375.457039,1944,0,S_ɔ
1777450375.45974,1965,0,S_ɔ
1777450375.462713,2078,0,S_ɔ
1777450375.4674292,2146,0,S_ɔ
1777450375.4691882,2125,0,S_ɔ
1777450375.473065,2036,0,S_ɔ
1777450375.4747362,1904,0,S_ɔ
1777450375.477712,1976,0,S_ɔ
1777450375.480717,2136,0,S_ɔ
1777450375.483711,2143,0,S_ɔ
1777450375.487756,2066,0,S_ɔ
1777450375.490607,1950,0,S_ɔ
1777450375.493711,1890,0,S_ɔ
1777450375.496599,2046,0,S_ɔ
1777450375.499152,2120,0,S_ɔ
1777450375.501722,2123,0,S_ɔ
1777450375.5047219,2028,0,S_ɔ
1777450375.508384,1882,0,S_ɔ
1777450375.5117152,1940,0,S_ɔ
1777450375.514684,2089,0,S_ɔ
1777450375.517847,2157,0,S_ɔ
1777450375.519714,2071,0,S_ɔ
1777450375.522678,1957,0,S_ɔ
1777450375.525673,1884,0,S_ɔ
1777450375.530071,2025,0,S_ɔ
1777450375.532158,2155,0,S_ɔ
1777450375.536294,2126,0,S_ɔ
1777450375.537896,2044,0,S_ɔ
1777450375.540708,1915,0,S_ɔ
1777450375.543704,1937,0,S_ɔ
1777450375.5467021,2086,0,S_ɔ
1777450375.550339,2134,0,S_ɔ
1777450375.553581,2093,0,S_ɔ
1777450375.556405,1983,0,S_ɔ
1777450375.5596318,1889,0,S_ɔ
1777450375.5621881,1995,0,S_ɔ
1777450375.564729,2141,0,S_ɔ
1777450375.570296,2141,0,S_ɔ
1777450375.570976,2049,0,S_ɔ
1777450375.574271,1922,0,S_ɔ
1777450375.5781171,1921,0,S_ɔ
1777450375.579788,2105,0,S_ɔ
1777450375.5826719,2138,0,S_ɔ
1777450375.585682,2078,0,S_ɔ
1777450375.591017,1995,0,S_ɔ
1777450375.592839,1910,0,S_ɔ
1777450375.5948129,1983,0,S_ɔ
1777450375.598332,2124,0,S_ɔ
1777450375.600928,2166,0,S_ɔ
1777450375.603719,2065,0,S_ɔ
1777450375.6067011,1918,0,S_ɔ
1777450375.6110709,1923,0,S_ɔ
1777450375.613066,2075,0,S_ɔ
1777450375.6158988,2112,0,S_ɔ
1777450375.618786,2106,0,S_ɔ
1777450375.621702,2022,0,S_ɔ
1777450375.6246772,1899,0,S_ɔ
1777450375.627703,1949,0,S_ɔ
1777450375.631486,2102,0,S_ɔ
1777450375.6344378,2138,0,S_ɔ
1777450375.638759,2089,0,S_ɔ
1777450375.640219,1953,0,S_ɔ
1777450375.642772,1929,0,S_ɔ
1777450375.645679,2062,0,S_ɔ
1777450375.651368,2153,0,S_ɔ
1777450375.651907,2145,0,S_ɔ
1777450375.655259,2059,0,S_ɔ
1777450375.659072,1924,0,S_ɔ
1777450375.660921,1996,0,S_ɔ
1777450375.6636832,2134,0,S_ɔ
1777450375.666709,2186,0,S_ɔ
1777450375.6720939,2126,0,S_ɔ
1777450375.673905,2023,0,S_ɔ
1777450375.675883,1964,0,S_ɔ
1777450375.679469,2073,0,S_ɔ
1777450375.6820748,2189,0,S_ɔ
1777450375.684684,2176,0,S_ɔ
1777450375.6876822,2078,0,S_ɔ
1777450375.691645,1944,0,S_ɔ
1777450375.695303,1965,0,S_ɔ
1777450375.697931,2121,0,S_ɔ
1777450375.699735,2173,0,S_ɔ
1777450375.70267,2115,0,S_ɔ
1777450375.705677,2034,0,S_ɔ
1777450375.708662,1936,0,S_ɔ
1777450375.7128398,2009,0,S_ɔ
1777450375.716026,2163,0,S_ɔ
1777450375.718518,2172,0,S_ɔ
1777450375.7216482,2084,0,S_ɔ
1777450375.724195,1941,0,S_ɔ
1777450375.7267342,1928,0,S_ɔ
1777450375.732492,2092,0,S_ɔ
1777450375.7328372,2169,0,S_ɔ
1777450375.736002,2137,0,S_ɔ
1777450375.739979,2053,0,S_ɔ
1777450375.741777,1926,0,S_ɔ
1777450375.744705,2029,0,S_ɔ
1777450375.747713,2156,0,S_ɔ
1777450375.753265,2176,0,S_ɔ
1777450375.7539341,2094,0,S_ɔ
1777450375.7568178,1973,0,S_ɔ
1777450375.76075,1951,0,S_ɔ
1777450375.762673,2084,0,S_ɔ
1777450375.765672,2177,0,S_ɔ
1777450375.768682,2147,0,S_ɔ
1777450375.773843,2051,0,S_ɔ
1777450375.77558,1936,0,S_ɔ
1777450375.7811341,2002,0,S_ɔ
1777450375.781274,2123,0,S_ɔ
1777450375.7838578,2202,0,S_ɔ
1777450375.78668,2107,0,S_ɔ
1777450375.789674,2003,0,S_ɔ
1777450375.7936928,1940,0,S_ɔ
1777450375.796824,2062,0,S_ɔ
1777450375.79967,2163,0,S_ɔ
1777450375.8028429,2167,0,S_ɔ
1777450375.804699,2083,0,S_ɔ
1777450375.8077068,1929,0,S_ɔ
1777450375.810742,1971,0,S_ɔ
1777450375.8138628,2177,0,S_ɔ
1777450375.81746,2195,0,S_ɔ
1777450375.821273,2174,0,S_ɔ
1777450375.822987,2023,0,S_ɔ
1777450375.825723,1931,0,S_ɔ
1777450375.828695,2035,0,S_ɔ
1777450375.8345048,2193,0,S_ɔ
1777450375.834883,2197,0,S_ɔ
1777450375.8385248,2092,0,S_ɔ
1777450375.8420749,1910,0,S_ɔ
1777450375.8437629,1988,0,S_ɔ
1777450375.8467011,2117,0,S_ɔ
1777450375.8497112,2200,0,S_ɔ
1777450375.8553221,2077,0,S_ɔ
1777450375.855955,1973,0,S_ɔ
1777450375.8589172,1933,0,S_ɔ
1777450375.862978,2024,0,S_ɔ
1777450375.864783,2135,0,S_ɔ
1777450375.867676,2155,0,S_ɔ
1777450375.870677,2101,0,S_ɔ
1777450375.8762171,1941,0,S_ɔ
1777450375.8769228,1960,0,S_ɔ
1777450375.880667,2141,0,S_ɔ
1777450375.8845298,2153,0,S_ɔ
1777450375.886225,2201,0,S_ɔ
1777450375.8887858,1984,0,S_ɔ
1777450375.891666,1933,0,S_ɔ
1777450375.894857,2007,0,S_ɔ
1777450375.900791,2132,0,S_ɔ
1777450375.902909,2123,0,S_ɔ
1777450375.904973,2099,0,S_ɔ
1777450375.909098,1987,0,S_ɔ
1777450375.911157,1915,0,S_ɔ
1777450375.9126909,2040,0,S_ɔ
1777450375.9156759,2168,0,S_ɔ
1777450375.918696,2078,0,S_ɔ
1777450375.923766,2034,0,S_ɔ
1777450375.925339,1914,0,S_ɔ
1777450375.929458,1938,0,S_ɔ
1777450375.93116,2112,0,S_ɔ
1777450375.9340749,2162,0,S_ɔ
1777450375.936667,2062,0,S_ɔ
1777450375.939701,1963,0,S_ɔ
1777450375.94573,1898,0,S_ɔ
1777450375.946163,2062,0,S_ɔ
1777450375.949795,2170,0,S_ɔ
1777450375.95198,2118,0,S_ɔ
1777450375.9553978,2062,0,S_ɔ
1777450375.957958,1899,0,S_ɔ
1777450375.960542,1953,0,S_ɔ
1777450375.963593,2118,0,S_ɔ
1777450375.9670012,2212,0,S_ɔ
1777450375.970409,2085,0,S_ɔ
1777450375.9746718,1920,0,S_ɔ
1777450375.976562,1868,0,S_ɔ
1777450375.979114,2028,0,S_ɔ
1777450375.9818728,2109,0,S_ɔ
1777450375.984548,2152,0,S_ɔ
1777450375.988634,2053,0,S_ɔ
1777450375.990732,1916,0,S_ɔ
1777450375.99366,1928,0,S_ɔ
1777450375.996619,2129,0,S_ɔ
1777450375.999545,2243,0,S_ɔ
1777450376.0025349,2108,0,S_ɔ
1777450376.005557,2045,0,S_ɔ
1777450376.010473,1970,0,S_ɔ
1777450376.012487,2049,0,S_ɔ
1777450376.015614,2124,0,S_ɔ
1777450376.018519,2182,0,S_ɔ
1777450376.021107,2084,0,S_ɔ
1777450376.023649,1957,0,S_ɔ
1777450376.026541,1927,0,S_ɔ
1777450376.032685,2081,0,S_ɔ
1777450376.0342112,2150,0,S_ɔ
1777450376.036835,2163,0,S_ɔ
1777450376.040444,1998,0,S_ɔ
1777450376.04217,1907,0,S_ɔ
1777450376.044721,2005,0,S_ɔ
1777450376.047555,2194,0,S_ɔ
1777450376.050563,2105,0,S_ɔ
1777450376.0545778,2127,0,S_ɔ
1777450376.0576441,2012,0,S_ɔ
1777450376.06033,1942,0,S_ɔ
1777450376.0635982,2036,0,S_ɔ
1777450376.066238,2140,0,S_ɔ
1777450376.068608,2156,0,S_ɔ
1777450376.071557,2015,0,S_ɔ
1777450376.0756779,1869,0,S_ɔ
1777450376.0790021,1965,0,S_ɔ
1777450376.081586,2114,0,S_ɔ
1777450376.084912,2170,0,S_ɔ
1777450376.0865788,2093,0,S_ɔ
1777450376.089556,1994,0,S_ɔ
1777450376.092557,1948,0,S_ɔ
1777450376.097311,2020,0,S_ɔ
1777450376.098995,2193,0,S_ɔ
1777450376.1030881,2154,0,S_ɔ
1777450376.1049259,2068,0,S_ɔ
1777450376.1075552,1911,0,S_ɔ
1777450376.110559,1963,0,S_ɔ
1777450376.113559,2114,0,S_ɔ
1777450376.117931,2145,0,S_ɔ
1777450376.120308,2141,0,S_ɔ
1777450376.124382,1976,0,S_ɔ
1777450376.1260102,1901,0,S_ɔ
1777450376.128684,2041,0,S_ɔ
1777450376.131546,2175,0,S_ɔ
1777450376.134541,2139,0,S_ɔ
1777450376.139081,2068,0,S_ɔ
1777450376.1411378,1948,0,S_ɔ
1777450376.143968,1932,0,S_ɔ
1777450376.1468852,2110,0,S_ɔ
1777450376.1495721,2124,0,S_ɔ
1777450376.152548,2133,0,S_ɔ
1777450376.156229,2058,0,S_ɔ
1777450376.160786,1909,0,S_ɔ
1777450376.1627772,1988,0,S_ɔ
1777450376.1649349,2120,0,S_ɔ
1777450376.16871,2132,0,S_ɔ
1777450376.170548,2109,0,S_ɔ
1777450376.173582,2021,0,S_ɔ
1777450376.1765492,1874,0,S_ɔ
1777450376.182121,2041,0,S_ɔ
1777450376.1826859,2141,0,S_ɔ
1777450376.185924,2119,0,S_ɔ
1777450376.1895301,2018,0,S_ɔ
1777450376.191583,1917,0,S_ɔ
1777450376.194561,1984,0,S_ɔ
1777450376.19756,2115,0,S_ɔ
1777450376.2029598,2144,0,S_ɔ
1777450376.203613,2118,0,S_ɔ
1777450376.2068741,2014,0,S_ɔ
1777450376.210901,1924,0,S_ɔ
1777450376.212645,2009,0,S_ɔ
1777450376.215567,2137,0,S_ɔ
1777450376.2185512,2152,0,S_ɔ
1777450376.224576,2049,0,S_ɔ
1777450376.224629,1901,0,S_ɔ
1777450376.228632,1956,0,S_ɔ
1777450376.23119,2096,0,S_ɔ
1777450376.234476,2180,0,S_ɔ
1777450376.236896,2100,0,S_ɔ
1777450376.239549,1992,0,S_ɔ
1777450376.2425501,1911,0,S_ɔ
1777450376.246428,2034,0,S_ɔ
1777450376.2496982,2149,0,S_ɔ
1777450376.2525692,2154,0,S_ɔ
1777450376.255618,2081,0,S_ɔ
1777450376.258177,1947,0,S_ɔ
1777450376.260729,1908,0,S_ɔ
1777450376.263558,2139,0,S_ɔ
1777450376.268084,2168,0,S_ɔ
1777450376.271042,2130,0,S_ɔ
1777450376.272767,2026,0,S_ɔ
1777450376.2755919,1894,0,S_ɔ
1777450376.2785459,2001,0,S_ɔ
1777450376.28158,2133,0,S_ɔ
1777450376.284541,2138,0,S_ɔ
1777450376.2887402,2108,0,S_ɔ
1777450376.2906492,1940,0,S_ɔ
1777450376.293694,1879,0,S_ɔ
1777450376.296561,2038,0,S_ɔ
1777450376.299574,2151,0,S_ɔ
1777450376.302551,2143,0,S_ɔ
1777450376.305551,2001,0,S_ɔ
1777450376.310152,1847,0,S_ɔ
1777450376.3121972,1990,0,S_ɔ
1777450376.316385,2135,0,S_ɔ
1777450376.317971,2085,0,S_ɔ
1777450376.320697,2056,0,S_ɔ
1777450376.323555,1945,0,S_ɔ
1777450376.3265548,1925,0,S_ɔ
1777450376.332025,1994,0,S_ɔ
1777450376.332611,2111,0,S_ɔ
1777450376.3358169,2077,0,S_ɔ
1777450376.339518,2027,0,S_ɔ
1777450376.342226,1904,0,S_ɔ
1777450376.34478,1911,0,S_ɔ
1777450376.347567,2096,0,S_ɔ
1777450376.352662,2148,0,S_ɔ
1777450376.354917,2107,0,S_ɔ
1777450376.3570712,1969,0,S_ɔ
1777450376.3607821,1910,0,S_ɔ
1777450376.3625689,2032,0,S_ɔ
1777450376.3655481,2139,0,S_ɔ
1777450376.368547,2146,0,S_ɔ
1777450376.374586,2072,0,S_ɔ
1777450376.375186,1934,0,S_ɔ
1777450376.378058,1944,0,S_ɔ
1777450376.382227,2098,0,S_ɔ
1777450376.383903,2150,0,S_ɔ
1777450376.386549,2131,0,S_ɔ
1777450376.38945,2006,0,S_ɔ
1777450376.3924859,1892,0,S_ɔ
1777450376.3958468,2012,0,S_ɔ
1777450376.399801,2115,0,S_ɔ
1777450376.4019752,2161,0,S_ɔ
1777450376.405238,2090,0,S_ɔ
1777450376.407794,1944,0,S_ɔ
1777450376.410429,1900,0,S_ɔ
1777450376.413431,2072,0,S_ɔ
1777450376.418473,2152,0,S_ɔ
1777450376.420501,2123,0,S_ɔ
1777450376.4236438,2031,0,S_ɔ
1777450376.426282,1896,0,S_ɔ
1777450376.428939,1961,0,S_ɔ
1777450376.431486,2157,0,S_ɔ
1777450376.434447,2083,0,S_ɔ
1777450376.439821,2097,0,S_ɔ
1777450376.441656,1981,0,S_ɔ
1777450376.443448,1924,0,S_ɔ
1777450376.4474938,2033,0,S_ɔ
1777450376.449426,2107,0,S_ɔ
1777450376.452422,2105,0,S_ɔ
1777450376.4554582,2034,0,S_ɔ
1777450376.4625459,1917,0,S_ɔ
1777450376.462662,1947,0,S_ɔ
1777450376.464545,2129,0,S_ɔ
1777450376.46848,2148,0,S_ɔ
1777450376.470444,2098,0,S_ɔ
1777450376.4734552,1968,0,S_ɔ
1777450376.47649,1949,0,S_ɔ
1777450376.485097,2056,0,S_ɔ
1777450376.487071,2159,0,S_ɔ
1777450376.487981,2124,0,S_ɔ
1777450376.488478,2051,0,S_ɔ
1777450376.492222,1880,0,S_ɔ
1777450376.494443,1956,0,S_ɔ
1777450376.497459,2091,0,S_ɔ
1777450376.500449,2157,0,S_ɔ
1777450376.509347,2125,0,S_ɔ
1777450376.51129,1973,0,S_ɔ
1777450376.512861,1884,0,S_ɔ
1777450376.513377,2028,0,S_ɔ
1777450376.516897,2130,0,S_ɔ
1777450376.519031,2152,0,S_ɔ
1777450376.5218189,2050,0,S_ɔ
1777450376.524539,1943,0,S_ɔ
1777450376.527427,1930,0,S_ɔ
1777450376.531887,2086,0,S_ɔ
1777450376.5357718,2182,0,S_ɔ
1777450376.538177,2116,0,S_ɔ
1777450376.541183,2023,0,S_ɔ
1777450376.543584,1918,0,S_ɔ
1777450376.545436,2005,0,S_ɔ
1777450376.5484319,2112,0,S_ɔ
1777450376.551475,2158,0,S_ɔ
1777450376.557088,2090,0,S_ɔ
1777450376.560381,1964,0,S_ɔ
1777450376.5607932,1925,0,S_ɔ
1777450376.5652218,2093,0,S_ɔ
1777450376.567075,2117,0,S_ɔ
1777450376.569904,2164,0,S_ɔ
1777450376.572592,2041,0,S_ɔ
1777450376.57543,1907,0,S_ɔ
1777450376.580595,1940,0,S_ɔ
1777450376.582581,2115,0,S_ɔ
1777450376.587569,2149,0,S_ɔ
1777450376.5897,2106,0,S_ɔ
1777450376.591881,1960,0,S_ɔ
1777450376.5934331,1929,0,S_ɔ
1777450376.59646,2058,0,S_ɔ
1777450376.599446,2195,0,S_ɔ
1777450376.6079519,2145,0,S_ɔ
1777450376.608293,2025,0,S_ɔ
1777450376.609924,1920,0,S_ɔ
1777450376.6115599,1967,0,S_ɔ
1777450376.615402,2125,0,S_ɔ
1777450376.617654,2156,0,S_ɔ
1777450376.620429,2088,0,S_ɔ
1777450376.626632,1981,0,S_ɔ
1777450376.627488,1927,0,S_ɔ
1777450376.631736,1998,0,S_ɔ
1777450376.6341279,2128,0,S_ɔ
1777450376.6361442,2148,0,S_ɔ
1777450376.639053,2056,0,S_ɔ
1777450376.641711,1896,0,S_ɔ
1777450376.6444428,1942,0,S_ɔ
1777450376.6475022,2118,0,S_ɔ
1777450376.654578,2148,0,S_ɔ
1777450376.656399,2149,0,S_ɔ
1777450376.658261,1990,0,S_ɔ
1777450376.66241,1903,0,S_ɔ
1777450376.6640608,1992,0,S_ɔ
1777450376.665508,2164,0,S_ɔ
1777450376.6684968,2147,0,S_ɔ
1777450376.673245,2066,0,S_ɔ
1777450376.6752691,1956,0,S_ɔ
1777450376.6780531,1932,0,S_ɔ
1777450376.682538,2067,0,S_ɔ
1777450376.68466,2186,0,S_ɔ
1777450376.686442,2143,0,S_ɔ
1777450376.689439,2009,0,S_ɔ
1777450376.6924438,1899,0,S_ɔ
1777450376.700675,2013,0,S_ɔ
1777450376.7021298,2156,0,S_ɔ
1777450376.703883,2135,0,S_ɔ
1777450376.705312,2082,0,S_ɔ
1777450376.7082398,1963,0,S_ɔ
1777450376.710656,1930,0,S_ɔ
1777450376.7135491,2055,0,S_ɔ
1777450376.7164679,2180,0,S_ɔ
1777450376.721893,2146,0,S_ɔ
1777450376.7233431,2016,0,S_ɔ
1777450376.726284,1907,0,S_ɔ
1777450376.728663,1984,0,S_ɔ
1777450376.732706,2132,0,S_ɔ
1777450376.734439,2178,0,S_ɔ
1777450376.73743,2095,0,S_ɔ
1777450376.740428,1965,0,S_ɔ
1777450376.748134,1916,0,S_ɔ
1777450376.7500951,2067,0,S_ɔ
1777450376.750279,2144,0,S_ɔ
1777450376.753671,2134,0,S_ɔ
1777450376.757152,2063,0,S_ɔ
1777450376.759336,1916,0,S_ɔ
1777450376.761892,1929,0,S_ɔ
1777450376.7710469,2108,0,S_ɔ
1777450376.77334,2157,0,S_ɔ
1777450376.774227,2090,0,S_ɔ
1777450376.775551,1972,0,S_ɔ
1777450376.779197,1882,0,S_ɔ
1777450376.7794921,2006,0,S_ɔ
1777450376.7826,2156,0,S_ɔ
1777450376.7854211,2129,0,S_ɔ
1777450376.788417,2034,0,S_ɔ
1777450376.791477,1896,0,S_ɔ
1777450376.796246,1917,0,S_ɔ
1777450376.7985651,2090,0,S_ɔ
1777450376.800564,2149,0,S_ɔ
1777450376.8038259,2097,0,S_ɔ
1777450376.80784,1950,0,S_ɔ
1777450376.809428,1866,0,S_ɔ
1777450376.8124201,1941,0,S_ɔ
1777450376.816313,2098,0,S_ɔ
1777450376.819106,2142,0,S_ɔ
1777450376.822952,2042,0,S_ɔ
1777450376.824372,1927,0,S_ɔ
1777450376.828493,1868,0,S_ɔ
1777450376.831059,2010,0,S_ɔ
1777450376.833621,2165,0,S_ɔ
1777450376.8363352,2051,0,S_ɔ
1777450376.843246,1945,0,S_ɔ
1777450376.8445299,1864,0,S_ɔ
1777450376.847501,1898,0,S_ɔ
1777450376.8502028,2106,0,S_ɔ
1777450376.8554418,2053,0,S_ɔ
1777450376.8560052,2023,0,S_ɔ
1777450376.857344,1921,0,S_ɔ
1777450376.860511,1883,0,S_ɔ
1777450376.865144,2034,0,S_ɔ
1777450376.869267,2080,0,S_ɔ
1777450376.8699892,2101,0,S_ɔ
1777450376.8725069,2022,0,S_ɔ
1777450376.876595,1845,0,S_ɔ
1777450376.878318,1908,0,S_ɔ
1777450376.8812978,2104,0,S_ɔ
1777450376.884296,2137,0,S_ɔ
1777450376.890651,2023,0,S_ɔ
1777450376.892338,1982,0,S_ɔ
1777450376.8940642,1906,0,S_ɔ
1777450376.897107,1957,0,S_ɔ
1777450376.901052,2097,0,S_ɔ
1777450376.9032419,2115,0,S_ɔ
1777450376.9058719,2004,0,S_ɔ
1777450376.912587,1874,0,S_ɔ
1777450376.9156811,1946,0,S_ɔ
1777450376.919223,2085,0,S_ɔ
1777450376.9193192,2163,0,S_ɔ
1777450376.9235141,2074,0,S_ɔ
1777450376.9238322,1975,0,S_ɔ
1777450376.9269571,1923,0,S_ɔ
1777450376.929579,1976,0,S_ɔ
1777450376.932312,2099,0,S_ɔ
1777450376.935328,2159,0,S_ɔ
1777450376.940377,2027,0,S_ɔ
1777450376.9448261,1920,0,S_ɔ
1777450376.9452531,1892,0,S_ɔ
1777450376.947567,2076,0,S_ɔ
1777450376.951653,2139,0,S_ɔ
1777450376.954012,2096,0,S_ɔ
1777450376.9568331,2027,0,S_ɔ
1777450376.963178,1908,0,S_ɔ
1777450376.964036,1989,0,S_ɔ
1777450376.9659479,2145,0,S_ɔ
1777450376.970162,2113,0,S_ɔ
1777450376.9737,2101,0,S_ɔ
1777450376.974433,1955,0,S_ɔ
1777450376.9773738,1900,0,S_ɔ
1777450376.98031,2057,0,S_ɔ
1777450376.9833012,2175,0,S_ɔ
1777450376.98647,2144,0,S_ɔ
1777450376.9922051,1997,0,S_ɔ
1777450376.994011,1931,0,S_ɔ
1777450376.9964511,1975,0,S_ɔ
1777450377.000253,2119,0,S_ɔ
1777450377.002624,2145,0,S_ɔ
1777450377.004982,2098,0,S_ɔ
1777450377.007586,1965,0,S_ɔ
1777450377.013901,1912,0,S_ɔ
1777450377.0146801,2053,0,S_ɔ
1777450377.0163388,2197,0,S_ɔ
1777450377.019885,2117,0,S_ɔ
1777450377.023634,2055,0,S_ɔ
1777450377.025794,1927,0,S_ɔ
1777450377.028367,1971,0,S_ɔ
1777450377.031314,2147,0,S_ɔ
1777450377.0343292,2126,0,S_ɔ
1777450377.040137,2086,0,S_ɔ
1777450377.040562,1996,0,S_ɔ
1777450377.0436559,1909,0,S_ɔ
1777450377.047137,2035,0,S_ɔ
1777450377.049359,2124,0,S_ɔ
1777450377.052299,2119,0,S_ɔ
1777450377.0553238,2129,0,S_ɔ
1777450377.058301,1879,0,S_ɔ
1777450377.065037,1884,0,S_ɔ
1777450377.065536,2048,0,S_ɔ
1777450377.067359,2190,0,S_ɔ
1777450377.0707378,2129,0,S_ɔ
1777450377.0742369,1938,0,S_ɔ
1777450377.076432,1908,0,S_ɔ
1777450377.079309,1945,0,S_ɔ
1777450377.082294,2096,0,S_ɔ
1777450377.0852852,2144,0,S_ɔ
1777450377.089749,2087,0,S_ɔ
1777450377.0918012,1937,0,S_ɔ
1777450377.0950289,1906,0,S_ɔ
1777450377.0985448,2100,0,S_ɔ
1777450377.100628,2110,0,S_ɔ
1777450377.103329,2119,0,S_ɔ
1777450377.106936,1989,0,S_ɔ
1777450377.109458,1915,0,S_ɔ
1777450377.114562,2018,0,S_ɔ
1777450377.116951,2080,0,S_ɔ
1777450377.119339,2095,0,S_ɔ
1777450377.122296,2031,0,S_ɔ
1777450377.1244102,1870,0,S_ɔ
1777450377.127321,1987,0,S_ɔ
1777450377.130325,1974,0,S_ɔ
1777450377.133292,2100,0,S_ɔ
1777450377.139106,2012,0,S_ɔ
1777450377.139524,2046,0,S_ɔ
1777450377.14274,1864,0,S_ɔ
1777450377.147514,1928,0,S_ɔ
1777450377.149441,2091,0,S_ɔ
1777450377.1513002,2140,0,S_ɔ
1777450377.154325,2110,0,S_ɔ
1777450377.157295,1958,0,S_ɔ
1777450377.16238,1875,0,S_ɔ
1777450377.164402,2020,0,S_ɔ
1777450377.1667159,2121,0,S_ɔ
1777450377.170899,2121,0,S_ɔ
1777450377.172809,2031,0,S_ɔ
1777450377.1753678,1875,0,S_ɔ
1777450377.178981,1899,0,S_ɔ
1777450377.181657,2142,0,S_ɔ
1777450377.1852632,2161,0,S_ɔ
1777450377.187496,2130,0,S_ɔ
1777450377.1906528,1973,0,S_ɔ
1777450377.193964,1888,0,S_ɔ
1777450377.1967459,1985,0,S_ɔ
1777450377.1993,2121,0,S_ɔ
1777450377.202164,2161,0,S_ɔ
1777450377.208735,2055,0,S_ɔ
1777450377.209821,1895,0,S_ɔ
1777450377.211273,1886,0,S_ɔ
1777450377.214533,2068,0,S_ɔ
1777450377.217798,2123,0,S_ɔ
1777450377.2206469,2125,0,S_ɔ
1777450377.223209,2009,0,S_ɔ
1777450377.226985,1883,0,S_ɔ
1777450377.232085,1994,0,S_ɔ
1777450377.232805,2139,0,S_ɔ
1777450377.236065,2146,0,S_ɔ
1777450377.240779,2097,0,S_ɔ
1777450377.24246,1946,0,S_ɔ
1777450377.244195,1916,0,S_ɔ
1777450377.2471979,2085,0,S_ɔ
1777450377.2502,2134,0,S_ɔ
1777450377.254838,2139,0,S_ɔ
1777450377.256879,2023,0,S_ɔ
1777450377.259936,1920,0,S_ɔ
1777450377.263053,1979,0,S_ɔ
1777450377.265801,2146,0,S_ɔ
1777450377.268351,2159,0,S_ɔ
1777450377.271171,2065,0,S_ɔ
1777450377.27677,1987,0,S_ɔ
1777450377.277214,1893,0,S_ɔ
1777450377.2810109,2058,0,S_ɔ
1777450377.285175,2146,0,S_ɔ
1777450377.28702,2129,0,S_ɔ
1777450377.28958,2037,0,S_ɔ
1777450377.292207,1899,0,S_ɔ
1777450377.295202,1967,0,S_ɔ
1777450377.299423,2123,0,S_ɔ
1777450377.301405,2150,0,S_ɔ
1777450377.305792,2108,0,S_ɔ
1777450377.3075168,1943,0,S_ɔ
1777450377.310594,1897,0,S_ɔ
1777450377.313208,2045,0,S_ɔ
1777450377.3161979,2066,0,S_ɔ
1777450377.3215969,2092,0,S_ɔ
1777450377.322626,2053,0,S_ɔ
1777450377.32564,1900,0,S_ɔ
1777450377.330183,1930,0,S_ɔ
1777450377.3321311,2104,0,S_ɔ
1777450377.3347042,2147,0,S_ɔ
1777450377.337267,2104,0,S_ɔ
1777450377.340203,2018,0,S_ɔ
1777450377.344052,1896,0,S_ɔ
1777450377.346197,2015,0,S_ɔ
1777450377.349188,2129,0,S_ɔ
1777450377.3523111,2143,0,S_ɔ
1777450377.355169,2050,0,S_ɔ
1777450377.358206,1939,0,S_ɔ
1777450377.361164,1909,0,S_ɔ
1777450377.366218,2065,0,S_ɔ
1777450377.368132,2177,0,S_ɔ
1777450377.370686,2139,0,S_ɔ
1777450377.374368,2015,0,S_ɔ
1777450377.376409,1917,0,S_ɔ
1777450377.3791628,2001,0,S_ɔ
1777450377.3822,2114,0,S_ɔ
1777450377.385204,2169,0,S_ɔ
1777450377.389494,2077,0,S_ɔ
1777450377.392459,1956,0,S_ɔ
1777450377.3944378,1947,0,S_ɔ
1777450377.397299,2047,0,S_ɔ
1777450377.4001658,2162,0,S_ɔ
1777450377.40321,2160,0,S_ɔ
1777450377.4061718,2033,0,S_ɔ
1777450377.4108338,1928,0,S_ɔ
1777450377.412996,1967,0,S_ɔ
1777450377.4159832,2142,0,S_ɔ
1777450377.4193332,2179,0,S_ɔ
1777450377.421202,2114,0,S_ɔ
1777450377.424196,1957,0,S_ɔ
1777450377.427201,1911,0,S_ɔ
1777450377.432728,2057,0,S_ɔ
1777450377.433682,2145,0,S_ɔ
1777450377.4364119,2128,0,S_ɔ
1777450377.440801,2054,0,S_ɔ
1777450377.44225,1895,0,S_ɔ
1777450377.4452128,1930,0,S_ɔ
1777450377.448194,2119,0,S_ɔ
1777450377.4541519,2120,0,S_ɔ
1777450377.454514,2094,0,S_ɔ
1777450377.45792,1997,0,S_ɔ
1777450377.460959,1918,0,S_ɔ
1777450377.4644532,2017,0,S_ɔ
1777450377.466151,2134,0,S_ɔ
1777450377.469169,2162,0,S_ɔ
1777450377.472163,2053,0,S_ɔ
1777450377.476744,1922,0,S_ɔ
1777450377.478802,1935,0,S_ɔ
1777450377.484736,2066,0,S_ɔ
1777450377.4850152,2123,0,S_ɔ
1777450377.4871879,2090,0,S_ɔ
1777450377.490171,1976,0,S_ɔ
1777450377.493883,1880,0,S_ɔ
1777450377.499166,1969,0,S_ɔ
1777450377.499584,2115,0,S_ɔ
1777450377.5031838,2122,0,S_ɔ
1777450377.505357,2076,0,S_ɔ
1777450377.5086799,1930,0,S_ɔ
1777450377.5112588,1899,0,S_ɔ
1777450377.514187,2081,0,S_ɔ
1777450377.520097,2102,0,S_ɔ
1777450377.5211048,2110,0,S_ɔ
1777450377.524367,2010,0,S_ɔ
1777450377.5644841,1892,0,S_ɔ
1777450377.566412,1929,0,S_ɔ
1777450377.566459,2134,0,S_ɔ
1777450377.566634,2138,0,S_ɔ
1777450377.566787,2057,0,S_ɔ
1777450377.5668821,1933,0,S_ɔ
1777450377.566936,1910,0,S_ɔ
1777450377.566984,2056,0,S_ɔ
1777450377.567032,2149,0,S_ɔ
1777450377.5670788,2168,0,S_ɔ
1777450377.567125,2016,0,S_ɔ
1777450377.5671701,1900,0,S_ɔ
1777450377.5672162,1955,0,S_ɔ
1777450377.567263,2100,0,S_ɔ
1777450377.568373,2172,0,S_ɔ
1777450377.5712929,2099,0,S_ɔ
1777450377.574243,1972,0,S_ɔ
1777450377.577618,1898,0,S_ɔ
1777450377.580248,2013,0,S_ɔ
1777450377.583198,2126,0,S_ɔ
1777450377.589867,2130,0,S_ɔ
1777450377.590234,2061,0,S_ɔ
1777450377.5930529,1929,0,S_ɔ
1777450377.596415,1944,0,S_ɔ
1777450377.598196,2085,0,S_ɔ
1777450377.6011589,2121,0,S_ɔ
1777450377.604188,2092,0,S_ɔ
1777450377.607166,2006,0,S_ɔ
1777450377.614181,1918,0,S_ɔ
1777450377.6163142,2011,0,S_ɔ
1777450377.618071,2133,0,S_ɔ
1777450377.620376,2136,0,S_ɔ
1777450377.623639,2045,0,S_ɔ
1777450377.6261601,1926,0,S_ɔ
1777450377.628783,1910,0,S_ɔ
1777450377.635355,2079,0,S_ɔ
1777450377.6363661,2135,0,S_ɔ
1777450377.639861,2096,0,S_ɔ
1777450377.640456,1987,0,S_ɔ
1777450377.644715,1884,0,S_ɔ
1777450377.646836,2004,0,S_ɔ
1777450377.649517,2150,0,S_ɔ
1777450377.652189,2151,0,S_ɔ
1777450377.6552,2076,0,S_ɔ
1777450377.6644638,1956,0,S_ɔ
1777450377.665122,1912,0,S_ɔ
1777450377.668194,2059,0,S_ɔ
1777450377.670343,2117,0,S_ɔ
1777450377.670536,2112,0,S_ɔ
1777450377.6738849,2020,0,S_ɔ
1777450377.676556,1892,0,S_ɔ
1777450377.682577,1932,0,S_ɔ
1777450377.6865122,2091,0,S_ɔ
1777450377.6874151,2147,0,S_ɔ
1777450377.6897979,2078,0,S_ɔ
1777450377.6918368,1944,0,S_ɔ
1777450377.694324,1895,0,S_ɔ
1777450377.697197,2027,0,S_ɔ
1777450377.70018,2113,0,S_ɔ
1777450377.7031732,2134,0,S_ɔ
1777450377.7099168,2026,0,S_ɔ
1777450377.712734,1911,0,S_ɔ
1777450377.713235,1936,0,S_ɔ
1777450377.71722,2104,0,S_ɔ
1777450377.7195368,2138,0,S_ɔ
1777450377.721096,2095,0,S_ɔ
1777450377.7240572,1979,0,S_ɔ
1777450377.727057,1906,0,S_ɔ
1777450377.735444,2004,0,S_ɔ
1777450377.738681,2134,0,S_ɔ
1777450377.739224,2138,0,S_ɔ
1777450377.7401469,2058,0,S_ɔ
1777450377.7434208,1916,0,S_ɔ
1777450377.7458508,1945,0,S_ɔ
1777450377.74845,2094,0,S_ɔ
1777450377.753578,2148,0,S_ɔ
1777450377.754981,2100,0,S_ɔ
1777450377.7582898,2010,0,S_ɔ
1777450377.7640378,1891,0,S_ɔ
1777450377.765698,1988,0,S_ɔ
1777450377.7662988,2136,0,S_ɔ
1777450377.769081,2146,0,S_ɔ
1777450377.772047,2062,0,S_ɔ
1777450377.7751198,1957,0,S_ɔ
1777450377.779833,1868,0,S_ɔ
1777450377.781803,2068,0,S_ɔ
1777450377.7849789,2141,0,S_ɔ
1777450377.7883048,2134,0,S_ɔ
1777450377.790389,1999,0,S_ɔ
1777450377.793083,1876,0,S_ɔ
1777450377.7960489,1963,0,S_ɔ
1777450377.799077,2129,0,S_ɔ
1777450377.8034701,2157,0,S_ɔ
1777450377.805751,2079,0,S_ɔ
1777450377.808845,1959,0,S_ɔ
1777450377.812313,1932,0,S_ɔ
1777450377.8143349,2043,0,S_ɔ
1777450377.817069,2136,0,S_ɔ
1777450377.820081,2120,0,S_ɔ
1777450377.8231559,2028,0,S_ɔ
1777450377.826708,1916,0,S_ɔ
1777450377.8303108,1941,0,S_ɔ
1777450377.832055,2103,0,S_ɔ
1777450377.835623,2143,0,S_ɔ
1777450377.838531,2109,0,S_ɔ
1777450377.8411,1963,0,S_ɔ
1777450377.844081,1921,0,S_ɔ
1777450377.849934,2030,0,S_ɔ
1777450377.8503199,2136,0,S_ɔ
1777450377.853895,2142,0,S_ɔ
1777450377.858094,2062,0,S_ɔ
1777450377.859933,1941,0,S_ɔ
1777450377.8625112,1940,0,S_ɔ
1777450377.865079,2113,0,S_ɔ
1777450377.868077,2165,0,S_ɔ
1777450377.871858,2100,0,S_ɔ
1777450377.875607,2009,0,S_ɔ
1777450377.8771799,1915,0,S_ɔ
1777450377.880346,2018,0,S_ɔ
1777450377.883114,2129,0,S_ɔ
1777450377.886066,2165,0,S_ɔ
1777450377.889039,2081,0,S_ɔ
1777450377.8941529,1921,0,S_ɔ
1777450377.89605,1965,0,S_ɔ
1777450377.8982432,2068,0,S_ɔ
1777450377.902272,2152,0,S_ɔ
1777450377.9042518,2131,0,S_ɔ
1777450377.9070668,2034,0,S_ɔ
1777450377.910066,1894,0,S_ɔ
1777450377.916091,1991,0,S_ɔ
1777450377.9164622,2140,0,S_ɔ
1777450377.919605,2153,0,S_ɔ
1777450377.9228082,2090,0,S_ɔ
1777450377.9259782,1964,0,S_ɔ
1777450377.928542,1938,0,S_ɔ
1777450377.931088,2078,0,S_ɔ
1777450377.934058,2181,0,S_ɔ
1777450377.938296,2153,0,S_ɔ
1777450377.9401019,2025,0,S_ɔ
1777450377.943487,1924,0,S_ɔ
1777450377.946434,1990,0,S_ɔ
1777450377.949443,2118,0,S_ɔ
1777450377.952031,2178,0,S_ɔ
1777450377.95506,2109,0,S_ɔ
1777450377.960186,1945,0,S_ɔ
1777450377.962275,1904,0,S_ɔ
1777450377.9640572,2038,0,S_ɔ
1777450377.968498,2164,0,S_ɔ
1777450377.970471,2160,0,S_ɔ
1777450377.9730592,2088,0,S_ɔ
1777450377.976043,1907,0,S_ɔ
1777450377.9818292,1970,0,S_ɔ
1777450377.982243,2127,0,S_ɔ
1777450377.9859068,2178,0,S_ɔ
1777450377.988808,2136,0,S_ɔ
1777450377.9923751,2004,0,S_ɔ
1777450377.994037,1917,0,S_ɔ
1777450377.9970298,2051,0,S_ɔ
1777450378.0000372,2156,0,S_ɔ
1777450378.0053172,2159,0,S_ɔ
1777450378.007371,2087,0,S_ɔ
1777450378.009669,1983,0,S_ɔ
1777450378.013599,1980,0,S_ɔ
1777450378.015609,2144,0,S_ɔ
1777450378.018173,2202,0,S_ɔ
1777450378.0210729,2150,0,S_ɔ
1777450378.0240781,2025,0,S_ɔ
1777450378.029324,1944,0,S_ɔ
1777450378.034132,2042,0,S_ɔ
1777450378.034202,2158,0,S_ɔ
1777450378.036136,2172,0,S_ɔ
1777450378.039776,2114,0,S_ɔ
1777450378.042449,1962,0,S_ɔ
1777450378.045048,1941,0,S_ɔ
1777450378.048067,2148,0,S_ɔ
1777450378.0531251,2187,0,S_ɔ
1777450378.055104,2162,0,S_ɔ
1777450378.057277,2037,0,S_ɔ
1777450378.061562,1925,0,S_ɔ
1777450378.063549,2001,0,S_ɔ
1777450378.0661151,2134,0,S_ɔ
1777450378.0690439,2172,0,S_ɔ
1777450378.0720692,2094,0,S_ɔ
1777450378.0764558,1994,0,S_ɔ
1777450378.078503,1931,0,S_ɔ
1777450378.081792,2054,0,S_ɔ
1777450378.084741,2180,0,S_ɔ
1777450378.0875032,2160,0,S_ɔ
1777450378.090069,2041,0,S_ɔ
1777450378.093055,1918,0,S_ɔ
1777450378.099044,1963,0,S_ɔ
1777450378.0991292,2101,0,S_ɔ
1777450378.10246,2164,0,S_ɔ
1777450378.1066968,2108,0,S_ɔ
1777450378.108781,1972,0,S_ɔ
1777450378.111337,1895,0,S_ɔ
1777450378.114065,2013,0,S_ɔ
1777450378.1170828,2157,0,S_ɔ
1777450378.121055,2158,0,S_ɔ
1777450378.1233122,2066,0,S_ɔ
1777450378.126217,1939,0,S_ɔ
1777450378.1296551,1948,0,S_ɔ
1777450378.132527,2121,0,S_ɔ
1777450378.135087,2155,0,S_ɔ
1777450378.138048,2128,0,S_ɔ
1777450378.1440809,2011,0,S_ɔ
1777450378.1448052,1898,0,S_ɔ
1777450378.148383,2030,0,S_ɔ
1777450378.151386,2146,0,S_ɔ
1777450378.153173,2146,0,S_ɔ
1777450378.156041,2085,0,S_ɔ
1777450378.1590788,1938,0,S_ɔ
1777450378.1620429,1949,0,S_ɔ
1777450378.167459,2107,0,S_ɔ
1777450378.1689239,2218,0,S_ɔ
1777450378.171766,2163,0,S_ɔ
1777450378.174739,2046,0,S_ɔ
1777450378.178338,1906,0,S_ɔ
1777450378.180037,2001,0,S_ɔ
1777450378.1830342,2154,0,S_ɔ
1777450378.1860428,2154,0,S_ɔ
1777450378.191089,2089,0,S_ɔ
1777450378.192905,1949,0,S_ɔ
1777450378.1974232,1908,0,S_ɔ
1777450378.1992111,2089,0,S_ɔ
1777450378.201094,2154,0,S_ɔ
1777450378.2039528,2152,0,S_ɔ
1777450378.207602,2065,0,S_ɔ
1777450378.2134678,1942,0,S_ɔ
1777450378.213828,1989,0,S_ɔ
1777450378.216753,2131,0,S_ɔ
1777450378.219947,2181,0,S_ɔ
1777450378.222004,2104,0,S_ɔ
1777450378.2249331,1978,0,S_ɔ
1777450378.22794,1920,0,S_ɔ
1777450378.230939,2059,0,S_ɔ
1777450378.23548,2165,0,S_ɔ
1777450378.237918,2175,0,S_ɔ
1777450378.240969,2060,0,S_ɔ
1777450378.244046,1918,0,S_ɔ
1777450378.24594,1977,0,S_ɔ
1777450378.248928,2125,0,S_ɔ
1777450378.251929,2165,0,S_ɔ
1777450378.257717,2111,0,S_ɔ
1777450378.2584162,1992,0,S_ɔ
1777450378.2612429,1926,0,S_ɔ
1777450378.263943,2051,0,S_ɔ
1777450378.2674298,2160,0,S_ɔ
1777450378.2699862,2161,0,S_ɔ
1777450378.273651,2054,0,S_ɔ
1777450378.276042,1937,0,S_ɔ
1777450378.281357,1957,0,S_ɔ
1777450378.282923,2101,0,S_ɔ
1777450378.285732,2172,0,S_ɔ
1777450378.2891421,2123,0,S_ɔ
1777450378.291695,2013,0,S_ɔ
1777450378.294239,1924,0,S_ɔ
1777450378.296961,2016,0,S_ɔ
1777450378.300808,2141,0,S_ɔ
1777450378.3041248,2174,0,S_ɔ
1777450378.307136,2120,0,S_ɔ
1777450378.308987,1950,0,S_ɔ
1777450378.311938,1935,0,S_ɔ
1777450378.314922,2094,0,S_ɔ
1777450378.3179278,2180,0,S_ɔ
1777450378.321933,2138,0,S_ɔ
1777450378.324022,2022,0,S_ɔ
1777450378.32804,1926,0,S_ɔ
1777450378.331025,1990,0,S_ɔ
1777450378.333598,2147,0,S_ɔ
1777450378.3361459,2171,0,S_ɔ
1777450378.3389592,2092,0,S_ɔ
1777450378.3424141,1960,0,S_ɔ
1777450378.3455691,1923,0,S_ɔ
1777450378.348563,2084,0,S_ɔ
1777450378.3515232,2170,0,S_ɔ
1777450378.3541021,2148,0,S_ɔ
1777450378.356951,2037,0,S_ɔ
1777450378.3599129,1923,0,S_ɔ
1777450378.362912,1996,0,S_ɔ
1777450378.365943,2117,0,S_ɔ
