timestamp,ch1,ch2,label
1775032466.0187788,2268,0,0_S
1775032466.0193942,2100,0,0_S
1775032466.0238981,1901,0,0_S
1775032466.02594,1831,0,0_S
1775032466.029984,1825,0,0_S
1775032466.032067,2096,0,0_S
1775032466.03529,2301,0,0_S
1775032466.038263,2007,0,0_S
1775032466.04065,1584,0,0_S
1775032466.04351,1705,0,0_S
1775032466.046413,2013,0,0_S
1775032466.049778,2182,0,0_S
1775032466.052413,2216,0,0_S
1775032466.061474,1968,0,0_S
1775032466.061548,1733,0,0_S
1775032466.061759,1855,0,0_S
1775032466.065307,2224,0,0_S
1775032466.067589,2353,0,0_S
1775032466.070435,2048,0,0_S
1775032466.073437,1804,0,0_S
1775032466.0764,2041,0,0_S
1775032466.082208,1805,0,0_S
1775032466.084161,1863,0,0_S
1775032466.0859149,2132,0,0_S
1775032466.088619,1935,0,0_S
1775032466.0917618,1773,0,0_S
1775032466.0944982,1926,0,0_S
1775032466.0974028,2201,0,0_S
1775032466.102647,1970,0,0_S
1775032466.1048598,2051,0,0_S
1775032466.106962,1818,0,0_S
1775032466.10975,1889,0,0_S
1775032466.112535,2043,0,0_S
1775032466.115396,2116,0,0_S
1775032466.1184058,2168,0,0_S
1775032466.125522,1968,0,0_S
1775032466.1259,1811,0,0_S
1775032466.128911,1818,0,0_S
1775032466.1304379,2054,0,0_S
1775032466.133591,2175,0,0_S
1775032466.1364422,2141,0,0_S
1775032466.1394079,1838,0,0_S
1775032466.145025,1809,0,0_S
1775032466.14549,1930,0,0_S
1775032466.148575,2182,0,0_S
1775032466.15177,2255,0,0_S
1775032466.15446,1952,0,0_S
1775032466.1574368,1812,0,0_S
1775032466.160407,1785,0,0_S
1775032466.165209,2029,0,0_S
1775032466.167018,2189,0,0_S
1775032466.1709702,2077,0,0_S
1775032466.172839,1859,0,0_S
1775032466.175431,1847,0,0_S
1775032466.1784241,1863,0,0_S
1775032466.1814241,2061,0,0_S
1775032466.186783,2222,0,0_S
1775032466.189425,2041,0,0_S
1775032466.192083,1791,0,0_S
1775032466.194446,1908,0,0_S
1775032466.19697,1957,0,0_S
1775032466.199519,2174,0,0_S
1775032466.2025611,2147,0,0_S
1775032466.2068648,1977,0,0_S
1775032466.209787,1833,0,0_S
1775032466.211648,1892,0,0_S
1775032466.2149491,1984,0,0_S
1775032466.2174988,2252,0,0_S
1775032466.220433,2124,0,0_S
1775032466.2263029,1672,0,0_S
1775032466.2266722,1838,0,0_S
1775032466.230017,1795,0,0_S
1775032466.2332108,2133,0,0_S
1775032466.235821,2260,0,0_S
1775032466.23849,1982,0,0_S
1775032466.241442,1898,0,0_S
1775032466.246399,1883,0,0_S
1775032466.248398,2004,0,0_S
1775032466.252289,2203,0,0_S
1775032466.254158,2139,0,0_S
1775032466.256711,1887,0,0_S
1775032466.259431,1896,0,0_S
1775032466.26301,1873,0,0_S
1775032466.2668102,1861,0,0_S
1775032466.2687201,2442,0,0_S
1775032466.272985,1939,0,0_S
1775032466.2752461,1739,0,0_S
1775032466.277809,1865,0,0_S
1775032466.280444,1890,0,0_S
1775032466.2834518,2225,0,0_S
1775032466.2869198,2246,0,0_S
1775032466.290039,1915,0,0_S
1775032466.293066,1692,0,0_S
1775032466.295433,1969,0,0_S
1775032466.298975,1974,0,0_S
1775032466.3015208,2185,0,0_S
1775032466.307811,2176,0,0_S
1775032466.3084319,1803,0,0_S
1775032466.311129,1796,0,0_S
1775032466.314369,2031,0,0_S
1775032466.316436,2119,0,0_S
1775032466.319398,2122,0,0_S
1775032466.322432,1967,0,0_S
1775032466.327552,1778,0,0_S
1775032466.329835,1845,0,0_S
1775032466.3315399,2031,0,0_S
1775032466.3347359,2323,0,0_S
1775032466.337427,2072,0,0_S
1775032466.340402,1843,0,0_S
1775032466.343423,1831,0,0_S
1775032466.3479738,1883,0,0_S
1775032466.350016,2139,0,0_S
1775032466.353021,2144,0,0_S
1775032466.3562272,1974,0,0_S
1775032466.358776,1795,0,0_S
1775032466.3614469,1847,0,0_S
1775032466.364425,1891,0,0_S
1775032466.368502,2174,0,0_S
1775032466.370465,2202,0,0_S
1775032466.373493,1926,0,0_S
1775032466.37658,1756,0,0_S
1775032466.3793972,1902,0,0_S
1775032466.382435,2060,0,0_S
1775032466.389139,2285,0,0_S
1775032466.389219,2037,0,0_S
1775032466.392189,1788,0,0_S
1775032466.395339,1801,0,0_S
1775032466.397909,1935,0,0_S
1775032466.400455,2227,0,0_S
1775032466.4034271,2260,0,0_S
1775032466.409086,1889,0,0_S
1775032466.4096901,1731,0,0_S
1775032466.412844,1891,0,0_S
1775032466.416183,2042,0,0_S
1775032466.418973,2222,0,0_S
1775032466.421603,2115,0,0_S
1775032466.4244428,1853,0,0_S
1775032466.429406,1791,0,0_S
1775032466.4314492,1924,0,0_S
1775032466.433496,2152,0,0_S
1775032466.437671,2205,0,0_S
1775032466.4393978,1973,0,0_S
1775032466.442393,1772,0,0_S
1775032466.4453928,1859,0,0_S
1775032466.449604,1984,0,0_S
1775032466.451787,2240,0,0_S
1775032466.455748,2186,0,0_S
1775032466.458132,1802,0,0_S
1775032466.460694,1781,0,0_S
1775032466.46341,1949,0,0_S
1775032466.466397,2143,0,0_S
1775032466.4705422,2247,0,0_S
1775032466.473792,1999,0,0_S
1775032466.476516,1797,0,0_S
1775032466.47896,1818,0,0_S
1775032466.4815118,1945,0,0_S
1775032466.48443,2244,0,0_S
1775032466.489984,2162,0,0_S
1775032466.490564,1879,0,0_S
1775032466.494027,1774,0,0_S
1775032466.497005,1929,0,0_S
1775032466.499748,2111,0,0_S
1775032466.5024488,2216,0,0_S
1775032466.505422,2087,0,0_S
1775032466.510586,1723,0,0_S
1775032466.512337,1813,0,0_S
1775032466.516387,1998,0,0_S
1775032466.518804,2191,0,0_S
1775032466.5204182,2146,0,0_S
1775032466.523416,1923,0,0_S
1775032466.526389,1785,0,0_S
1775032466.530941,1911,0,0_S
1775032466.532914,1963,0,0_S
1775032466.536989,2319,0,0_S
1775032466.539386,2104,0,0_S
1775032466.5419369,1778,0,0_S
1775032466.5444758,1748,0,0_S
1775032466.547393,1877,0,0_S
1775032466.5515032,2226,0,0_S
1775032466.554796,2305,0,0_S
1775032466.557423,1920,0,0_S
1775032466.559745,1768,0,0_S
1775032466.562399,1869,0,0_S
1775032466.565387,2004,0,0_S
1775032466.5715961,2207,0,0_S
1775032466.571997,2185,0,0_S
1775032466.575259,1810,0,0_S
1775032466.5776808,1740,0,0_S
1775032466.581075,1854,0,0_S
1775032466.583634,2134,0,0_S
1775032466.586433,2299,0,0_S
1775032466.5918741,1963,0,0_S
1775032466.59258,1789,0,0_S
1775032466.59587,1878,0,0_S
1775032466.599224,1911,0,0_S
1775032466.602015,2218,0,0_S
1775032466.604518,2163,0,0_S
1775032466.607429,1842,0,0_S
1775032466.612007,1783,0,0_S
1775032466.614273,1910,0,0_S
1775032466.617316,2078,0,0_S
1775032466.619482,2177,0,0_S
1775032466.622433,2036,0,0_S
1775032466.625416,1802,0,0_S
1775032466.6283882,1831,0,0_S
1775032466.632931,1872,0,0_S
1775032466.634557,2292,0,0_S
1775032466.6386828,2269,0,0_S
1775032466.640843,1860,0,0_S
1775032466.643429,1748,0,0_S
1775032466.646473,1880,0,0_S
1775032466.6494038,2053,0,0_S
1775032466.652802,2326,0,0_S
1775032466.6559732,2089,0,0_S
1775032466.6590211,1697,0,0_S
1775032466.661454,1822,0,0_S
1775032466.664393,1768,0,0_S
1775032466.667391,2249,0,0_S
1775032466.673908,2281,0,0_S
1775032466.67398,2031,0,0_S
1775032466.677619,1751,0,0_S
1775032466.679436,1804,0,0_S
1775032466.682786,1992,0,0_S
1775032466.685496,2281,0,0_S
1775032466.688429,2118,0,0_S
1775032466.693334,1884,0,0_S
1775032466.695154,1801,0,0_S
1775032466.6992562,1836,0,0_S
1775032466.701835,2100,0,0_S
1775032466.703417,2207,0,0_S
1775032466.7064278,2023,0,0_S
1775032466.7093859,1752,0,0_S
1775032466.713863,1862,0,0_S
1775032466.716018,1985,0,0_S
1775032466.7190259,2239,0,0_S
1775032466.722741,2087,0,0_S
1775032466.72442,1888,0,0_S
1775032466.727392,1648,0,0_S
1775032466.730457,1931,0,0_S
1775032466.7334652,2124,0,0_S
1775032466.737441,2385,0,0_S
1775032466.740758,1988,0,0_S
1775032466.7424269,1844,0,0_S
1775032466.7460768,1935,0,0_S
1775032466.74865,1853,0,0_S
1775032466.7549272,2207,0,0_S
1775032466.755012,2278,0,0_S
1775032466.758168,1892,0,0_S
1775032466.760679,1694,0,0_S
1775032466.763408,1793,0,0_S
1775032466.766426,2167,0,0_S
1775032466.769401,2210,0,0_S
1775032466.775326,2013,0,0_S
1775032466.775668,1887,0,0_S
1775032466.779419,1703,0,0_S
1775032466.783233,1905,0,0_S
1775032466.784529,2202,0,0_S
1775032466.787307,2198,0,0_S
1775032466.7902982,1891,0,0_S
1775032466.7943838,1689,0,0_S
1775032466.796654,1861,0,0_S
1775032466.800899,2065,0,0_S
1775032466.803421,2325,0,0_S
1775032466.8057852,2182,0,0_S
1775032466.808349,1803,0,0_S
1775032466.811264,1723,0,0_S
1775032466.814873,2001,0,0_S
1775032466.8185909,2173,0,0_S
1775032466.82113,2190,0,0_S
1775032466.823849,1918,0,0_S
1775032466.826407,1694,0,0_S
1775032466.829269,1863,0,0_S
1775032466.835594,2088,0,0_S
1775032466.8359501,2285,0,0_S
1775032466.838704,2181,0,0_S
1775032466.8422542,1840,0,0_S
1775032466.8449621,1584,0,0_S
1775032466.847507,1883,0,0_S
1775032466.850297,2326,0,0_S
1775032466.856749,2263,0,0_S
1775032466.857336,1958,0,0_S
1775032466.860034,1697,0,0_S
1775032466.863868,1798,0,0_S
1775032466.865466,1951,0,0_S
1775032466.8683589,2325,0,0_S
1775032466.871285,2262,0,0_S
1775032466.877485,1796,0,0_S
1775032466.8789492,1812,0,0_S
1775032466.881661,1910,0,0_S
1775032466.88461,2080,0,0_S
1775032466.887591,2288,0,0_S
1775032466.889332,2010,0,0_S
1775032466.892291,1662,0,0_S
1775032466.895278,1767,0,0_S
1775032466.900652,2047,0,0_S
1775032466.9032362,2196,0,0_S
1775032466.906145,2286,0,0_S
1775032466.909137,1975,0,0_S
1775032466.910485,1667,0,0_S
1775032466.913283,1783,0,0_S
1775032466.916288,2073,0,0_S
1775032466.923156,2384,0,0_S
1775032466.923404,2059,0,0_S
1775032466.925506,1742,0,0_S
1775032466.929211,1703,0,0_S
1775032466.9313102,1865,0,0_S
1775032466.934287,2349,0,0_S
1775032466.937273,2308,0,0_S
1775032466.944719,1894,0,0_S
1775032466.946124,1747,0,0_S
1775032466.946951,1798,0,0_S
1775032466.9507918,2169,0,0_S
1775032466.952542,2135,0,0_S
1775032466.9552681,2082,0,0_S
1775032466.958289,1888,0,0_S
1775032466.9668128,1810,0,0_S
1775032466.968725,1825,0,0_S
1775032466.96914,2099,0,0_S
1775032466.9716532,2506,0,0_S
1775032466.973336,1895,0,0_S
1775032466.976293,1846,0,0_S
1775032466.979261,1681,0,0_S
1775032466.982487,1967,0,0_S
1775032466.985895,2329,0,0_S
1775032466.9898272,2117,0,0_S
1775032466.992228,1845,0,0_S
1775032466.995019,1791,0,0_S
1775032466.997577,1746,0,0_S
1775032467.0003011,2270,0,0_S
1775032467.006013,2243,0,0_S
1775032467.007265,2141,0,0_S
1775032467.010041,1591,0,0_S
1775032467.0139,1799,0,0_S
1775032467.015584,1945,0,0_S
1775032467.018291,2340,0,0_S
1775032467.021274,2240,0,0_S
1775032467.027222,1819,0,0_S
1775032467.027936,1467,0,0_S
1775032467.030875,1904,0,0_S
1775032467.034592,2343,0,0_S
1775032467.036299,2460,0,0_S
1775032467.039294,1793,0,0_S
1775032467.0422668,1805,0,0_S
1775032467.047671,1998,0,0_S
1775032467.049509,1572,0,0_S
1775032467.05155,2240,0,0_S
1775032467.055016,2081,0,0_S
1775032467.0577579,1949,0,0_S
1775032467.060365,1882,0,0_S
1775032467.063298,1773,0,0_S
1775032467.068507,1911,0,0_S
1775032467.070028,2210,0,0_S
1775032467.072955,2079,0,0_S
1775032467.075419,1786,0,0_S
1775032467.0782511,1648,0,0_S
1775032467.08126,1879,0,0_S
1775032467.084286,2187,0,0_S
1775032467.089269,2376,0,0_S
1775032467.0913348,2075,0,0_S
1775032467.093819,1638,0,0_S
1775032467.097347,1924,0,0_S
1775032467.0992901,2073,0,0_S
1775032467.102295,2326,0,0_S
1775032467.1052759,2181,0,0_S
1775032467.1119208,1736,0,0_S
1775032467.113274,1586,0,0_S
1775032467.11485,1869,0,0_S
1775032467.118954,2285,0,0_S
1775032467.120492,2255,0,0_S
1775032467.123289,1973,0,0_S
1775032467.1262589,1751,0,0_S
1775032467.131416,1950,0,0_S
1775032467.1337879,2015,0,0_S
1775032467.13561,2048,0,0_S
1775032467.139266,2125,0,0_S
1775032467.14184,1886,0,0_S
1775032467.144394,1835,0,0_S
1775032467.14727,1878,0,0_S
1775032467.153685,2176,0,0_S
1775032467.154859,2309,0,0_S
1775032467.1564212,1994,0,0_S
1775032467.160325,1884,0,0_S
1775032467.162268,1748,0,0_S
1775032467.1652942,1896,0,0_S
1775032467.1686919,1941,0,0_S
1775032467.175721,2426,0,0_S
1775032467.178483,1983,0,0_S
1775032467.183411,1801,0,0_S
1775032467.185222,1916,0,0_S
1775032467.185288,2166,0,0_S
1775032467.1866298,2361,0,0_S
1775032467.18929,2072,0,0_S
1775032467.196948,1677,0,0_S
1775032467.19784,1785,0,0_S
1775032467.199397,1988,0,0_S
1775032467.2017238,2109,0,0_S
1775032467.2055738,2260,0,0_S
1775032467.207304,1915,0,0_S
1775032467.210279,1756,0,0_S
1775032467.213274,2041,0,0_S
1775032467.219262,2096,0,0_S
1775032467.22144,2344,0,0_S
1775032467.224556,1919,0,0_S
1775032467.2274969,1801,0,0_S
1775032467.229239,1784,0,0_S
1775032467.232096,1966,0,0_S
1775032467.234825,2136,0,0_S
1775032467.2418098,1982,0,0_S
1775032467.243011,1645,0,0_S
1775032467.24642,1693,0,0_S
1775032467.249344,2019,0,0_S
1775032467.249451,2160,0,0_S
1775032467.2523699,2212,0,0_S
1775032467.255279,2146,0,0_S
1775032467.258281,1858,0,0_S
1775032467.262641,1890,0,0_S
1775032467.264626,2004,0,0_S
1775032467.268929,2189,0,0_S
1775032467.270559,2184,0,0_S
1775032467.273462,1799,0,0_S
1775032467.276266,1558,0,0_S
1775032467.2792718,1958,0,0_S
1775032467.2875788,2113,0,0_S
1775032467.287661,2125,0,0_S
1775032467.289363,2022,0,0_S
1775032467.292146,1847,0,0_S
1775032467.2942688,1961,0,0_S
1775032467.297279,1941,0,0_S
1775032467.300277,2296,0,0_S
1775032467.307214,2338,0,0_S
1775032467.307362,1689,0,0_S
1775032467.310137,1737,0,0_S
1775032467.313169,1853,0,0_S
1775032467.315967,2122,0,0_S
1775032467.318511,2256,0,0_S
1775032467.321268,2040,0,0_S
1775032467.325804,1603,0,0_S
1775032467.327938,1803,0,0_S
1775032467.330826,2095,0,0_S
1775032467.333647,2152,0,0_S
1775032467.3363059,2190,0,0_S
1775032467.3394492,1849,0,0_S
1775032467.342294,1842,0,0_S
1775032467.3470101,1954,0,0_S
1775032467.349715,2130,0,0_S
1775032467.353992,2236,0,0_S
1775032467.355496,1931,0,0_S
1775032467.357294,1761,0,0_S
1775032467.360258,1870,0,0_S
1775032467.363279,2036,0,0_S
1775032467.369635,2167,0,0_S
1775032467.371902,2184,0,0_S
1775032467.37595,1906,0,0_S
1775032467.3780181,1703,0,0_S
1775032467.378329,1927,0,0_S
1775032467.381522,2051,0,0_S
1775032467.384307,2285,0,0_S
1775032467.3898969,1922,0,0_S
1775032467.390819,1768,0,0_S
1775032467.393734,1862,0,0_S
1775032467.397552,2127,0,0_S
1775032467.399271,2136,0,0_S
1775032467.402291,2173,0,0_S
1775032467.405271,1861,0,0_S
1775032467.410804,1771,0,0_S
1775032467.413066,2036,0,0_S
1775032467.4150121,1831,0,0_S
1775032467.417383,2164,0,0_S
1775032467.420768,2194,0,0_S
1775032467.423323,1806,0,0_S
1775032467.426253,1790,0,0_S
1775032467.43235,1951,0,0_S
1775032467.432721,2132,0,0_S
1775032467.4373162,2070,0,0_S
1775032467.440473,2055,0,0_S
1775032467.442204,1896,0,0_S
1775032467.4447649,1799,0,0_S
1775032467.4473228,1919,0,0_S
1775032467.454349,2217,0,0_S
1775032467.457943,2142,0,0_S
1775032467.458913,1934,0,0_S
1775032467.461081,1785,0,0_S
1775032467.4628758,2017,0,0_S
1775032467.465853,2148,0,0_S
1775032467.468417,2206,0,0_S
1775032467.471276,1884,0,0_S
1775032467.477103,1742,0,0_S
1775032467.477619,1886,0,0_S
1775032467.480951,2077,0,0_S
1775032467.485124,2123,0,0_S
1775032467.4871502,2107,0,0_S
1775032467.489707,1856,0,0_S
1775032467.492262,1820,0,0_S
1775032467.495262,1974,0,0_S
1775032467.498793,2135,0,0_S
1775032467.502752,2196,0,0_S
1775032467.505995,2010,0,0_S
1775032467.5079198,1676,0,0_S
1775032467.510596,1718,0,0_S
1775032467.513149,2157,0,0_S
1775032467.5161338,2341,0,0_S
1775032467.521833,2197,0,0_S
1775032467.5222,1794,0,0_S
1775032467.526128,1734,0,0_S
1775032467.530119,1890,0,0_S
1775032467.531757,2082,0,0_S
1775032467.53438,2309,0,0_S
1775032467.537144,2078,0,0_S
1775032467.543477,1700,0,0_S
1775032467.544493,1692,0,0_S
1775032467.547646,1959,0,0_S
1775032467.550654,2124,0,0_S
1775032467.552366,2313,0,0_S
1775032467.5551722,2016,0,0_S
1775032467.558146,1783,0,0_S
1775032467.5611908,1856,0,0_S
1775032467.565726,2048,0,0_S
1775032467.567373,2205,0,0_S
1775032467.571473,2113,0,0_S
1775032467.5731862,1793,0,0_S
1775032467.576166,1720,0,0_S
1775032467.5791638,2028,0,0_S
1775032467.5830011,2102,0,0_S
1775032467.585613,2177,0,0_S
1775032467.589025,1956,0,0_S
1775032467.592866,1785,0,0_S
1775032467.5944672,1927,0,0_S
1775032467.597164,2024,0,0_S
1775032467.600825,2236,0,0_S
1775032467.605291,2118,0,0_S
1775032467.607712,1744,0,0_S
1775032467.610124,1744,0,0_S
1775032467.613461,1924,0,0_S
1775032467.615157,2110,0,0_S
1775032467.61816,2294,0,0_S
1775032467.621134,1798,0,0_S
1775032467.625355,1785,0,0_S
1775032467.627581,1979,0,0_S
1775032467.6319182,2063,0,0_S
1775032467.633505,2120,0,0_S
1775032467.6362,2152,0,0_S
1775032467.6391559,1980,0,0_S
1775032467.6421351,1817,0,0_S
1775032467.645942,1893,0,0_S
1775032467.649051,2183,0,0_S
1775032467.652009,2234,0,0_S
1775032467.6551979,1988,0,0_S
1775032467.65774,1613,0,0_S
1775032467.660297,1796,0,0_S
1775032467.666052,1990,0,0_S
1775032467.666359,2109,0,0_S
1775032467.669811,2157,0,0_S
1775032467.6739998,1948,0,0_S
1775032467.675495,1937,0,0_S
1775032467.678184,1875,0,0_S
1775032467.681149,2097,0,0_S
1775032467.686527,2216,0,0_S
1775032467.6874728,2158,0,0_S
1775032467.691201,1744,0,0_S
1775032467.694006,1678,0,0_S
1775032467.696734,2017,0,0_S
1775032467.699177,1939,0,0_S
1775032467.702168,2203,0,0_S
1775032467.7066371,2129,0,0_S
1775032467.708481,1754,0,0_S
1775032467.7113118,1837,0,0_S
1775032467.714201,2091,0,0_S
1775032467.717173,2189,0,0_S
1775032467.720139,2072,0,0_S
1775032467.723139,2166,0,0_S
1775032467.726732,1720,0,0_S
1775032467.7302241,1828,0,0_S
1775032467.732675,2085,0,0_S
1775032467.735797,2221,0,0_S
1775032467.738354,2004,0,0_S
1775032467.741131,1788,0,0_S
1775032467.746999,1901,0,0_S
1775032467.749523,1956,0,0_S
1775032467.7511308,2127,0,0_S
1775032467.753855,2175,0,0_S
1775032467.757087,1858,0,0_S
1775032467.7596421,1724,0,0_S
1775032467.762183,2002,0,0_S
1775032467.7677782,2136,0,0_S
1775032467.768165,2242,0,0_S
1775032467.7719512,2005,0,0_S
1775032467.774328,1780,0,0_S
1775032467.777418,1787,0,0_S
1775032467.780116,1945,0,0_S
1775032467.783126,2133,0,0_S
1775032467.787649,2153,0,0_S
1775032467.7899468,1958,0,0_S
1775032467.792209,1874,0,0_S
1775032467.795637,1878,0,0_S
1775032467.798465,2009,0,0_S
1775032467.801173,2187,0,0_S
1775032467.804163,2202,0,0_S
1775032467.8085802,1854,0,0_S
1775032467.810652,1784,0,0_S
1775032467.814507,1905,0,0_S
1775032467.816287,2111,0,0_S
1775032467.81915,2213,0,0_S
1775032467.8221672,1811,0,0_S
1775032467.8251479,1828,0,0_S
1775032467.828671,1857,0,0_S
1775032467.8325179,1988,0,0_S
1775032467.8365388,2196,0,0_S
1775032467.837961,2161,0,0_S
1775032467.840513,1866,0,0_S
1775032467.843157,1790,0,0_S
1775032467.849898,1986,0,0_S
1775032467.851211,2131,0,0_S
1775032467.852663,2236,0,0_S
1775032467.856687,2014,0,0_S
1775032467.8581781,1757,0,0_S
1775032467.861154,1891,0,0_S
1775032467.8641798,1989,0,0_S
1775032467.86911,2189,0,0_S
1775032467.8710809,2226,0,0_S
1775032467.873617,1876,0,0_S
1775032467.876449,1701,0,0_S
1775032467.879154,1955,0,0_S
1775032467.882119,2002,0,0_S
1775032467.8851252,2279,0,0_S
1775032467.889853,2101,0,0_S
1775032467.892782,1778,0,0_S
1775032467.897074,1628,0,0_S
1775032467.897217,2188,0,0_S
1775032467.900154,2229,0,0_S
1775032467.9030862,2222,0,0_S
1775032467.906039,1978,0,0_S
1775032467.910382,1750,0,0_S
1775032467.913871,1982,0,0_S
1775032467.915508,2017,0,0_S
1775032467.9183722,2309,0,0_S
1775032467.921061,2030,0,0_S
1775032467.924017,1723,0,0_S
1775032467.927027,1773,0,0_S
1775032467.931852,1974,0,0_S
1775032467.933235,2142,0,0_S
1775032467.937353,2172,0,0_S
1775032467.93906,1951,0,0_S
1775032467.942015,1711,0,0_S
1775032467.9449909,1855,0,0_S
1775032467.94801,2000,0,0_S
1775032467.951838,2296,0,0_S
1775032467.9545379,2047,0,0_S
1775032467.958625,1929,0,0_S
1775032467.9601028,1835,0,0_S
1775032467.9630442,1964,0,0_S
1775032467.966021,2060,0,0_S
1775032467.972228,2248,0,0_S
1775032467.972631,2004,0,0_S
1775032467.9762702,1775,0,0_S
1775032467.9784262,1813,0,0_S
1775032467.9815092,2001,0,0_S
1775032467.984072,2194,0,0_S
1775032467.987676,2174,0,0_S
1775032467.993361,1789,0,0_S
1775032467.9938078,1870,0,0_S
1775032467.9967098,1959,0,0_S
1775032468.000851,1913,0,0_S
1775032468.0024278,2156,0,0_S
1775032468.005027,2080,0,0_S
1775032468.0080361,1897,0,0_S
1775032468.013652,1772,0,0_S
1775032468.0142531,1958,0,0_S
1775032468.0213041,2207,0,0_S
1775032468.0214348,2232,0,0_S
1775032468.023079,1933,0,0_S
1775032468.0260081,1832,0,0_S
1775032468.029001,1965,0,0_S
1775032468.034183,1979,0,0_S
1775032468.0363688,2137,0,0_S
1775032468.0382211,2053,0,0_S
1775032468.042054,1873,0,0_S
1775032468.044043,1799,0,0_S
1775032468.047008,1961,0,0_S
1775032468.050006,2173,0,0_S
1775032468.055138,2173,0,0_S
1775032468.056903,1939,0,0_S
1775032468.060687,1730,0,0_S
1775032468.0624042,1879,0,0_S
1775032468.065152,2101,0,0_S
1775032468.068002,2161,0,0_S
1775032468.071006,2135,0,0_S
1775032468.0749068,1893,0,0_S
1775032468.077068,1688,0,0_S
1775032468.0810628,1877,0,0_S
1775032468.08301,2163,0,0_S
1775032468.0860338,2262,0,0_S
1775032468.0890071,2011,0,0_S
1775032468.092038,1786,0,0_S
1775032468.097683,1829,0,0_S
1775032468.0989609,1962,0,0_S
1775032468.102179,2164,0,0_S
1775032468.104987,2191,0,0_S
1775032468.1076741,1885,0,0_S
1775032468.110216,1753,0,0_S
1775032468.113012,1904,0,0_S
1775032468.118594,2007,0,0_S
1775032468.11928,2233,0,0_S
1775032468.122594,2135,0,0_S
1775032468.126642,1823,0,0_S
1775032468.128326,1819,0,0_S
1775032468.1309881,1934,0,0_S
1775032468.134036,2160,0,0_S
1775032468.139112,2167,0,0_S
1775032468.141173,1921,0,0_S
1775032468.143185,1788,0,0_S
1775032468.1469388,1904,0,0_S
1775032468.149686,2014,0,0_S
1775032468.152236,2246,0,0_S
1775032468.155018,2106,0,0_S
1775032468.1589189,1837,0,0_S
1775032468.16113,1802,0,0_S
1775032468.1640608,1888,0,0_S
1775032468.170152,2177,0,0_S
1775032468.170181,2180,0,0_S
1775032468.1736739,1911,0,0_S
1775032468.176026,1776,0,0_S
1775032468.180467,1928,0,0_S
1775032468.182154,2064,0,0_S
1775032468.186145,2227,0,0_S
1775032468.18808,2069,0,0_S
1775032468.191027,1896,0,0_S
1775032468.194005,1844,0,0_S
1775032468.200025,1846,0,0_S
1775032468.200089,2031,0,0_S
1775032468.20385,2186,0,0_S
1775032468.2079701,2001,0,0_S
1775032468.2095308,1702,0,0_S
1775032468.212088,1934,0,0_S
1775032468.215033,1978,0,0_S
1775032468.221122,2215,0,0_S
1775032468.221483,2152,0,0_S
1775032468.224172,1854,0,0_S
1775032468.228085,1754,0,0_S
1775032468.23002,1998,0,0_S
1775032468.232995,2142,0,0_S
1775032468.236032,2171,0,0_S
1775032468.2406971,2033,0,0_S
1775032468.2427368,1836,0,0_S
1775032468.246707,1758,0,0_S
1775032468.249897,1912,0,0_S
1775032468.251195,2200,0,0_S
1775032468.25399,2166,0,0_S
1775032468.2570372,2014,0,0_S
1775032468.260982,1763,0,0_S
1775032468.264232,1821,0,0_S
1775032468.2669828,2083,0,0_S
1775032468.26998,2297,0,0_S
1775032468.272542,2026,0,0_S
1775032468.2750988,1843,0,0_S
1775032468.280725,1784,0,0_S
1775032468.281085,1883,0,0_S
1775032468.2843142,2147,0,0_S
1775032468.288419,2227,0,0_S
1775032468.290015,1983,0,0_S
1775032468.293082,1768,0,0_S
1775032468.296028,1934,0,0_S
1775032468.3018072,2070,0,0_S
1775032468.3026931,2202,0,0_S
1775032468.305921,2115,0,0_S
1775032468.3081589,1893,0,0_S
1775032468.3112378,1743,0,0_S
1775032468.314045,1854,0,0_S
1775032468.317027,2152,0,0_S
1775032468.321611,2220,0,0_S
1775032468.3239071,1969,0,0_S
1775032468.3281322,1819,0,0_S
1775032468.329726,1870,0,0_S
1775032468.3324249,1926,0,0_S
1775032468.334982,2247,0,0_S
1775032468.337898,2178,0,0_S
1775032468.3423328,1812,0,0_S
1775032468.344251,1742,0,0_S
1775032468.349807,1965,0,0_S
1775032468.349914,2119,0,0_S
1775032468.3529081,2207,0,0_S
1775032468.355906,2101,0,0_S
1775032468.35888,1874,0,0_S
1775032468.36263,1826,0,0_S
1775032468.365709,1935,0,0_S
1775032468.369761,2213,0,0_S
1775032468.3713322,2187,0,0_S
1775032468.373924,1828,0,0_S
1775032468.376909,1720,0,0_S
1775032468.382516,1878,0,0_S
1775032468.382886,2035,0,0_S
1775032468.38642,2301,0,0_S
1775032468.388915,2035,0,0_S
1775032468.3919501,1773,0,0_S
1775032468.394869,1847,0,0_S
1775032468.3979058,1912,0,0_S
1775032468.403061,2178,0,0_S
1775032468.4050229,2285,0,0_S
1775032468.40734,1853,0,0_S
1775032468.4107258,1682,0,0_S
1775032468.41342,1889,0,0_S
1775032468.415979,2105,0,0_S
1775032468.4189,2277,0,0_S
1775032468.422703,2140,0,0_S
1775032468.42644,1834,0,0_S
1775032468.429141,1721,0,0_S
1775032468.430994,2000,0,0_S
1775032468.433872,2056,0,0_S
1775032468.436872,2176,0,0_S
1775032468.439874,2036,0,0_S
1775032468.443146,1715,0,0_S
1775032468.446378,1910,0,0_S
1775032468.450458,2027,0,0_S
1775032468.451974,2180,0,0_S
1775032468.454877,2173,0,0_S
1775032468.457875,1775,0,0_S
1775032468.463396,1843,0,0_S
1775032468.464691,1910,0,0_S
1775032468.467456,2162,0,0_S
1775032468.471565,2266,0,0_S
1775032468.473258,1881,0,0_S
1775032468.475899,1725,0,0_S
1775032468.478903,1803,0,0_S
1775032468.485051,1937,0,0_S
1775032468.4856598,2333,0,0_S
1775032468.488209,2203,0,0_S
1775032468.492502,1824,0,0_S
1775032468.494093,1697,0,0_S
1775032468.4968991,1857,0,0_S
1775032468.49987,2152,0,0_S
1775032468.505645,2337,0,0_S
1775032468.506025,2026,0,0_S
1775032468.5093591,1775,0,0_S
1775032468.512935,1867,0,0_S
1775032468.5154922,1851,0,0_S
1775032468.518052,2262,0,0_S
1775032468.5209012,2117,0,0_S
1775032468.525009,1947,0,0_S
1775032468.527263,1814,0,0_S
1775032468.530299,1787,0,0_S
1775032468.5329962,2027,0,0_S
1775032468.535902,2245,0,0_S
1775032468.53887,2169,0,0_S
1775032468.541873,1807,0,0_S
1775032468.545465,1821,0,0_S
1775032468.5488,1788,0,0_S
1775032468.552958,2270,0,0_S
1775032468.554589,2290,0,0_S
1775032468.557141,1922,0,0_S
1775032468.559916,1748,0,0_S
1775032468.5660028,1869,0,0_S
1775032468.566632,1962,0,0_S
1775032468.5699358,2244,0,0_S
1775032468.572433,2175,0,0_S
1775032468.575506,1862,0,0_S
1775032468.578051,1815,0,0_S
1775032468.580895,1782,0,0_S
1775032468.586132,2201,0,0_S
1775032468.5879848,2424,0,0_S
1775032468.590038,1990,0,0_S
1775032468.593485,1685,0,0_S
1775032468.596237,1809,0,0_S
1775032468.5988631,1846,0,0_S
1775032468.6019049,2280,0,0_S
1775032468.606886,2312,0,0_S
1775032468.641547,1914,0,0_S
1775032468.64188,1798,0,0_S
1775032468.641927,1861,0,0_S
1775032468.6420941,1920,0,0_S
1775032468.642269,2375,0,0_S
1775032468.6423428,2183,0,0_S
1775032468.642406,1681,0,0_S
1775032468.642457,1689,0,0_S
1775032468.642517,1767,0,0_S
1775032468.642566,2243,0,0_S
1775032468.642619,2315,0,0_S
1775032468.642668,1941,0,0_S
1775032468.644008,1680,0,0_S
1775032468.656107,1909,0,0_S
1775032468.6562,2079,0,0_S
1775032468.656343,2240,0,0_S
1775032468.6564429,2159,0,0_S
1775032468.659032,1763,0,0_S
1775032468.661897,1686,0,0_S
1775032468.6648908,1736,0,0_S
1775032468.669643,2405,0,0_S
1775032468.671731,2259,0,0_S
1775032468.674567,1954,0,0_S
1775032468.677515,1759,0,0_S
1775032468.679897,1853,0,0_S
1775032468.682875,1986,0,0_S
1775032468.685895,2239,0,0_S
1775032468.6910028,2068,0,0_S
1775032468.692747,1775,0,0_S
1775032468.696873,1691,0,0_S
1775032468.6985312,1868,0,0_S
1775032468.7010791,2163,0,0_S
1775032468.703968,2307,0,0_S
1775032468.706895,2027,0,0_S
1775032468.71123,1727,0,0_S
1775032468.713268,1915,0,0_S
1775032468.716334,1940,0,0_S
1775032468.7189171,2134,0,0_S
1775032468.7219021,2267,0,0_S
1775032468.724877,1848,0,0_S
1775032468.727865,1759,0,0_S
1775032468.731025,1888,0,0_S
1775032468.734987,2162,0,0_S
1775032468.7374332,2329,0,0_S
1775032468.740492,2088,0,0_S
1775032468.743055,1744,0,0_S
1775032468.7459,1767,0,0_S
1775032468.7516868,1834,0,0_S
1775032468.752022,2208,0,0_S
1775032468.7554922,2170,0,0_S
1775032468.7595038,1862,0,0_S
1775032468.761127,1636,0,0_S
1775032468.7638028,1977,0,0_S
1775032468.766774,2134,0,0_S
1775032468.772558,2448,0,0_S
1775032468.773581,2052,0,0_S
1775032468.776059,1767,0,0_S
1775032468.7801468,1740,0,0_S
1775032468.781767,1905,0,0_S
1775032468.784779,2233,0,0_S
1775032468.788525,2099,0,0_S
1775032468.792541,1860,0,0_S
1775032468.7945018,1728,0,0_S
1775032468.7986639,1726,0,0_S
1775032468.800339,2126,0,0_S
1775032468.802994,2377,0,0_S
1775032468.8057501,2033,0,0_S
1775032468.808794,1690,0,0_S
1775032468.8131719,1739,0,0_S
1775032468.816021,1913,0,0_S
1775032468.817861,2242,0,0_S
1775032468.822036,2245,0,0_S
1775032468.82378,1826,0,0_S
1775032468.826776,1837,0,0_S
1775032468.833025,1828,0,0_S
1775032468.833128,1951,0,0_S
1775032468.836789,2353,0,0_S
1775032468.840747,2127,0,0_S
1775032468.8422348,1844,0,0_S
1775032468.844779,1517,0,0_S
1775032468.847765,1982,0,0_S
1775032468.8538618,2255,0,0_S
1775032468.85426,2288,0,0_S
1775032468.857004,1889,0,0_S
1775032468.8610299,1686,0,0_S
1775032468.8627598,1759,0,0_S
1775032468.8657339,2014,0,0_S
1775032468.868779,2435,0,0_S
1775032468.873586,1975,0,0_S
1775032468.875252,1908,0,0_S
1775032468.879364,1675,0,0_S
1775032468.881073,1971,0,0_S
1775032468.8837702,2230,0,0_S
1775032468.886755,2145,0,0_S
1775032468.893961,1980,0,0_S
1775032468.894593,1666,0,0_S
1775032468.897057,1957,0,0_S
1775032468.898904,2057,0,0_S
1775032468.901876,2268,0,0_S
1775032468.904735,1937,0,0_S
1775032468.9077702,1968,0,0_S
1775032468.9134479,1781,0,0_S
1775032468.914131,1958,0,0_S
1775032468.9177768,2050,0,0_S
1775032468.919905,2266,0,0_S
1775032468.9229739,1986,0,0_S
1775032468.925737,1724,0,0_S
1775032468.9287739,1775,0,0_S
1775032468.9351108,1981,0,0_S
1775032468.935222,2192,0,0_S
1775032468.940897,2280,0,0_S
1775032468.9442828,1870,0,0_S
1775032468.944354,1700,0,0_S
1775032468.946979,1751,0,0_S
1775032468.9497669,2074,0,0_S
1775032468.958101,2357,0,0_S
1775032468.9597619,2151,0,0_S
1775032468.9605162,1718,0,0_S
1775032468.963192,1741,0,0_S
1775032468.966818,1919,0,0_S
1775032468.968296,2240,0,0_S
1775032468.970987,2247,0,0_S
1775032468.9737659,1895,0,0_S
1775032468.979964,1755,0,0_S
1775032468.98227,1840,0,0_S
1775032468.984892,1965,0,0_S
1775032468.987851,2240,0,0_S
1775032468.989739,2140,0,0_S
1775032468.992309,1944,0,0_S
1775032468.994905,1756,0,0_S
1775032469.001534,1909,0,0_S
1775032469.002653,2174,0,0_S
1775032469.0056388,2157,0,0_S
1775032469.008159,2092,0,0_S
1775032469.0100071,1907,0,0_S
1775032469.012874,1644,0,0_S
1775032469.0157728,1781,0,0_S
1775032469.018741,2240,0,0_S
1775032469.02416,2189,0,0_S
1775032469.025568,1746,0,0_S
1775032469.0285282,1943,0,0_S
1775032469.03124,1746,0,0_S
1775032469.033817,1897,0,0_S
1775032469.036761,2446,0,0_S
1775032469.0397708,2279,0,0_S
1775032469.04444,1748,0,0_S
1775032469.046271,1661,0,0_S
1775032469.050328,1530,0,0_S
1775032469.052171,2543,0,0_S
1775032469.054875,2375,0,0_S
1775032469.057773,1862,0,0_S
1775032469.060736,1641,0,0_S
1775032469.064948,1917,0,0_S
1775032469.0670872,2095,0,0_S
1775032469.072681,2397,0,0_S
1775032469.072799,2080,0,0_S
1775032469.075763,1641,0,0_S
1775032469.07875,1712,0,0_S
1775032469.082431,2096,0,0_S
1775032469.086638,2273,0,0_S
1775032469.088177,2088,0,0_S
1775032469.0912929,1919,0,0_S
1775032469.094096,1878,0,0_S
1775032469.096936,1896,0,0_S
1775032469.09978,1988,0,0_S
1775032469.1034539,2396,0,0_S
1775032469.107001,1993,0,0_S
1775032469.1088781,1654,0,0_S
1775032469.1130722,1794,0,0_S
1775032469.1148229,1955,0,0_S
1775032469.117762,2190,0,0_S
1775032469.1207428,2290,0,0_S
1775032469.123762,1858,0,0_S
1775032469.128454,1590,0,0_S
1775032469.131136,1755,0,0_S
1775032469.133882,2068,0,0_S
1775032469.135745,2368,0,0_S
1775032469.13874,2152,0,0_S
1775032469.1417558,1862,0,0_S
1775032469.144855,1834,0,0_S
1775032469.149081,2024,0,0_S
1775032469.1518898,2075,0,0_S
1775032469.1561038,2199,0,0_S
1775032469.157696,1995,0,0_S
1775032469.160255,1688,0,0_S
1775032469.162816,1803,0,0_S
1775032469.1657522,2143,0,0_S
1775032469.1713438,1944,0,0_S
1775032469.172283,2060,0,0_S
1775032469.175585,1999,0,0_S
1775032469.179147,1909,0,0_S
1775032469.1807702,1932,0,0_S
1775032469.183738,2088,0,0_S
1775032469.186752,2148,0,0_S
1775032469.192663,1889,0,0_S
1775032469.192848,1786,0,0_S
1775032469.196596,1832,0,0_S
1775032469.2005062,2083,0,0_S
1775032469.202291,2361,0,0_S
1775032469.204986,2195,0,0_S
1775032469.207757,1841,0,0_S
1775032469.213996,1737,0,0_S
1775032469.215401,1957,0,0_S
1775032469.218372,1992,0,0_S
1775032469.221081,2175,0,0_S
1775032469.2230558,1964,0,0_S
1775032469.22595,1865,0,0_S
1775032469.228748,1766,0,0_S
1775032469.2317388,1898,0,0_S
1775032469.2362309,2276,0,0_S
1775032469.239912,2212,0,0_S
1775032469.241718,2005,0,0_S
1775032469.2446988,1757,0,0_S
1775032469.2467258,2025,0,0_S
1775032469.2496629,1961,0,0_S
1775032469.252645,2246,0,0_S
1775032469.2590878,2096,0,0_S
1775032469.260902,1796,0,0_S
1775032469.263238,1767,0,0_S
1775032469.265561,1920,0,0_S
1775032469.267833,2245,0,0_S
1775032469.2706392,2217,0,0_S
1775032469.2736268,1889,0,0_S
1775032469.276624,1685,0,0_S
1775032469.282718,1780,0,0_S
1775032469.285674,2008,0,0_S
1775032469.2860649,2382,0,0_S
1775032469.289272,2102,0,0_S
1775032469.2922082,1791,0,0_S
1775032469.29487,1796,0,0_S
1775032469.297628,1915,0,0_S
1775032469.303514,2214,0,0_S
1775032469.3049228,2297,0,0_S
1775032469.308119,2056,0,0_S
1775032469.311234,1696,0,0_S
1775032469.312955,1834,0,0_S
1775032469.315634,1972,0,0_S
1775032469.3186328,2324,0,0_S
1775032469.324592,2188,0,0_S
1775032469.326723,1844,0,0_S
1775032469.329228,1721,0,0_S
1775032469.3329659,1816,0,0_S
1775032469.334816,2098,0,0_S
1775032469.3366358,2278,0,0_S
1775032469.339626,1948,0,0_S
1775032469.342747,1730,0,0_S
1775032469.347229,1938,0,0_S
1775032469.3509629,1963,0,0_S
1775032469.3529768,2234,0,0_S
1775032469.3547552,2205,0,0_S
1775032469.357784,1903,0,0_S
1775032469.360627,1727,0,0_S
1775032469.363606,1892,0,0_S
1775032469.368791,2073,0,0_S
1775032469.3701608,2263,0,0_S
1775032469.373395,1981,0,0_S
1775032469.376045,1751,0,0_S
1775032469.378808,1884,0,0_S
1775032469.381624,1994,0,0_S
1775032469.384655,2238,0,0_S
1775032469.389159,2179,0,0_S
1775032469.390668,1870,0,0_S
1775032469.396181,1687,0,0_S
1775032469.397547,1906,0,0_S
1775032469.399641,2084,0,0_S
1775032469.4026098,2188,0,0_S
1775032469.4085891,2047,0,0_S
1775032469.4088929,1832,0,0_S
1775032469.4129438,1837,0,0_S
1775032469.4151092,1941,0,0_S
1775032469.4182138,2232,0,0_S
1775032469.420765,2223,0,0_S
1775032469.423637,1917,0,0_S
1775032469.42912,1739,0,0_S
1775032469.429825,1898,0,0_S
1775032469.432854,1991,0,0_S
1775032469.437033,2289,0,0_S
1775032469.438635,2164,0,0_S
1775032469.441638,1845,0,0_S
1775032469.444639,1712,0,0_S
1775032469.449067,1916,0,0_S
1775032469.450988,2166,0,0_S
1775032469.453857,2190,0,0_S
1775032469.456792,1955,0,0_S
1775032469.459605,1707,0,0_S
1775032469.462601,1839,0,0_S
1775032469.465596,1991,0,0_S
1775032469.470211,2335,0,0_S
1775032469.4721122,2123,0,0_S
1775032469.476319,1817,0,0_S
1775032469.478008,1744,0,0_S
1775032469.480721,1966,0,0_S
1775032469.4836428,2085,0,0_S
1775032469.486642,2277,0,0_S
1775032469.4906921,2101,0,0_S
1775032469.4928021,1833,0,0_S
1775032469.495866,1789,0,0_S
1775032469.498726,1901,0,0_S
1775032469.501641,2172,0,0_S
1775032469.504611,2267,0,0_S
1775032469.507631,1925,0,0_S
1775032469.512353,1682,0,0_S
1775032469.513797,1819,0,0_S
1775032469.5200582,1788,0,0_S
1775032469.520162,2136,0,0_S
1775032469.523015,2393,0,0_S
1775032469.5256379,1880,0,0_S
1775032469.528639,1677,0,0_S
1775032469.53285,1789,0,0_S
1775032469.535064,2239,0,0_S
1775032469.5382102,2423,0,0_S
1775032469.5409548,1983,0,0_S
1775032469.5439968,1684,0,0_S
1775032469.5466611,1847,0,0_S
1775032469.549639,1961,0,0_S
1775032469.5547059,2149,0,0_S
1775032469.556072,2059,0,0_S
1775032469.5600681,1889,0,0_S
1775032469.56185,1775,0,0_S
1775032469.564639,1942,0,0_S
1775032469.56765,2090,0,0_S
1775032469.5707378,2210,0,0_S
1775032469.574455,2055,0,0_S
1775032469.577467,1890,0,0_S
1775032469.581661,1748,0,0_S
1775032469.5833962,2009,0,0_S
1775032469.58594,2287,0,0_S
1775032469.588633,2188,0,0_S
1775032469.594398,1778,0,0_S
1775032469.595008,1683,0,0_S
1775032469.598148,1801,0,0_S
1775032469.602153,2150,0,0_S
1775032469.603731,2363,0,0_S
1775032469.606627,2044,0,0_S
1775032469.609633,1712,0,0_S
1775032469.6142871,1803,0,0_S
1775032469.616401,2014,0,0_S
1775032469.62054,2170,0,0_S
1775032469.622282,2259,0,0_S
1775032469.6249542,2018,0,0_S
1775032469.628994,1623,0,0_S
1775032469.630628,1925,0,0_S
1775032469.633641,2075,0,0_S
1775032469.638685,2306,0,0_S
1775032469.640126,1999,0,0_S
1775032469.643945,1738,0,0_S
1775032469.645636,1783,0,0_S
1775032469.64859,1980,0,0_S
1775032469.652182,2165,0,0_S
1775032469.654826,2232,0,0_S
1775032469.6580229,1944,0,0_S
1775032469.662005,1669,0,0_S
1775032469.6641622,1898,0,0_S
1775032469.667331,1968,0,0_S
1775032469.669888,2348,0,0_S
1775032469.672642,2192,0,0_S
1775032469.67825,1830,0,0_S
1775032469.678878,1691,0,0_S
1775032469.681888,1761,0,0_S
1775032469.684648,2124,0,0_S
1775032469.687718,2284,0,0_S
1775032469.690609,2216,0,0_S
1775032469.693635,1797,0,0_S
1775032469.6987,1712,0,0_S
1775032469.70046,1890,0,0_S
1775032469.70456,2246,0,0_S
1775032469.706229,2132,0,0_S
1775032469.708979,1820,0,0_S
1775032469.711589,1816,0,0_S
1775032469.7151759,1800,0,0_S
1775032469.720732,2069,0,0_S
1775032469.720911,2375,0,0_S
1775032469.7236748,1961,0,0_S
1775032469.7278578,1740,0,0_S
1775032469.729603,1873,0,0_S
1775032469.7326038,1941,0,0_S
1775032469.735608,2444,0,0_S
1775032469.739346,2192,0,0_S
1775032469.742006,1853,0,0_S
1775032469.745923,1693,0,0_S
1775032469.747481,1721,0,0_S
1775032469.7504818,2048,0,0_S
1775032469.753477,2271,0,0_S
1775032469.759326,2064,0,0_S
1775032469.759715,1848,0,0_S
1775032469.7634702,1860,0,0_S
1775032469.765527,1782,0,0_S
1775032469.7687428,2218,0,0_S
1775032469.771602,2346,0,0_S
1775032469.7744799,1950,0,0_S
1775032469.779799,1749,0,0_S
1775032469.781984,1867,0,0_S
1775032469.7840362,2016,0,0_S
1775032469.7879171,2276,0,0_S
1775032469.789608,2135,0,0_S
1775032469.792515,1818,0,0_S
1775032469.79552,1771,0,0_S
1775032469.8013,1853,0,0_S
1775032469.801719,2191,0,0_S
1775032469.805182,2223,0,0_S
1775032469.8076391,2002,0,0_S
1775032469.810872,1770,0,0_S
1775032469.8135412,1574,0,0_S
1775032469.816478,1883,0,0_S
1775032469.828002,2415,0,0_S
1775032469.828394,2396,0,0_S
1775032469.829568,1957,0,0_S
1775032469.829687,1708,0,0_S
1775032469.8329868,1736,0,0_S
1775032469.834483,2205,0,0_S
1775032469.837476,2342,0,0_S
1775032469.840482,1949,0,0_S
1775032469.854671,1695,0,0_S
1775032469.8547049,1730,0,0_S
1775032469.854728,1771,0,0_S
1775032469.854748,2310,0,0_S
1775032469.85691,2360,0,0_S
1775032469.861993,1881,0,0_S
1775032469.86216,1729,0,0_S
1775032469.8646731,1755,0,0_S
1775032469.871823,2113,0,0_S
1775032469.876039,2346,0,0_S
1775032469.878464,2182,0,0_S
1775032469.878637,1728,0,0_S
1775032469.880426,1707,0,0_S
1775032469.883036,1839,0,0_S
1775032469.885599,2343,0,0_S
1775032469.888698,2398,0,0_S
1775032469.8964338,1983,0,0_S
1775032469.898939,1620,0,0_S
1775032469.9008598,1729,0,0_S
1775032469.902687,2030,0,0_S
1775032469.903991,2314,0,0_S
1775032469.906538,2142,0,0_S
1775032469.9095051,1791,0,0_S
1775032469.9145029,1689,0,0_S
1775032469.916221,1840,0,0_S
1775032469.920238,2213,0,0_S
1775032469.922066,2481,0,0_S
1775032469.9248588,2146,0,0_S
1775032469.927586,1627,0,0_S
1775032469.930505,1729,0,0_S
1775032469.9344141,1924,0,0_S
1775032469.936495,2332,0,0_S
1775032469.9421859,2328,0,0_S
1775032469.942545,1737,0,0_S
1775032469.9455092,1619,0,0_S
1775032469.948493,1786,0,0_S
1775032469.951472,2171,0,0_S
1775032469.9550872,2395,0,0_S
1775032469.9587991,2026,0,0_S
1775032469.9631202,1723,0,0_S
1775032469.9635358,1827,0,0_S
1775032469.966509,1993,0,0_S
1775032469.969506,2300,0,0_S
1775032469.975863,2159,0,0_S
1775032469.9762309,1851,0,0_S
1775032469.9796102,1813,0,0_S
1775032469.982047,1694,0,0_S
1775032469.985295,2168,0,0_S
1775032469.987839,2374,0,0_S
1775032469.9905002,2120,0,0_S
1775032469.9963121,1740,0,0_S
1775032469.99669,1675,0,0_S
1775032470.0000691,1708,0,0_S
1775032470.0042639,2368,0,0_S
1775032470.0058901,2379,0,0_S
1775032470.008508,1932,0,0_S
1775032470.0115001,1694,0,0_S
1775032470.020541,1668,0,0_S
1775032470.020885,2021,0,0_S
1775032470.021298,2355,0,0_S
1775032470.026342,2171,0,0_S
1775032470.02662,1879,0,0_S
1775032470.0294662,1716,0,0_S
1775032470.032466,1717,0,0_S
1775032470.035481,2295,0,0_S
1775032470.040676,2428,0,0_S
1775032470.042242,1860,0,0_S
1775032470.0450969,1642,0,0_S
1775032470.0487309,1716,0,0_S
1775032470.050538,1859,0,0_S
1775032470.05351,2426,0,0_S
1775032470.0565069,2248,0,0_S
1775032470.0621738,1805,0,0_S
1775032470.063148,1731,0,0_S
1775032470.065856,1751,0,0_S
1775032470.070281,2231,0,0_S
1775032470.071892,2430,0,0_S
1775032470.0745,2241,0,0_S
1775032470.077505,1663,0,0_S
1775032470.082453,1723,0,0_S
1775032470.084594,1775,0,0_S
1775032470.086634,2316,0,0_S
1775032470.090388,2281,0,0_S
1775032470.093029,1947,0,0_S
1775032470.0955892,1607,0,0_S
1775032470.098506,1627,0,0_S
1775032470.1025121,2218,0,0_S
1775032470.104557,2467,0,0_S
1775032470.1086311,2182,0,0_S
1775032470.110522,1632,0,0_S
1775032470.1134899,1721,0,0_S
1775032470.1164658,1840,0,0_S
1775032470.1195688,2336,0,0_S
1775032470.123109,2310,0,0_S
1775032470.1261,1950,0,0_S
1775032470.13024,1696,0,0_S
1775032470.131779,1620,0,0_S
1775032470.134531,2065,0,0_S
1775032470.1374972,2442,0,0_S
1775032470.143144,2187,0,0_S
1775032470.14352,1772,0,0_S
1775032470.146608,1729,0,0_S
1775032470.150825,1745,0,0_S
1775032470.152506,2313,0,0_S
1775032470.155506,2445,0,0_S
1775032470.158475,1946,0,0_S
1775032470.163157,1662,0,0_S
1775032470.165055,1709,0,0_S
1775032470.170677,2003,0,0_S
1775032470.171007,2389,0,0_S
1775032470.1736262,2241,0,0_S
1775032470.17648,1777,0,0_S
1775032470.1794581,1658,0,0_S
1775032470.184085,1717,0,0_S
1775032470.185736,2235,0,0_S
1775032470.1886652,2436,0,0_S
1775032470.191513,2070,0,0_S
1775032470.194505,1666,0,0_S
1775032470.197503,1668,0,0_S
1775032470.200469,1944,0,0_S
1775032470.205638,2343,0,0_S
1775032470.207029,2274,0,0_S
1775032470.211231,1873,0,0_S
1775032470.21262,1649,0,0_S
1775032470.2154949,1667,0,0_S
1775032470.218476,2178,0,0_S
1775032470.224205,2398,0,0_S
1775032470.225075,2098,0,0_S
1775032470.227699,1648,0,0_S
1775032470.2317572,1766,0,0_S
1775032470.233525,1922,0,0_S
1775032470.23651,2354,0,0_S
1775032470.240157,2332,0,0_S
1775032470.244315,1916,0,0_S
1775032470.2462878,1636,0,0_S
1775032470.250348,1709,0,0_S
1775032470.252125,2165,0,0_S
1775032470.25488,2434,0,0_S
1775032470.257615,2161,0,0_S
1775032470.2604978,1670,0,0_S
1775032470.264454,1803,0,0_S
1775032470.266846,1791,0,0_S
1775032470.270608,2192,0,0_S
1775032470.27247,2491,0,0_S
1775032470.275496,1953,0,0_S
1775032470.278471,1632,0,0_S
1775032470.281585,1569,0,0_S
1775032470.284915,2106,0,0_S
1775032470.288425,2366,0,0_S
1775032470.291009,2129,0,0_S
1775032470.294122,1880,0,0_S
1775032470.2968278,1657,0,0_S
1775032470.299504,1739,0,0_S
1775032470.305303,2389,0,0_S
1775032470.3056939,2335,0,0_S
1775032470.308609,2055,0,0_S
1775032470.312842,1708,0,0_S
1775032470.314503,1716,0,0_S
1775032470.3181949,1935,0,0_S
1775032470.320744,2284,0,0_S
1775032470.325669,2314,0,0_S
1775032470.327944,1807,0,0_S
1775032470.329699,1679,0,0_S
1775032470.3337312,1693,0,0_S
1775032470.335511,2292,0,0_S
1775032470.3384929,2373,0,0_S
1775032470.3414788,2107,0,0_S
1775032470.346434,1754,0,0_S
1775032470.3480902,1674,0,0_S
1775032470.3510342,1839,0,0_S
1775032470.3536892,2412,0,0_S
1775032470.356512,2393,0,0_S
1775032470.3594618,1893,0,0_S
1775032470.3624861,1503,0,0_S
1775032470.366198,1717,0,0_S
1775032470.3693209,2091,0,0_S
1775032470.373739,2436,0,0_S
1775032470.3753479,2199,0,0_S
1775032470.377897,1734,0,0_S
1775032470.380508,1742,0,0_S
1775032470.386673,1891,0,0_S
1775032470.387091,2201,0,0_S
1775032470.390461,2366,0,0_S
1775032470.394593,1952,0,0_S
1775032470.3961291,1587,0,0_S
1775032470.398677,1638,0,0_S
1775032470.4013581,2106,0,0_S
1775032470.4073899,2471,0,0_S
1775032470.40834,2009,0,0_S
1775032470.410796,1629,0,0_S
1775032470.414957,1775,0,0_S
1775032470.4166028,1947,0,0_S
1775032470.419372,2336,0,0_S
1775032470.4223812,2363,0,0_S
1775032470.427338,1981,0,0_S
1775032470.42895,1690,0,0_S
1775032470.431917,1719,0,0_S
1775032470.4347038,1895,0,0_S
1775032470.437382,2443,0,0_S
1775032470.440361,2287,0,0_S
1775032470.4433432,1710,0,0_S
1775032470.447437,1642,0,0_S
1775032470.4506502,1829,0,0_S
1775032470.453556,2217,0,0_S
1775032470.455347,2318,0,0_S
1775032470.458349,2110,0,0_S
1775032470.461344,1630,0,0_S
1775032470.467147,1652,0,0_S
1775032470.468208,2013,0,0_S
1775032470.471381,2426,0,0_S
1775032470.473807,2107,0,0_S
1775032470.477058,1715,0,0_S
1775032470.4797592,1821,0,0_S
1775032470.482378,1778,0,0_S
1775032470.488338,2164,0,0_S
1775032470.489296,2426,0,0_S
1775032470.492051,2074,0,0_S
1775032470.494794,1540,0,0_S
1775032470.498229,1570,0,0_S
1775032470.5007749,1915,0,0_S
1775032470.503343,2566,0,0_S
1775032470.509753,2244,0,0_S
1775032470.5104718,1847,0,0_S
1775032470.5136268,1643,0,0_S
1775032470.516316,1733,0,0_S
1775032470.519624,2248,0,0_S
1775032470.5213618,2421,0,0_S
1775032470.524354,2197,0,0_S
1775032470.530453,1669,0,0_S
1775032470.5310788,1670,0,0_S
1775032470.534421,1820,0,0_S
1775032470.53851,2317,0,0_S
1775032470.5400698,2270,0,0_S
1775032470.5427232,1821,0,0_S
1775032470.5453691,1762,0,0_S
1775032470.551611,1751,0,0_S
1775032470.5519218,2038,0,0_S
1775032470.555043,2564,0,0_S
1775032470.559204,2091,0,0_S
1775032470.560786,1702,0,0_S
1775032470.563332,1779,0,0_S
1775032470.5663931,1883,0,0_S
1775032470.572599,2280,0,0_S
1775032470.5730171,2379,0,0_S
1775032470.5759969,1952,0,0_S
1775032470.580283,1575,0,0_S
1775032470.581629,1630,0,0_S
1775032470.584376,1885,0,0_S
1775032470.5873768,2239,0,0_S
1775032470.592758,2441,0,0_S
1775032470.5949628,1910,0,0_S
1775032470.596481,1711,0,0_S
1775032470.6008441,1778,0,0_S
1775032470.602408,2243,0,0_S
1775032470.6053681,2332,0,0_S
1775032470.608371,2116,0,0_S
1775032470.6132019,1852,0,0_S
1775032470.6148741,1621,0,0_S
1775032470.6177258,1986,0,0_S
1775032470.620597,2160,0,0_S
1775032470.623372,2257,0,0_S
1775032470.626337,1847,0,0_S
1775032470.629341,1654,0,0_S
1775032470.6332119,1691,0,0_S
1775032470.6360772,2211,0,0_S
1775032470.6391401,2381,0,0_S
1775032470.642197,2108,0,0_S
1775032470.644756,1687,0,0_S
1775032470.647368,1749,0,0_S
1775032470.653186,1897,0,0_S
1775032470.653871,2360,0,0_S
1775032470.6571178,2342,0,0_S
1775032470.659529,1764,0,0_S
1775032470.662876,1646,0,0_S
1775032470.6654232,1687,0,0_S
1775032470.668371,2289,0,0_S
1775032470.673866,2497,0,0_S
1775032470.6748512,2104,0,0_S
1775032470.6775382,1439,0,0_S
1775032470.6816761,1785,0,0_S
1775032470.683348,2263,0,0_S
1775032470.686362,2020,0,0_S
1775032470.6893702,2175,0,0_S
1775032470.6937642,2148,0,0_S
1775032470.695945,1829,0,0_S
1775032470.698781,1596,0,0_S
1775032470.7014022,2068,0,0_S
1775032470.704363,2377,0,0_S
1775032470.707372,2210,0,0_S
1775032470.710343,1773,0,0_S
1775032470.7139359,1686,0,0_S
1775032470.717237,1696,0,0_S
1775032470.7220101,2320,0,0_S
1775032470.7223501,2344,0,0_S
1775032470.725332,2007,0,0_S
1775032470.7283359,1708,0,0_S
1775032470.7349539,1828,0,0_S
1775032470.73533,1986,0,0_S
1775032470.738069,2449,0,0_S
1775032470.7424178,2154,0,0_S
1775032470.743902,1641,0,0_S
1775032470.746461,1822,0,0_S
1775032470.749368,1778,0,0_S
1775032470.755487,2228,0,0_S
1775032470.755845,2385,0,0_S
1775032470.75889,2105,0,0_S
1775032470.763201,1785,0,0_S
1775032470.764757,1695,0,0_S
1775032470.767371,2063,0,0_S
1775032470.770368,2320,0,0_S
1775032470.775813,2165,0,0_S
1775032470.776473,1628,0,0_S
1775032470.7816992,1540,0,0_S
1775032470.783653,1831,0,0_S
1775032470.785374,2249,0,0_S
1775032470.788369,2392,0,0_S
1775032470.791371,2133,0,0_S
1775032470.79614,1738,0,0_S
1775032470.798112,1749,0,0_S
1775032470.802284,1887,0,0_S
1775032470.804065,2405,0,0_S
1775032470.806891,2359,0,0_S
1775032470.809473,1821,0,0_S
1775032470.812385,1492,0,0_S
1775032470.8168519,1550,0,0_S
1775032470.81858,2158,0,0_S
1775032470.822834,2397,0,0_S
1775032470.824766,2277,0,0_S
1775032470.8274932,1736,0,0_S
1775032470.8303528,1683,0,0_S
1775032470.833369,1850,0,0_S
1775032470.837153,2451,0,0_S
1775032470.840223,2335,0,0_S
1775032470.844395,1924,0,0_S
1775032470.8460171,1675,0,0_S
1775032470.848574,1680,0,0_S
1775032470.8513741,2059,0,0_S
1775032470.8574588,2281,0,0_S
1775032470.857837,2180,0,0_S
1775032470.8616269,1803,0,0_S
1775032470.863633,1626,0,0_S
1775032470.86704,1779,0,0_S
1775032470.869592,2202,0,0_S
1775032470.8723671,2425,0,0_S
1775032470.878238,2218,0,0_S
1775032470.8789198,1710,0,0_S
1775032470.8816278,1698,0,0_S
1775032470.885993,1880,0,0_S
1775032470.887624,2271,0,0_S
1775032470.890374,2149,0,0_S
1775032470.893383,1939,0,0_S
1775032470.898577,1691,0,0_S
1775032470.899924,1660,0,0_S
1775032470.904143,2159,0,0_S
1775032470.905971,2497,0,0_S
1775032470.908663,2067,0,0_S
1775032470.911245,1698,0,0_S
1775032470.9142542,1721,0,0_S
1775032470.9194539,1960,0,0_S
1775032470.922158,2287,0,0_S
1775032470.924862,2184,0,0_S
1775032470.926858,1879,0,0_S
1775032470.929465,1740,0,0_S
1775032470.932207,1703,0,0_S
1775032470.939256,2030,0,0_S
1775032470.939378,2382,0,0_S
1775032470.941397,2280,0,0_S
1775032470.944222,1753,0,0_S
1775032470.9472902,1642,0,0_S
1775032470.950212,1757,0,0_S
1775032470.954016,2392,0,0_S
1775032470.96015,2361,0,0_S
1775032470.9608169,2014,0,0_S
1775032470.962334,1652,0,0_S
1775032470.96558,1703,0,0_S
1775032470.96844,2180,0,0_S
1775032470.9712598,2336,0,0_S
1775032470.974219,2115,0,0_S
1775032470.977227,1753,0,0_S
1775032470.98113,1680,0,0_S
1775032470.983222,1778,0,0_S
1775032470.988062,2506,0,0_S
1775032470.990335,2186,0,0_S
1775032470.992246,2004,0,0_S
1775032470.9952261,1742,0,0_S
1775032470.9982238,1676,0,0_S
1775032471.004823,2008,0,0_S
1775032471.0064251,2410,0,0_S
1775032471.008419,2166,0,0_S
1775032471.011096,1790,0,0_S
1775032471.013356,1784,0,0_S
1775032471.0163572,1794,0,0_S
1775032471.0195,2230,0,0_S
1775032471.0224671,2405,0,0_S
1775032471.0295382,2002,0,0_S
1775032471.0311549,1640,0,0_S
1775032471.033474,1658,0,0_S
1775032471.036868,1957,0,0_S
1775032471.038743,2355,0,0_S
1775032471.040236,2260,0,0_S
1775032471.043232,1725,0,0_S
1775032471.04621,1712,0,0_S
1775032471.0499232,1764,0,0_S
1775032471.052404,2251,0,0_S
1775032471.055399,2424,0,0_S
1775032471.058639,2040,0,0_S
1775032471.061356,1704,0,0_S
1775032471.064223,1760,0,0_S
1775032471.0679271,1908,0,0_S
1775032471.07169,2441,0,0_S
1775032471.073859,2124,0,0_S
1775032471.0796359,1838,0,0_S
1775032471.079693,1714,0,0_S
1775032471.0822778,1703,0,0_S
1775032471.085218,2100,0,0_S
1775032471.0882392,2368,0,0_S
1775032471.092502,2071,0,0_S
1775032471.094553,1772,0,0_S
1775032471.097543,1761,0,0_S
1775032471.100596,1827,0,0_S
1775032471.1034071,2404,0,0_S
1775032471.106248,2280,0,0_S
1775032471.109243,1870,0,0_S
1775032471.113812,1641,0,0_S
1775032471.115637,1650,0,0_S
1775032471.118309,2067,0,0_S
1775032471.12199,2388,0,0_S
1775032471.124757,2165,0,0_S
1775032471.127294,1740,0,0_S
1775032471.1302001,1754,0,0_S
1775032471.134934,1877,0,0_S
1775032471.1371431,2315,0,0_S
1775032471.140225,2302,0,0_S
1775032471.143287,1931,0,0_S
1775032471.145211,1739,0,0_S
1775032471.1482189,1721,0,0_S
1775032471.151236,1992,0,0_S
1775032471.1566982,2391,0,0_S
1775032471.157425,2204,0,0_S
1775032471.161383,1759,0,0_S
1775032471.1644301,1689,0,0_S
1775032471.166199,1794,0,0_S
1775032471.169238,2259,0,0_S
1775032471.1722062,2352,0,0_S
1775032471.177092,1970,0,0_S
1775032471.179455,1751,0,0_S
1775032471.181524,1762,0,0_S
1775032471.1855621,1916,0,0_S
1775032471.187281,2344,0,0_S
1775032471.190237,2169,0,0_S
1775032471.193206,1831,0,0_S
1775032471.199218,1697,0,0_S
1775032471.1995552,1736,0,0_S
1775032471.203199,2205,0,0_S
1775032471.206656,2376,0,0_S
1775032471.208243,2066,0,0_S
1775032471.211235,1711,0,0_S
1775032471.2142038,1782,0,0_S
1775032471.219638,1990,0,0_S
1775032471.220617,2305,0,0_S
1775032471.224589,2212,0,0_S
1775032471.2277539,1824,0,0_S
1775032471.2293298,1677,0,0_S
1775032471.232249,1722,0,0_S
1775032471.235208,2163,0,0_S
1775032471.241249,2406,0,0_S
1775032471.242589,2111,0,0_S
1775032471.244343,1773,0,0_S
1775032471.248971,1715,0,0_S
1775032471.250785,1727,0,0_S
1775032471.253506,2315,0,0_S
1775032471.256211,2391,0,0_S
1775032471.2644842,2013,0,0_S
1775032471.264766,1661,0,0_S
1775032471.2670841,1686,0,0_S
1775032471.269451,2031,0,0_S
1775032471.271553,2428,0,0_S
1775032471.274304,2314,0,0_S
1775032471.2770948,1708,0,0_S
1775032471.280803,1665,0,0_S
1775032471.2859719,1716,0,0_S
1775032471.286434,2222,0,0_S
1775032471.294086,2439,0,0_S
1775032471.294345,2050,0,0_S
1775032471.296174,1583,0,0_S
1775032471.2988238,1613,0,0_S
1775032471.3014872,2059,0,0_S
1775032471.309716,2405,0,0_S
1775032471.312315,2247,0,0_S
1775032471.313308,1774,0,0_S
1775032471.3148842,1679,0,0_S
1775032471.31852,1786,0,0_S
1775032471.3191192,2249,0,0_S
1775032471.3220952,2315,0,0_S
1775032471.325112,2133,0,0_S
1775032471.3323672,1665,0,0_S
1775032471.333938,1680,0,0_S
1775032471.3344,1960,0,0_S
1775032471.338961,2307,0,0_S
1775032471.340401,2209,0,0_S
1775032471.343245,1774,0,0_S
1775032471.346084,1741,0,0_S
1775032471.354313,1796,0,0_S
1775032471.3545458,2161,0,0_S
1775032471.358158,2326,0,0_S
1775032471.361602,2065,0,0_S
1775032471.3617668,1677,0,0_S
1775032471.364775,1832,0,0_S
1775032471.367615,1791,0,0_S
1775032471.370164,2403,0,0_S
1775032471.3750389,2372,0,0_S
1775032471.376917,1891,0,0_S
1775032471.381204,1674,0,0_S
1775032471.383512,1677,0,0_S
1775032471.385231,2070,0,0_S
1775032471.3880908,2407,0,0_S
1775032471.391088,2196,0,0_S
1775032471.398659,1670,0,0_S
1775032471.398794,1737,0,0_S
1775032471.4009678,1815,0,0_S
1775032471.405247,2276,0,0_S
1775032471.407129,2340,0,0_S
1775032471.4097888,1992,0,0_S
1775032471.4123719,1596,0,0_S
1775032471.418348,1853,0,0_S
1775032471.419594,2053,0,0_S
1775032471.422369,2293,0,0_S
1775032471.425141,2211,0,0_S
1775032471.427306,1831,0,0_S
1775032471.430078,1709,0,0_S
1775032471.433121,1891,0,0_S
1775032471.436092,2204,0,0_S
1775032471.439874,2345,0,0_S
1775032471.4430652,2026,0,0_S
1775032471.447458,1707,0,0_S
1775032471.4490151,1662,0,0_S
1775032471.451565,2041,0,0_S
1775032471.454123,2252,0,0_S
1775032471.459831,2278,0,0_S
1775032471.460487,1840,0,0_S
1775032471.463551,1748,0,0_S
1775032471.467689,1580,0,0_S
1775032471.469307,2222,0,0_S
1775032471.472105,2538,0,0_S
1775032471.475104,2040,0,0_S
1775032471.480117,1672,0,0_S
1775032471.4820302,1762,0,0_S
1775032471.4859462,1963,0,0_S
1775032471.487948,2341,0,0_S
1775032471.49064,2216,0,0_S
1775032471.493185,1840,0,0_S
1775032471.496075,1786,0,0_S
1775032471.5006678,1722,0,0_S
1775032471.502638,2048,0,0_S
1775032471.5069618,2360,0,0_S
1775032471.50893,2141,0,0_S
1775032471.511509,1628,0,0_S
1775032471.514164,1810,0,0_S
1775032471.517081,1977,0,0_S
1775032471.522123,2370,0,0_S
1775032471.523802,2257,0,0_S
1775032471.529865,1944,0,0_S
1775032471.5300841,1603,0,0_S
1775032471.5320692,1641,0,0_S
1775032471.535091,2093,0,0_S
1775032471.538194,2398,0,0_S
1775032471.544163,2127,0,0_S
1775032471.545206,1671,0,0_S
1775032471.5491781,1789,0,0_S
1775032471.5509171,1854,0,0_S
1775032471.554594,2260,0,0_S
1775032471.556159,2477,0,0_S
1775032471.559075,1980,0,0_S
1775032471.562075,1539,0,0_S
1775032471.566499,1615,0,0_S
1775032471.568379,2079,0,0_S
1775032471.5715919,2477,0,0_S
1775032471.574883,2248,0,0_S
1775032471.5774999,1679,0,0_S
1775032471.5801952,1755,0,0_S
1775032471.583116,1756,0,0_S
1775032471.587816,2370,0,0_S
1775032471.590073,2451,0,0_S
1775032471.592833,2052,0,0_S
1775032471.595901,1702,0,0_S
1775032471.5986571,1667,0,0_S
1775032471.6012108,1851,0,0_S
1775032471.604117,2407,0,0_S
1775032471.608711,2283,0,0_S
1775032471.6106591,1852,0,0_S
1775032471.6137779,1679,0,0_S
1775032471.616689,1582,0,0_S
1775032471.619275,2265,0,0_S
1775032471.622072,2365,0,0_S
1775032471.6251168,1980,0,0_S
1775032471.629072,1759,0,0_S
1775032471.6323478,1833,0,0_S
1775032471.6341429,1882,0,0_S
1775032471.637123,2350,0,0_S
1775032471.6401129,2391,0,0_S
1775032471.6431072,1845,0,0_S
1775032471.649044,1629,0,0_S
1775032471.6491,1638,0,0_S
1775032471.652857,2086,0,0_S
1775032471.6552372,2516,0,0_S
1775032471.658667,2148,0,0_S
1775032471.661227,1709,0,0_S
1775032471.6640708,1657,0,0_S
1775032471.6695108,1786,0,0_S
1775032471.670488,2314,0,0_S
1775032471.673315,2352,0,0_S
1775032471.677655,1882,0,0_S
1775032471.679289,1651,0,0_S
1775032471.681969,1695,0,0_S
1775032471.68498,2096,0,0_S
1775032471.691041,2462,0,0_S
1775032471.692081,2268,0,0_S
1775032471.6941361,1707,0,0_S
1775032471.698106,1719,0,0_S
1775032471.699998,1813,0,0_S
1775032471.70298,2339,0,0_S
1775032471.705987,2390,0,0_S
1775032471.7103329,1971,0,0_S
1775032471.7122948,1548,0,0_S
1775032471.716303,1644,0,0_S
1775032471.718202,2012,0,0_S
1775032471.720959,2401,0,0_S
1775032471.723954,2314,0,0_S
1775032471.726958,1799,0,0_S
1775032471.730551,1701,0,0_S
1775032471.734349,1656,0,0_S
1775032471.7369611,2260,0,0_S
1775032471.73913,2515,0,0_S
1775032471.741961,2076,0,0_S
1775032471.7449431,1597,0,0_S
1775032471.747936,1632,0,0_S
1775032471.751483,1986,0,0_S
1775032471.754789,2350,0,0_S
1775032471.759648,2267,0,0_S
1775032471.759955,1767,0,0_S
1775032471.762936,1676,0,0_S
1775032471.7659452,1756,0,0_S
1775032471.771921,2213,0,0_S
1775032471.7722518,2408,0,0_S
1775032471.775758,2136,0,0_S
1775032471.780138,1740,0,0_S
1775032471.7817972,1737,0,0_S
1775032471.784344,1810,0,0_S
1775032471.787008,2398,0,0_S
1775032471.79374,2359,0,0_S
1775032471.7944472,1911,0,0_S
1775032471.797447,1582,0,0_S
1775032471.8000882,1664,0,0_S
1775032471.802334,2121,0,0_S
1775032471.805224,2469,0,0_S
1775032471.807982,2210,0,0_S
1775032471.814677,1694,0,0_S
1775032471.815327,1693,0,0_S
1775032471.818043,1746,0,0_S
1775032471.8209898,2281,0,0_S
1775032471.822989,2384,0,0_S
1775032471.825989,1938,0,0_S
1775032471.828948,1693,0,0_S
1775032471.831949,1625,0,0_S
1775032471.835861,2075,0,0_S
1775032471.838206,2483,0,0_S
1775032471.842346,2186,0,0_S
1775032471.844486,1740,0,0_S
1775032471.847265,1645,0,0_S
1775032471.849982,1723,0,0_S
1775032471.852941,2284,0,0_S
1775032471.85649,2431,0,0_S
1775032471.8599198,2057,0,0_S
1775032471.864326,1674,0,0_S
1775032471.8662038,1658,0,0_S
1775032471.8679712,1940,0,0_S
1775032471.870943,2478,0,0_S
1775032471.8739939,2334,0,0_S
1775032471.877078,1864,0,0_S
1775032471.880706,1627,0,0_S
1775032471.8830101,1606,0,0_S
1775032471.886561,2126,0,0_S
1775032471.889017,2486,0,0_S
1775032471.891938,2093,0,0_S
1775032471.897732,1658,0,0_S
1775032471.8984241,1663,0,0_S
1775032471.90106,1883,0,0_S
1775032471.905359,2424,0,0_S
1775032471.906945,2326,0,0_S
1775032471.909985,1793,0,0_S
1775032471.912962,1674,0,0_S
1775032471.919017,1684,0,0_S
1775032471.919431,2230,0,0_S
1775032471.922647,2433,0,0_S
1775032471.926789,2119,0,0_S
1775032471.928448,1710,0,0_S
1775032471.930998,1664,0,0_S
1775032471.934001,1839,0,0_S
1775032471.9394681,2335,0,0_S
1775032471.9411688,2362,0,0_S
1775032471.943128,1892,0,0_S
1775032471.947169,1700,0,0_S
1775032471.9489439,1668,0,0_S
1775032471.95198,2017,0,0_S
1775032471.954981,2479,0,0_S
1775032471.960532,2322,0,0_S
1775032471.961152,1679,0,0_S
1775032471.964392,1617,0,0_S
1775032471.96862,1778,0,0_S
1775032471.970389,2348,0,0_S
1775032471.972959,2386,0,0_S
1775032471.975935,1939,0,0_S
1775032471.9807758,1678,0,0_S
1775032471.982816,1681,0,0_S
1775032471.9868412,1955,0,0_S
1775032471.988829,2371,0,0_S
1775032471.991528,2280,0,0_S
1775032471.994071,1792,0,0_S
1775032471.996962,1761,0,0_S
1775032472.001439,1677,0,0_S
1775032472.003383,2245,0,0_S
1775032472.0075111,2468,0,0_S
1775032472.009469,2029,0,0_S
1775032472.012125,1667,0,0_S
1775032472.0149682,1642,0,0_S
1775032472.017977,1882,0,0_S
1775032472.0214489,2386,0,0_S
1775032472.025451,2340,0,0_S
1775032472.027518,1810,0,0_S
1775032472.030895,1665,0,0_S
1775032472.0334551,1600,0,0_S
1775032472.036048,2186,0,0_S
1775032472.042099,2498,0,0_S
1775032472.042451,2142,0,0_S
1775032472.0461729,1684,0,0_S
1775032472.0503528,1662,0,0_S
1775032472.052295,1898,0,0_S
1775032472.0539808,2372,0,0_S
1775032472.0569758,2356,0,0_S
1775032472.059975,1870,0,0_S
1775032472.064493,1688,0,0_S
1775032472.066371,1582,0,0_S
1775032472.072501,2108,0,0_S
1775032472.072663,2493,0,0_S
1775032472.074976,2156,0,0_S
1775032472.0779579,1696,0,0_S
1775032472.080977,1655,0,0_S
1775032472.0861921,1795,0,0_S
1775032472.0882292,2334,0,0_S
1775032472.090136,2464,0,0_S
1775032472.094421,1956,0,0_S
1775032472.0960221,1642,0,0_S
1775032472.098954,1611,0,0_S
1775032472.101978,2033,0,0_S
1775032472.1071832,2456,0,0_S
1775032472.108929,2236,0,0_S
1775032472.111799,1716,0,0_S
1775032472.114702,1622,0,0_S
1775032472.117663,1620,0,0_S
1775032472.120213,2333,0,0_S
1775032472.122874,2518,0,0_S
1775032472.127074,2002,0,0_S
1775032472.128978,1647,0,0_S
1775032472.132957,1649,0,0_S
1775032472.134975,2036,0,0_S
1775032472.137853,2456,0,0_S
1775032472.140831,2307,0,0_S
1775032472.1439092,1800,0,0_S
1775032472.1474009,1673,0,0_S
1775032472.150789,1639,0,0_S
1775032472.153319,2210,0,0_S
1775032472.156793,2416,0,0_S
1775032472.1593401,2172,0,0_S
1775032472.161896,1580,0,0_S
1775032472.168517,1642,0,0_S
1775032472.168631,1959,0,0_S
1775032472.171284,2369,0,0_S
1775032472.175775,2397,0,0_S
1775032472.1774778,1811,0,0_S
1775032472.1800299,1597,0,0_S
1775032472.1828449,1527,0,0_S
1775032472.188168,2208,0,0_S
1775032472.190229,2450,0,0_S
1775032472.191915,2143,0,0_S
1775032472.1960871,1619,0,0_S
1775032472.197851,1695,0,0_S
1775032472.200874,2035,0,0_S
1775032472.204499,2336,0,0_S
1775032472.208578,2220,0,0_S
1775032472.21059,1969,0,0_S
1775032472.213026,1747,0,0_S
1775032472.2163808,1503,0,0_S
1775032472.219001,2173,0,0_S
1775032472.2218492,2515,0,0_S
1775032472.224844,2061,0,0_S
1775032472.229567,1670,0,0_S
1775032472.230952,1727,0,0_S
1775032472.234942,1959,0,0_S
1775032472.237005,2225,0,0_S
1775032472.239847,2464,0,0_S
1775032472.2434402,2008,0,0_S
1775032472.248874,1567,0,0_S
1775032472.249185,1463,0,0_S
1775032472.252773,2167,0,0_S
1775032472.255142,2351,0,0_S
1775032472.258538,2246,0,0_S
1775032472.261091,1777,0,0_S
1775032472.2638452,1667,0,0_S
1775032472.269513,1789,0,0_S
1775032472.269904,2230,0,0_S
1775032472.273367,2432,0,0_S
1775032472.277754,2133,0,0_S
1775032472.279246,1537,0,0_S
1775032472.281822,1655,0,0_S
1775032472.285513,2019,0,0_S
1775032472.290188,2415,0,0_S
1775032472.292481,2309,0,0_S
1775032472.293998,1770,0,0_S
1775032472.298928,1624,0,0_S
1775032472.3003771,1671,0,0_S
1775032472.302921,2266,0,0_S
1775032472.3058271,2505,0,0_S
1775032472.311247,2087,0,0_S
1775032472.3121269,1669,0,0_S
1775032472.314917,1658,0,0_S
1775032472.319251,1889,0,0_S
1775032472.3208692,2426,0,0_S
1775032472.3239648,2384,0,0_S
1775032472.326848,1871,0,0_S
1775032472.3318121,1658,0,0_S
1775032472.3334882,1636,0,0_S
1775032472.337575,2125,0,0_S
1775032472.3396978,2506,0,0_S
1775032472.342437,2129,0,0_S
1775032472.34499,1706,0,0_S
1775032472.348005,1643,0,0_S
1775032472.352839,1788,0,0_S
1775032472.3548958,2348,0,0_S
1775032472.357096,2437,0,0_S
1775032472.361249,1878,0,0_S
1775032472.3628821,1706,0,0_S
1775032472.365812,1627,0,0_S
1775032472.3688629,2045,0,0_S
1775032472.3733811,2410,0,0_S
1775032472.375529,2267,0,0_S
1775032472.3783062,1778,0,0_S
1775032472.38138,1610,0,0_S
1775032472.3841212,1762,0,0_S
1775032472.386823,2334,0,0_S
1775032472.389813,2501,0,0_S
1775032472.394113,1988,0,0_S
1775032472.3959491,1588,0,0_S
1775032472.403001,1548,0,0_S
1775032472.403039,2005,0,0_S
1775032472.405983,2489,0,0_S
1775032472.407846,2306,0,0_S
1775032472.410848,1706,0,0_S
1775032472.416764,1587,0,0_S
1775032472.418092,1672,0,0_S
1775032472.420452,2359,0,0_S
1775032472.42525,2551,0,0_S
1775032472.426649,2011,0,0_S
1775032472.429219,1682,0,0_S
1775032472.431852,1680,0,0_S
1775032472.4348521,2026,0,0_S
1775032472.4395971,2399,0,0_S
1775032472.4414232,2160,0,0_S
1775032472.445463,1843,0,0_S
1775032472.447561,1668,0,0_S
1775032472.450222,1701,0,0_S
1775032472.4528158,2224,0,0_S
1775032472.45582,2362,0,0_S
1775032472.459508,1952,0,0_S
1775032472.4634109,1566,0,0_S
1775032472.465083,1733,0,0_S
1775032472.468089,1944,0,0_S
1775032472.4708202,2320,0,0_S
1775032472.473821,2476,0,0_S
1775032472.476809,1828,0,0_S
1775032472.480455,1641,0,0_S
1775032472.4840262,1680,0,0_S
1775032472.488596,2139,0,0_S
1775032472.4889002,2517,0,0_S
1775032472.4918668,2252,0,0_S
1775032472.4948108,1647,0,0_S
1775032472.497856,1661,0,0_S
1775032472.501821,1749,0,0_S
1775032472.503904,2287,0,0_S
1775032472.51005,2332,0,0_S
1775032472.510203,2011,0,0_S
1775032472.5128891,1781,0,0_S
1775032472.515811,1638,0,0_S
1775032472.518856,2050,0,0_S
1775032472.524619,2303,0,0_S
1775032472.525312,2242,0,0_S
1775032472.5280619,1745,0,0_S
1775032472.5325499,1679,0,0_S
1775032472.534145,1812,0,0_S
1775032472.536853,2218,0,0_S
1775032472.539804,2354,0,0_S
1775032472.5458272,2091,0,0_S
1775032472.546571,1538,0,0_S
1775032472.5498052,1650,0,0_S
1775032472.552285,1994,0,0_S
1775032472.55554,2503,0,0_S
1775032472.5580952,2225,0,0_S
1775032472.560853,1783,0,0_S
1775032472.5638258,1562,0,0_S
1775032472.568301,1711,0,0_S
1775032472.570621,2312,0,0_S
1775032472.573416,2468,0,0_S
1775032472.577342,2147,0,0_S
1775032472.5792918,1811,0,0_S
1775032472.5821152,1527,0,0_S
1775032472.584817,1850,0,0_S
1775032472.591315,2417,0,0_S
1775032472.591773,2366,0,0_S
1775032472.593965,1826,0,0_S
1775032472.597028,1637,0,0_S
1775032472.600102,1527,0,0_S
1775032472.602891,2191,0,0_S
1775032472.606449,2498,0,0_S
1775032472.609,2147,0,0_S
1775032472.613072,1657,0,0_S
1775032472.614861,1764,0,0_S
1775032472.6189241,1733,0,0_S
1775032472.620972,2303,0,0_S
1775032472.623838,2406,0,0_S
1775032472.626814,1959,0,0_S
1775032472.629856,1808,0,0_S
1775032472.633683,1751,0,0_S
1775032472.6364312,2072,0,0_S
1775032472.640691,2360,0,0_S
1775032472.642208,2230,0,0_S
1775032472.644803,1680,0,0_S
1775032472.647807,1847,0,0_S
1775032472.6537092,1836,0,0_S
1775032472.654315,2067,0,0_S
1775032472.6575491,2419,0,0_S
1775032472.6599228,2047,0,0_S
1775032472.663388,1560,0,0_S
1775032472.6659358,1641,0,0_S
1775032472.668807,2055,0,0_S
1775032472.675189,2485,0,0_S
1775032472.675549,2178,0,0_S
1775032472.678797,1684,0,0_S
1775032472.6816828,1705,0,0_S
1775032472.683952,1734,0,0_S
1775032472.686808,2268,0,0_S
1775032472.689845,2383,0,0_S
1775032472.692826,2008,0,0_S
1775032472.696436,1654,0,0_S
1775032472.698857,1619,0,0_S
1775032472.702998,1910,0,0_S
1775032472.7051132,2490,0,0_S
1775032472.7080379,2288,0,0_S
1775032472.710836,1745,0,0_S
1775032472.713829,1660,0,0_S
1775032472.7178922,1730,0,0_S
1775032472.720051,2315,0,0_S
1775032472.7230341,2365,0,0_S
1775032472.726194,1968,0,0_S
1775032472.7288399,1628,0,0_S
1775032472.731797,1689,0,0_S
1775032472.734821,1936,0,0_S
1775032472.738147,2390,0,0_S
1775032472.7415109,2302,0,0_S
1775032472.743905,1899,0,0_S
1775032472.747374,1678,0,0_S
1775032472.7499259,1755,0,0_S
1775032472.752713,2226,0,0_S
1775032472.758511,2483,0,0_S
1775032472.7589602,2042,0,0_S
1775032472.761996,1633,0,0_S
1775032472.766436,1636,0,0_S
1775032472.768047,1914,0,0_S
1775032472.7707222,2428,0,0_S
1775032472.773731,2551,0,0_S
1775032472.778854,1764,0,0_S
1775032472.780879,1543,0,0_S
1775032472.7828841,1655,0,0_S
1775032472.7870579,2312,0,0_S
1775032472.788725,2323,0,0_S
1775032472.791717,2110,0,0_S
1775032472.794719,1599,0,0_S
1775032472.799531,1747,0,0_S
1775032472.801449,1974,0,0_S
1775032472.805551,2199,0,0_S
1775032472.807809,2399,0,0_S
1775032472.810451,2022,0,0_S
1775032472.812768,1910,0,0_S
1775032472.8162172,1671,0,0_S
1775032472.821002,1785,0,0_S
1775032472.8229918,2239,0,0_S
1775032472.824984,2214,0,0_S
1775032472.829278,1779,0,0_S
1775032472.830786,1678,0,0_S
1775032472.833716,1642,0,0_S
1775032472.836683,2411,0,0_S
1775032472.843085,2538,0,0_S
1775032472.8431969,2036,0,0_S
1775032472.8461802,1524,0,0_S
1775032472.8492658,1649,0,0_S
1775032472.852066,2032,0,0_S
1775032472.85499,2322,0,0_S
1775032472.8577201,2281,0,0_S
1775032472.861992,1665,0,0_S
1775032472.864374,1790,0,0_S
1775032472.8685498,1842,0,0_S
1775032472.870657,2230,0,0_S
1775032472.872697,2444,0,0_S
1775032472.8757188,2160,0,0_S
1775032472.878696,1794,0,0_S
1775032472.88324,1614,0,0_S
1775032472.885107,1821,0,0_S
1775032472.8894122,2373,0,0_S
1775032472.89168,2065,0,0_S
1775032472.89433,1811,0,0_S
1775032472.896877,1713,0,0_S
1775032472.8997178,1633,0,0_S
1775032472.904203,2227,0,0_S
1775032472.906268,2460,0,0_S
1775032472.909344,2215,0,0_S
1775032472.9123871,1705,0,0_S
1775032472.915048,1906,0,0_S
1775032472.917736,1766,0,0_S
1775032472.920681,2424,0,0_S
1775032472.925219,2488,0,0_S
1775032472.926969,1932,0,0_S
1775032472.931082,1739,0,0_S
1775032472.9331682,1494,0,0_S
1775032472.935838,1969,0,0_S
1775032472.9387038,2492,0,0_S
1775032472.94173,2132,0,0_S
1775032472.9453409,1709,0,0_S
1775032472.948771,1716,0,0_S
1775032472.9518368,1749,0,0_S
1775032472.9538612,2349,0,0_S
1775032472.956707,2617,0,0_S
1775032472.959691,1837,0,0_S
1775032472.962697,1653,0,0_S
1775032472.9659798,1640,0,0_S
1775032472.969661,2084,0,0_S
1775032472.972703,2478,0,0_S
1775032472.974895,2351,0,0_S
1775032472.977709,1543,0,0_S
1775032472.980696,1624,0,0_S
1775032472.988159,1712,0,0_S
1775032472.98856,2280,0,0_S
1775032472.9924648,2557,0,0_S
1775032472.997534,2138,0,0_S
1775032473.0015612,1578,0,0_S
1775032473.002052,1577,0,0_S
1775032473.0068128,1961,0,0_S
1775032473.007048,2457,0,0_S
1775032473.0077991,2319,0,0_S
1775032473.010716,1854,0,0_S
1775032473.023226,1348,0,0_S
1775032473.027315,1679,0,0_S
1775032473.029244,2307,0,0_S
1775032473.0293272,2564,0,0_S
1775032473.029386,2095,0,0_S
1775032473.029451,1606,0,0_S
1775032473.032,1701,0,0_S
1775032473.036144,1924,0,0_S
1775032473.038115,2400,0,0_S
1775032473.042604,2352,0,0_S
1775032473.0446131,1848,0,0_S
1775032473.047366,1562,0,0_S
1775032473.049917,1629,0,0_S
1775032473.0526772,2149,0,0_S
1775032473.057354,2401,0,0_S
1775032473.0593028,2203,0,0_S
1775032473.062301,1658,0,0_S
1775032473.065564,1734,0,0_S
1775032473.068278,1747,0,0_S
1775032473.0708292,2349,0,0_S
1775032473.073683,2450,0,0_S
1775032473.079073,1869,0,0_S
1775032473.0811782,1669,0,0_S
1775032473.0829031,1656,0,0_S
1775032473.08773,2107,0,0_S
1775032473.089498,2478,0,0_S
1775032473.0920582,2261,0,0_S
1775032473.094702,1716,0,0_S
1775032473.101878,1677,0,0_S
1775032473.101973,1794,0,0_S
1775032473.103931,2288,0,0_S
1775032473.1072938,2383,0,0_S
1775032473.1465652,1871,0,0_S
1775032473.146684,1593,0,0_S
1775032473.1467268,1702,0,0_S
1775032473.146753,2098,0,0_S
1775032473.146775,2416,0,0_S
1775032473.146797,2276,0,0_S
1775032473.146819,1812,0,0_S
1775032473.146843,1634,0,0_S
1775032473.1468632,1744,0,0_S
1775032473.146904,2257,0,0_S
1775032473.146954,2466,0,0_S
1775032473.1469839,1997,0,0_S
1775032473.147006,1640,0,0_S
1775032473.1486669,1652,0,0_S
1775032473.1596212,1893,0,0_S
1775032473.159982,2431,0,0_S
1775032473.160009,2305,0,0_S
1775032473.1613,1791,0,0_S
1775032473.1638799,1663,0,0_S
1775032473.169041,1693,0,0_S
1775032473.171479,2194,0,0_S
1775032473.1730208,2443,0,0_S
1775032473.177621,2100,0,0_S
1775032473.179046,1711,0,0_S
1775032473.181729,1675,0,0_S
1775032473.184696,1896,0,0_S
1775032473.187686,2446,0,0_S
1775032473.1909518,2314,0,0_S
1775032473.1943061,1863,0,0_S
1775032473.198925,1635,0,0_S
1775032473.200545,1651,0,0_S
1775032473.2030919,2066,0,0_S
1775032473.2057338,2485,0,0_S
1775032473.2118368,2157,0,0_S
1775032473.2121851,1718,0,0_S
1775032473.215314,1718,0,0_S
1775032473.2177339,1792,0,0_S
1775032473.22126,2351,0,0_S
1775032473.223826,2405,0,0_S
1775032473.2266722,1923,0,0_S
1775032473.232728,1579,0,0_S
1775032473.2330828,1669,0,0_S
1775032473.2364328,2081,0,0_S
1775032473.240609,2466,0,0_S
1775032473.2421389,2229,0,0_S
1775032473.244672,1731,0,0_S
1775032473.247662,1708,0,0_S
1775032473.253216,1691,0,0_S
1775032473.253866,2280,0,0_S
1775032473.256993,2467,0,0_S
1775032473.261271,1984,0,0_S
1775032473.262804,1698,0,0_S
1775032473.265672,1534,0,0_S
1775032473.268676,1911,0,0_S
1775032473.2748458,2540,0,0_S
1775032473.274884,2297,0,0_S
1775032473.2786062,1858,0,0_S
1775032473.28305,1608,0,0_S
1775032473.284734,1640,0,0_S
1775032473.28728,2256,0,0_S
1775032473.289828,2512,0,0_S
1775032473.2955918,2086,0,0_S
1775032473.295986,1536,0,0_S
1775032473.299914,1653,0,0_S
1775032473.3017988,1907,0,0_S
1775032473.305374,2577,0,0_S
1775032473.307917,2336,0,0_S
1775032473.310675,1768,0,0_S
1775032473.317337,1603,0,0_S
1775032473.3187509,1510,0,0_S
1775032473.323175,2209,0,0_S
1775032473.323332,2645,0,0_S
1775032473.325805,2221,0,0_S
1775032473.328672,1501,0,0_S
1775032473.3317,1621,0,0_S
1775032473.3379562,1874,0,0_S
1775032473.3385432,2530,0,0_S
1775032473.3416681,2374,0,0_S
1775032473.3446221,1890,0,0_S
1775032473.3466408,1552,0,0_S
1775032473.349555,1554,0,0_S
1775032473.352566,2183,0,0_S
1775032473.3587148,2501,0,0_S
1775032473.359064,2203,0,0_S
1775032473.3630562,1605,0,0_S
1775032473.3651378,1635,0,0_S
1775032473.36867,1811,0,0_S
1775032473.3710861,2355,0,0_S
1775032473.373611,2411,0,0_S
1775032473.376557,1920,0,0_S
1775032473.380228,1692,0,0_S
1775032473.383737,1625,0,0_S
1775032473.386573,2018,0,0_S
1775032473.388779,2478,0,0_S
1775032473.391558,2240,0,0_S
1775032473.394562,1795,0,0_S
1775032473.397593,1587,0,0_S
1775032473.4011781,1583,0,0_S
1775032473.4051661,2369,0,0_S
1775032473.407516,2506,0,0_S
1775032473.40974,1984,0,0_S
1775032473.412579,1716,0,0_S
1775032473.415601,1631,0,0_S
1775032473.418578,1961,0,0_S
1775032473.422894,2434,0,0_S
1775032473.42608,2323,0,0_S
1775032473.4276202,1787,0,0_S
1775032473.430751,1617,0,0_S
1775032473.433568,1653,0,0_S
1775032473.436552,2255,0,0_S
1775032473.439585,2479,0,0_S
1775032473.4425962,2056,0,0_S
1775032473.445861,1618,0,0_S
1775032473.448829,1675,0,0_S
1775032473.4524548,1912,0,0_S
1775032473.455007,2349,0,0_S
1775032473.457557,2325,0,0_S
1775032473.464253,1899,0,0_S
1775032473.464633,1503,0,0_S
1775032473.467089,1623,0,0_S
1775032473.471841,2350,0,0_S
1775032473.473366,2472,0,0_S
1775032473.4759219,2190,0,0_S
1775032473.4785411,1683,0,0_S
1775032473.486217,1653,0,0_S
1775032473.4872892,1860,0,0_S
1775032473.4876459,2330,0,0_S
1775032473.496027,2415,0,0_S
1775032473.4961338,1774,0,0_S
1775032473.49657,1601,0,0_S
1775032473.4995708,1614,0,0_S
1775032473.502569,2123,0,0_S
1775032473.51004,2537,0,0_S
1775032473.5115469,2109,0,0_S
1775032473.5132318,1719,0,0_S
1775032473.5150652,1738,0,0_S
1775032473.517743,1792,0,0_S
1775032473.5206552,2371,0,0_S
1775032473.523577,2430,0,0_S
1775032473.526565,1952,0,0_S
1775032473.533241,1622,0,0_S
1775032473.53335,1632,0,0_S
1775032473.5378938,2004,0,0_S
1775032473.540111,2475,0,0_S
1775032473.541852,2211,0,0_S
1775032473.544588,1685,0,0_S
1775032473.547565,1737,0,0_S
1775032473.5541592,1814,0,0_S
1775032473.5555918,2338,0,0_S
1775032473.559171,2403,0,0_S
1775032473.561495,1844,0,0_S
1775032473.563854,1559,0,0_S
1775032473.5655801,1725,0,0_S
1775032473.56862,1947,0,0_S
1775032473.571583,2435,0,0_S
1775032473.5772421,2291,0,0_S
1775032473.577913,1663,0,0_S
1775032473.581128,1560,0,0_S
1775032473.58583,1751,0,0_S
1775032473.587391,2275,0,0_S
1775032473.5899572,2668,0,0_S
1775032473.592554,2137,0,0_S
1775032473.601399,1551,0,0_S
1775032473.603219,1649,0,0_S
1775032473.603722,1832,0,0_S
1775032473.608286,2489,0,0_S
1775032473.6087291,2429,0,0_S
1775032473.610558,1833,0,0_S
1775032473.613554,1591,0,0_S
1775032473.6165571,1616,0,0_S
1775032473.622255,2147,0,0_S
1775032473.623731,2493,0,0_S
1775032473.626482,2169,0,0_S
1775032473.629317,1638,0,0_S
1775032473.631687,1649,0,0_S
1775032473.6345768,1764,0,0_S
1775032473.6379762,2376,0,0_S
1775032473.64072,2422,0,0_S
1775032473.644908,1922,0,0_S
1775032473.6486132,1586,0,0_S
1775032473.651873,1659,0,0_S
1775032473.654111,2190,0,0_S
1775032473.65586,2479,0,0_S
1775032473.658554,2208,0,0_S
1775032473.661563,1692,0,0_S
1775032473.666935,1640,0,0_S
1775032473.669188,1715,0,0_S
1775032473.6708028,2277,0,0_S
1775032473.6755981,2494,0,0_S
1775032473.677135,1963,0,0_S
1775032473.679768,1545,0,0_S
1775032473.682571,1579,0,0_S
1775032473.68885,2087,0,0_S
1775032473.6894999,2483,0,0_S
1775032473.691893,2303,0,0_S
1775032473.694813,1730,0,0_S
1775032473.698612,1705,0,0_S
1775032473.7011788,1680,0,0_S
1775032473.703542,2287,0,0_S
1775032473.706615,2495,0,0_S
1775032473.710277,2035,0,0_S
1775032473.713727,1562,0,0_S
1775032473.716088,1710,0,0_S
1775032473.719831,1905,0,0_S
1775032473.7215402,2374,0,0_S
1775032473.724546,2303,0,0_S
1775032473.727641,1775,0,0_S
1775032473.730737,1647,0,0_S
1775032473.7349062,1749,0,0_S
1775032473.737325,2207,0,0_S
1775032473.7396622,2547,0,0_S
1775032473.7425542,2210,0,0_S
1775032473.74563,1708,0,0_S
1775032473.7537532,1648,0,0_S
1775032473.754737,1813,0,0_S
1775032473.754921,2337,0,0_S
1775032473.758786,2369,0,0_S
1775032473.76116,1896,0,0_S
1775032473.7639308,1586,0,0_S
1775032473.766583,1524,0,0_S
1775032473.769444,2142,0,0_S
1775032473.774081,2515,0,0_S
1775032473.776256,2202,0,0_S
1775032473.783058,1667,0,0_S
1775032473.783603,1679,0,0_S
1775032473.785304,1765,0,0_S
1775032473.7879748,2299,0,0_S
1775032473.790563,2423,0,0_S
1775032473.7993212,1979,0,0_S
1775032473.7998478,1673,0,0_S
1775032473.801815,1615,0,0_S
1775032473.806823,2061,0,0_S
1775032473.807146,2481,0,0_S
1775032473.808893,2254,0,0_S
1775032473.811549,1713,0,0_S
1775032473.814453,1651,0,0_S
1775032473.821232,1691,0,0_S
1775032473.822582,2332,0,0_S
1775032473.825202,2461,0,0_S
1775032473.829637,2039,0,0_S
1775032473.829997,1639,0,0_S
1775032473.832791,1631,0,0_S
1775032473.835547,2004,0,0_S
1775032473.838437,2439,0,0_S
1775032473.843601,2267,0,0_S
1775032473.8473659,1773,0,0_S
1775032473.8484092,1613,0,0_S
1775032473.8520498,1641,0,0_S
1775032473.853724,2257,0,0_S
1775032473.8564532,2529,0,0_S
1775032473.859443,2099,0,0_S
1775032473.865698,1643,0,0_S
1775032473.867489,1655,0,0_S
1775032473.868991,1873,0,0_S
1775032473.874042,2402,0,0_S
1775032473.874534,2364,0,0_S
1775032473.877449,1803,0,0_S
1775032473.880448,1594,0,0_S
1775032473.8834932,1640,0,0_S
1775032473.888615,2219,0,0_S
1775032473.892174,2502,0,0_S
1775032473.893167,2157,0,0_S
1775032473.8964748,1657,0,0_S
1775032473.8984268,1594,0,0_S
1775032473.901452,1818,0,0_S
1775032473.904424,2496,0,0_S
1775032473.9117088,2473,0,0_S
1775032473.913616,1854,0,0_S
1775032473.9150841,1627,0,0_S
1775032473.918786,1666,0,0_S
1775032473.920498,2111,0,0_S
1775032473.92305,2466,0,0_S
1775032473.925615,2242,0,0_S
1775032473.931506,1706,0,0_S
1775032473.931851,1603,0,0_S
1775032473.935501,1752,0,0_S
1775032473.937973,2355,0,0_S
1775032473.941602,2433,0,0_S
1775032473.943424,2018,0,0_S
1775032473.946435,1600,0,0_S
1775032473.9494112,1588,0,0_S
1775032473.9532852,2011,0,0_S
1775032473.956597,2514,0,0_S
1775032473.95959,2161,0,0_S
1775032473.961728,1795,0,0_S
1775032473.964515,1702,0,0_S
1775032473.967458,1732,0,0_S
1775032473.973561,2228,0,0_S
1775032473.97365,2444,0,0_S
1775032473.9772959,1976,0,0_S
1775032473.979616,1737,0,0_S
1775032473.9833071,1485,0,0_S
1775032473.985858,1969,0,0_S
1775032473.9884522,2367,0,0_S
1775032473.994221,2351,0,0_S
1775032473.994951,1897,0,0_S
1775032473.9977238,1602,0,0_S
1775032474.002321,1699,0,0_S
1775032474.0040262,2334,0,0_S
1775032474.006579,2557,0,0_S
1775032474.009449,2059,0,0_S
1775032474.015043,1609,0,0_S
1775032474.0154529,1602,0,0_S
1775032474.020886,1942,0,0_S
1775032474.023048,2343,0,0_S
1775032474.024678,2334,0,0_S
1775032474.027444,1955,0,0_S
1775032474.0304441,1582,0,0_S
1775032474.036713,1576,0,0_S
1775032474.0382578,2122,0,0_S
1775032474.039773,2541,0,0_S
1775032474.044514,2107,0,0_S
1775032474.046222,1890,0,0_S
1775032474.048827,1645,0,0_S
1775032474.05146,1646,0,0_S
1775032474.057276,2462,0,0_S
1775032474.059273,2443,0,0_S
1775032474.0606039,1807,0,0_S
1775032474.0641851,1654,0,0_S
1775032474.068047,1631,0,0_S
1775032474.0699441,2097,0,0_S
1775032474.072499,2407,0,0_S
1775032474.075447,2159,0,0_S
1775032474.078457,1742,0,0_S
1775032474.082504,1683,0,0_S
1775032474.084506,1816,0,0_S
1775032474.0874848,2374,0,0_S
1775032474.09084,2446,0,0_S
1775032474.093632,1986,0,0_S
1775032474.096278,1614,0,0_S
1775032474.100093,1639,0,0_S
1775032474.105359,1986,0,0_S
1775032474.1057038,2441,0,0_S
1775032474.10906,2250,0,0_S
1775032474.1130922,1793,0,0_S
1775032474.114827,1580,0,0_S
1775032474.117381,1612,0,0_S
1775032474.120346,2351,0,0_S
1775032474.126451,2450,0,0_S
1775032474.12653,2095,0,0_S
1775032474.130023,1591,0,0_S
1775032474.132499,1645,0,0_S
1775032474.136221,1955,0,0_S
1775032474.138772,2455,0,0_S
1775032474.141355,2420,0,0_S
1775032474.146991,1804,0,0_S
1775032474.1474051,1609,0,0_S
1775032474.150912,1738,0,0_S
1775032474.155117,2190,0,0_S
1775032474.156634,2484,0,0_S
1775032474.159343,2113,0,0_S
1775032474.162318,1606,0,0_S
1775032474.168082,1550,0,0_S
1775032474.16956,1904,0,0_S
1775032474.171596,2464,0,0_S
1775032474.175696,2302,0,0_S
1775032474.177321,1816,0,0_S
1775032474.1803231,1686,0,0_S
1775032474.183338,1587,0,0_S
1775032474.187826,2151,0,0_S
1775032474.1898649,2492,0,0_S
1775032474.1938078,2022,0,0_S
1775032474.1959481,1781,0,0_S
1775032474.198687,1740,0,0_S
1775032474.201298,1822,0,0_S
1775032474.204322,2547,0,0_S
1775032474.2088919,2423,0,0_S
1775032474.211829,1802,0,0_S
1775032474.214533,1678,0,0_S
1775032474.2166789,1538,0,0_S
1775032474.2193909,2272,0,0_S
1775032474.222332,2421,0,0_S
1775032474.2254322,2083,0,0_S
1775032474.228441,1821,0,0_S
1775032474.232086,1680,0,0_S
1775032474.2365398,1710,0,0_S
1775032474.238144,2353,0,0_S
1775032474.240696,2480,0,0_S
1775032474.243318,1910,0,0_S
1775032474.249301,1614,0,0_S
1775032474.2500029,1577,0,0_S
1775032474.253317,1960,0,0_S
1775032474.255465,2417,0,0_S
1775032474.25908,2283,0,0_S
1775032474.261634,1788,0,0_S
1775032474.26432,1766,0,0_S
1775032474.270745,1771,0,0_S
1775032474.272066,2263,0,0_S
1775032474.274289,2400,0,0_S
1775032474.276339,2012,0,0_S
1775032474.279883,1559,0,0_S
1775032474.2824378,1658,0,0_S
1775032474.285323,1973,0,0_S
1775032474.2903738,2260,0,0_S
1775032474.292605,2370,0,0_S
1775032474.2946,1805,0,0_S
1775032474.2987,1640,0,0_S
1775032474.3003259,1738,0,0_S
1775032474.303334,2240,0,0_S
1775032474.306319,2482,0,0_S
1775032474.3110552,2147,0,0_S
1775032474.3126762,1632,0,0_S
1775032474.316681,1687,0,0_S
1775032474.3187919,1807,0,0_S
1775032474.321434,2367,0,0_S
1775032474.3242948,2294,0,0_S
1775032474.327316,1843,0,0_S
1775032474.332167,1723,0,0_S
1775032474.33484,1764,0,0_S
1775032474.337603,2083,0,0_S
1775032474.33967,2444,0,0_S
1775032474.34252,2182,0,0_S
1775032474.3453178,1620,0,0_S
1775032474.3483589,1752,0,0_S
1775032474.3536892,1913,0,0_S
1775032474.3560572,2325,0,0_S
1775032474.360781,2326,0,0_S
1775032474.360949,1928,0,0_S
1775032474.363626,1684,0,0_S
1775032474.3663192,1626,0,0_S
1775032474.369328,2098,0,0_S
1775032474.372927,2426,0,0_S
1775032474.376627,2153,0,0_S
1775032474.3795562,1662,0,0_S
1775032474.3818922,1774,0,0_S
1775032474.384484,1776,0,0_S
1775032474.387295,2283,0,0_S
1775032474.390316,2488,0,0_S
1775032474.394923,1945,0,0_S
1775032474.396838,1649,0,0_S
1775032474.39987,1572,0,0_S
1775032474.402924,1944,0,0_S
1775032474.4056761,2347,0,0_S
1775032474.4083378,2268,0,0_S
1775032474.4113228,1590,0,0_S
1775032474.415533,1656,0,0_S
1775032474.417381,1728,0,0_S
1775032474.42143,2562,0,0_S
1775032474.423558,2258,0,0_S
1775032474.426311,2150,0,0_S
1775032474.4292932,1629,0,0_S
1775032474.4323258,1787,0,0_S
1775032474.4358962,2005,0,0_S
1775032474.43945,2388,0,0_S
1775032474.442302,2306,0,0_S
1775032474.4445639,1787,0,0_S
1775032474.4473119,1600,0,0_S
1775032474.450315,1655,0,0_S
1775032474.453312,2166,0,0_S
1775032474.4565701,2387,0,0_S
1775032474.459936,2109,0,0_S
1775032474.464635,1595,0,0_S
1775032474.466223,1813,0,0_S
1775032474.468771,1763,0,0_S
1775032474.471283,2407,0,0_S
1775032474.476872,2377,0,0_S
1775032474.477513,1854,0,0_S
1775032474.480534,1641,0,0_S
1775032474.4849548,1662,0,0_S
1775032474.4863958,2122,0,0_S
1775032474.4893188,2400,0,0_S
1775032474.492317,2292,0,0_S
1775032474.497257,1752,0,0_S
1775032474.498931,1711,0,0_S
1775032474.5029519,1837,0,0_S
1775032474.505101,2381,0,0_S
1775032474.507318,2451,0,0_S
1775032474.510313,1957,0,0_S
1775032474.5133069,1509,0,0_S
1775032474.517453,1573,0,0_S
1775032474.521091,2156,0,0_S
1775032474.52265,2397,0,0_S
1775032474.525841,2125,0,0_S
1775032474.528543,1718,0,0_S
1775032474.531355,1641,0,0_S
1775032474.534333,1777,0,0_S
1775032474.538031,2292,0,0_S
1775032474.541288,2438,0,0_S
1775032474.5444322,1982,0,0_S
1775032474.546546,1591,0,0_S
1775032474.549319,1731,0,0_S
1775032474.552279,2057,0,0_S
1775032474.555286,2464,0,0_S
1775032474.558916,2360,0,0_S
1775032474.562469,1914,0,0_S
1775032474.565282,1644,0,0_S
1775032474.5674398,1726,0,0_S
1775032474.570293,2206,0,0_S
1775032474.573316,2505,0,0_S
1775032474.576297,1988,0,0_S
1775032474.5802538,1481,0,0_S
1775032474.58234,1763,0,0_S
1775032474.586439,1982,0,0_S
1775032474.588573,2302,0,0_S
1775032474.591312,2087,0,0_S
1775032474.594679,1824,0,0_S
1775032474.597331,1761,0,0_S
1775032474.6028428,1739,0,0_S
1775032474.6039228,2104,0,0_S
1775032474.607008,2403,0,0_S
1775032474.6120791,2185,0,0_S
1775032474.61236,1810,0,0_S
1775032474.615275,1718,0,0_S
1775032474.618295,1877,0,0_S
1775032474.621464,2437,0,0_S
1775032474.625489,2364,0,0_S
1775032474.6284218,1891,0,0_S
1775032474.631375,1652,0,0_S
1775032474.6335518,1595,0,0_S
1775032474.6363049,2114,0,0_S
1775032474.6392808,2346,0,0_S
1775032474.64242,2217,0,0_S
1775032474.645563,1736,0,0_S
1775032474.649565,1698,0,0_S
1775032474.651647,1745,0,0_S
1775032474.655293,2319,0,0_S
1775032474.657847,2447,0,0_S
1775032474.660407,2000,0,0_S
1775032474.666301,1658,0,0_S
1775032474.6666722,1660,0,0_S
1775032474.6702,2012,0,0_S
1775032474.674177,2422,0,0_S
1775032474.675849,2300,0,0_S
1775032474.678417,1792,0,0_S
1775032474.681302,1546,0,0_S
1775032474.686514,1560,0,0_S
1775032474.688488,2246,0,0_S
1775032474.690507,2420,0,0_S
1775032474.694622,2105,0,0_S
1775032474.696299,1612,0,0_S
1775032474.699295,1637,0,0_S
1775032474.702293,1945,0,0_S
1775032474.70649,2476,0,0_S
1775032474.708791,2343,0,0_S
1775032474.712839,1815,0,0_S
1775032474.7150111,1601,0,0_S
1775032474.717744,1679,0,0_S
1775032474.720305,2255,0,0_S
1775032474.7233012,2330,0,0_S
1775032474.727375,2024,0,0_S
1775032474.730718,1595,0,0_S
1775032474.7324018,1685,0,0_S
1775032474.7354019,1883,0,0_S
1775032474.738314,2362,0,0_S
1775032474.741285,2289,0,0_S
1775032474.747222,1841,0,0_S
1775032474.747552,1662,0,0_S
1775032474.751132,1691,0,0_S
1775032474.7534919,2177,0,0_S
1775032474.7571552,2441,0,0_S
1775032474.759704,2114,0,0_S
1775032474.7622669,1647,0,0_S
1775032474.768321,1783,0,0_S
1775032474.76866,1718,0,0_S
1775032474.772073,2308,0,0_S
1775032474.77437,2350,0,0_S
1775032474.7780612,1914,0,0_S
1775032474.7806249,1708,0,0_S
1775032474.78317,1693,0,0_S
1775032474.789827,2059,0,0_S
1775032474.7905438,2391,0,0_S
1775032474.793429,2197,0,0_S
1775032474.79542,1723,0,0_S
1775032474.798678,1656,0,0_S
1775032474.801291,1782,0,0_S
1775032474.804171,2343,0,0_S
1775032474.807192,2404,0,0_S
1775032474.813387,2009,0,0_S
1775032474.814821,1727,0,0_S
1775032474.818027,1595,0,0_S
1775032474.819942,2011,0,0_S
1775032474.822401,2398,0,0_S
1775032474.825185,2238,0,0_S
1775032474.828186,1844,0,0_S
1775032474.8316119,1540,0,0_S
1775032474.836533,1674,0,0_S
1775032474.840048,2192,0,0_S
1775032474.8404212,2394,0,0_S
1775032474.845491,2065,0,0_S
1775032474.846983,1773,0,0_S
1775032474.8494809,1694,0,0_S
1775032474.852203,1932,0,0_S
1775032474.858324,2406,0,0_S
1775032474.8589282,2284,0,0_S
1775032474.8622952,1805,0,0_S
1775032474.864444,1683,0,0_S
1775032474.868267,1737,0,0_S
1775032474.8701692,2223,0,0_S
1775032474.873195,2364,0,0_S
1775032474.876385,2064,0,0_S
1775032474.880359,1706,0,0_S
1775032474.883496,1730,0,0_S
1775032474.8854132,1970,0,0_S
1775032474.888597,2379,0,0_S
1775032474.891196,2261,0,0_S
1775032474.894173,1920,0,0_S
1775032474.8971672,1402,0,0_S
1775032474.9010189,1713,0,0_S
1775032474.903147,2111,0,0_S
1775032474.90725,2386,0,0_S
1775032474.9093351,2109,0,0_S
1775032474.9121559,1677,0,0_S
1775032474.915155,1769,0,0_S
1775032474.918199,1951,0,0_S
1775032474.922524,2348,0,0_S
1775032474.9249952,2320,0,0_S
1775032474.927941,1867,0,0_S
1775032474.931166,1610,0,0_S
1775032474.933153,1727,0,0_S
1775032474.9361632,2104,0,0_S
1775032474.93919,2366,0,0_S
1775032474.944837,2185,0,0_S
1775032474.9459321,1676,0,0_S
1775032474.948273,1738,0,0_S
1775032474.953144,1830,0,0_S
1775032474.954902,2274,0,0_S
1775032474.957464,2348,0,0_S
1775032474.960386,2012,0,0_S
1775032474.966918,1638,0,0_S
1775032474.967649,1723,0,0_S
1775032474.970328,2031,0,0_S
1775032474.9733398,2436,0,0_S
1775032474.975431,2178,0,0_S
1775032474.978148,1782,0,0_S
1775032474.981174,1727,0,0_S
1775032474.9867678,1745,0,0_S
1775032474.987211,2262,0,0_S
1775032474.990718,2331,0,0_S
1775032474.9949281,2009,0,0_S
1775032474.99663,1719,0,0_S
1775032474.999229,1656,0,0_S
1775032475.00218,1918,0,0_S
1775032475.008946,2432,0,0_S
1775032475.0090098,2241,0,0_S
1775032475.011453,1774,0,0_S
1775032475.014511,1742,0,0_S
1775032475.018371,1672,0,0_S
1775032475.020153,2134,0,0_S
1775032475.023156,2394,0,0_S
1775032475.027955,2279,0,0_S
1775032475.03006,1727,0,0_S
1775032475.032799,1708,0,0_S
1775032475.036614,1796,0,0_S
1775032475.038275,2298,0,0_S
1775032475.041166,2288,0,0_S
1775032475.044186,1859,0,0_S
1775032475.049941,1616,0,0_S
1775032475.050648,1664,0,0_S
1775032475.053299,2129,0,0_S
1775032475.058204,2462,0,0_S
1775032475.059894,2104,0,0_S
1775032475.062455,1737,0,0_S
1775032475.065142,1817,0,0_S
1775032475.070404,1818,0,0_S
1775032475.072194,2406,0,0_S
1775032475.0748742,2410,0,0_S
1775032475.0783691,1915,0,0_S
1775032475.0801768,1729,0,0_S
1775032475.0831711,1635,0,0_S
1775032475.086178,2012,0,0_S
1775032475.09157,2320,0,0_S
1775032475.0930712,2192,0,0_S
1775032475.0961988,1779,0,0_S
1775032475.101569,1645,0,0_S
1775032475.101772,1692,0,0_S
1775032475.1045508,2231,0,0_S
1775032475.107167,2549,0,0_S
1775032475.1101718,2198,0,0_S
1775032475.115712,1679,0,0_S
1775032475.117335,1614,0,0_S
1775032475.11964,1943,0,0_S
1775032475.124224,2433,0,0_S
1775032475.1259892,2186,0,0_S
1775032475.1287098,1876,0,0_S
1775032475.131215,1521,0,0_S
1775032475.134182,1677,0,0_S
1775032475.137843,2247,0,0_S
1775032475.141736,2527,0,0_S
1775032475.14359,1990,0,0_S
1775032475.146967,1609,0,0_S
1775032475.1496582,1807,0,0_S
1775032475.1522272,2006,0,0_S
1775032475.155176,2326,0,0_S
1775032475.15998,2231,0,0_S
1775032475.1619499,1803,0,0_S
1775032475.16505,1592,0,0_S
1775032475.168121,1738,0,0_S
1775032475.170157,2296,0,0_S
1775032475.173179,2348,0,0_S
1775032475.176148,2019,0,0_S
1775032475.181034,1807,0,0_S
1775032475.183157,1656,0,0_S
1775032475.1852229,1850,0,0_S
1775032475.189304,2374,0,0_S
1775032475.191152,2396,0,0_S
1775032475.1941729,1839,0,0_S
1775032475.1971798,1702,0,0_S
1775032475.202121,1692,0,0_S
1775032475.2043881,2122,0,0_S
1775032475.20651,2475,0,0_S
1775032475.2106931,2163,0,0_S
1775032475.212415,1602,0,0_S
1775032475.215425,1670,0,0_S
1775032475.2294369,1636,0,0_S
1775032475.2294762,2446,0,0_S
1775032475.229543,2430,0,0_S
1775032475.229571,1986,0,0_S
1775032475.235314,1560,0,0_S
1775032475.236848,1678,0,0_S
1775032475.2369568,2162,0,0_S
1775032475.241431,2526,0,0_S
1775032475.243722,2134,0,0_S
1775032475.2453911,1703,0,0_S
1775032475.2481868,1741,0,0_S
1775032475.254186,1815,0,0_S
1775032475.2549582,2220,0,0_S
1775032475.2587361,2413,0,0_S
1775032475.260972,1989,0,0_S
1775032475.264844,1592,0,0_S
1775032475.26654,1805,0,0_S
1775032475.2691798,1942,0,0_S
1775032475.2721732,2325,0,0_S
1775032475.27823,2329,0,0_S
1775032475.281106,1820,0,0_S
1775032475.284547,1730,0,0_S
1775032475.2847319,1777,0,0_S
1775032475.288194,2127,0,0_S
1775032475.29089,2504,0,0_S
1775032475.2934809,2154,0,0_S
1775032475.296221,1653,0,0_S
1775032475.301926,1576,0,0_S
1775032475.302977,1841,0,0_S
1775032475.305902,2377,0,0_S
1775032475.309505,2278,0,0_S
1775032475.311191,1849,0,0_S
1775032475.314136,1728,0,0_S
1775032475.317188,1669,0,0_S
1775032475.3235998,2166,0,0_S
1775032475.324934,2459,0,0_S
1775032475.328106,2297,0,0_S
1775032475.332892,1707,0,0_S
1775032475.334145,1649,0,0_S
1775032475.335538,1747,0,0_S
1775032475.33839,2360,0,0_S
1775032475.341155,2299,0,0_S
1775032475.349788,1967,0,0_S
1775032475.351847,1672,0,0_S
1775032475.352293,1703,0,0_S
1775032475.354979,2004,0,0_S
1775032475.357354,2468,0,0_S
1775032475.3592,2241,0,0_S
1775032475.362151,1735,0,0_S
1775032475.365161,1702,0,0_S
1775032475.3716538,1740,0,0_S
1775032475.373112,2253,0,0_S
1775032475.3768802,2362,0,0_S
1775032475.378855,1949,0,0_S
1775032475.3814,1712,0,0_S
1775032475.383324,1653,0,0_S
1775032475.386158,1897,0,0_S
1775032475.389157,2489,0,0_S
1775032475.3959239,2338,0,0_S
1775032475.397867,1854,0,0_S
1775032475.398091,1561,0,0_S
1775032475.404706,1631,0,0_S
1775032475.404902,2243,0,0_S
1775032475.407734,2538,0,0_S
1775032475.410333,2001,0,0_S
1775032475.4130418,1614,0,0_S
1775032475.41885,1662,0,0_S
1775032475.419173,1946,0,0_S
1775032475.422914,2389,0,0_S
1775032475.425139,2328,0,0_S
1775032475.4291,1887,0,0_S
1775032475.431701,1630,0,0_S
1775032475.43421,1589,0,0_S
1775032475.437061,2114,0,0_S
1775032475.444297,2399,0,0_S
1775032475.4461088,2156,0,0_S
1775032475.446702,1701,0,0_S
1775032475.451704,1593,0,0_S
1775032475.452097,1813,0,0_S
1775032475.455056,2472,0,0_S
1775032475.458049,2503,0,0_S
1775032475.4610481,1869,0,0_S
1775032475.468331,1670,0,0_S
1775032475.470338,1678,0,0_S
1775032475.472275,2111,0,0_S
1775032475.4759848,2463,0,0_S
1775032475.4761221,2082,0,0_S
1775032475.479033,1649,0,0_S
1775032475.48205,1707,0,0_S
1775032475.485065,1830,0,0_S
1775032475.490954,2253,0,0_S
1775032475.492322,2428,0,0_S
1775032475.494276,2046,0,0_S
1775032475.499071,1662,0,0_S
1775032475.500742,1562,0,0_S
1775032475.5033731,2034,0,0_S
1775032475.506037,2426,0,0_S
1775032475.513008,2225,0,0_S
1775032475.514569,1714,0,0_S
1775032475.516588,1710,0,0_S
1775032475.5214221,1747,0,0_S
1775032475.521861,2316,0,0_S
1775032475.524789,2466,0,0_S
1775032475.5273979,2120,0,0_S
1775032475.530026,1602,0,0_S
1775032475.535883,1599,0,0_S
1775032475.53987,2014,0,0_S
1775032475.54059,2360,0,0_S
1775032475.544446,2241,0,0_S
1775032475.546387,1816,0,0_S
1775032475.548034,1732,0,0_S
1775032475.551178,1644,0,0_S
1775032475.554081,2163,0,0_S
1775032475.558402,2563,0,0_S
1775032475.560097,2035,0,0_S
1775032475.5665169,1743,0,0_S
1775032475.566685,1680,0,0_S
1775032475.5695622,1894,0,0_S
1775032475.572202,2528,0,0_S
1775032475.575045,2303,0,0_S
1775032475.580281,1733,0,0_S
1775032475.582079,1652,0,0_S
1775032475.585071,1612,0,0_S
1775032475.588056,2193,0,0_S
1775032475.590061,2493,0,0_S
1775032475.5930612,2048,0,0_S
1775032475.596019,1600,0,0_S
1775032475.601333,1656,0,0_S
1775032475.603189,1877,0,0_S
1775032475.605458,2394,0,0_S
1775032475.609405,2422,0,0_S
1775032475.611058,1876,0,0_S
1775032475.6140401,1687,0,0_S
1775032475.617026,1593,0,0_S
1775032475.6223629,2074,0,0_S
1775032475.62549,2555,0,0_S
1775032475.626174,2229,0,0_S
1775032475.63083,1661,0,0_S
1775032475.63241,1687,0,0_S
1775032475.635069,1766,0,0_S
1775032475.638026,2309,0,0_S
1775032475.6442602,2397,0,0_S
1775032475.644361,1986,0,0_S
1775032475.648135,1554,0,0_S
1775032475.651328,1665,0,0_S
1775032475.653576,2031,0,0_S
1775032475.6561658,2444,0,0_S
1775032475.659555,2355,0,0_S
1775032475.662444,1681,0,0_S
1775032475.665081,1594,0,0_S
1775032475.6692832,1703,0,0_S
1775032475.671689,2328,0,0_S
1775032475.675452,2587,0,0_S
1775032475.678734,1918,0,0_S
1775032475.680647,1539,0,0_S
1775032475.6831942,1665,0,0_S
1775032475.686037,1991,0,0_S
1775032475.692132,2531,0,0_S
1775032475.692523,2384,0,0_S
1775032475.695678,1753,0,0_S
1775032475.700217,1548,0,0_S
1775032475.7015522,1743,0,0_S
1775032475.704115,2243,0,0_S
1775032475.70703,2457,0,0_S
1775032475.713275,2112,0,0_S
1775032475.713693,1636,0,0_S
1775032475.717021,1655,0,0_S
1775032475.719872,1827,0,0_S
1775032475.722087,2334,0,0_S
1775032475.725049,2411,0,0_S
1775032475.7280262,1862,0,0_S
1775032475.731037,1581,0,0_S
1775032475.734397,1682,0,0_S
1775032475.738034,2166,0,0_S
1775032475.740417,2510,0,0_S
1775032475.743788,2236,0,0_S
1775032475.746339,1627,0,0_S
1775032475.7490308,1678,0,0_S
1775032475.754532,1828,0,0_S
1775032475.7552269,2333,0,0_S
1775032475.758414,2326,0,0_S
1775032475.762763,2029,0,0_S
1775032475.7642639,1645,0,0_S
1775032475.767097,1622,0,0_S
1775032475.770051,2092,0,0_S
1775032475.775394,2457,0,0_S
1775032475.776375,2211,0,0_S
1775032475.780313,1742,0,0_S
1775032475.783336,1731,0,0_S
1775032475.785059,1796,0,0_S
1775032475.788043,2312,0,0_S
1775032475.791044,2439,0,0_S
1775032475.795424,1979,0,0_S
1775032475.7974741,1622,0,0_S
1775032475.801599,1616,0,0_S
1775032475.803614,1976,0,0_S
1775032475.806265,2512,0,0_S
1775032475.8090491,2262,0,0_S
1775032475.812026,1760,0,0_S
1775032475.8161988,1616,0,0_S
1775032475.819154,1656,0,0_S
1775032475.822104,2259,0,0_S
1775032475.824121,2523,0,0_S
1775032475.827043,2063,0,0_S
1775032475.830654,1669,0,0_S
1775032475.83659,1610,0,0_S
1775032475.837305,1940,0,0_S
1775032475.840031,2434,0,0_S
1775032475.842857,2303,0,0_S
1775032475.845121,1887,0,0_S
1775032475.848033,1637,0,0_S
1775032475.851628,1652,0,0_S
1775032475.854176,2228,0,0_S
1775032475.858687,2508,0,0_S
1775032475.86016,2107,0,0_S
1775032475.863169,1569,0,0_S
1775032475.8662841,1598,0,0_S
1775032475.8690612,1842,0,0_S
1775032475.872056,2382,0,0_S
1775032475.875073,2427,0,0_S
1775032475.8791091,1927,0,0_S
1775032475.882477,1677,0,0_S
1775032475.884544,1598,0,0_S
1775032475.8880699,2136,0,0_S
1775032475.89042,2530,0,0_S
1775032475.893046,2161,0,0_S
1775032475.898991,1607,0,0_S
1775032475.900162,1742,0,0_S
1775032475.902665,1759,0,0_S
1775032475.9070349,2357,0,0_S
1775032475.908654,2434,0,0_S
1775032475.9112,1934,0,0_S
1775032475.914019,1633,0,0_S
1775032475.919691,1604,0,0_S
1775032475.9207199,2119,0,0_S
1775032475.923817,2437,0,0_S
1775032475.9263182,2208,0,0_S
1775032475.9296582,1678,0,0_S
1775032475.9322171,1629,0,0_S
1775032475.9350688,1694,0,0_S
1775032475.941996,2371,0,0_S
1775032475.942143,2514,0,0_S
1775032475.944792,2037,0,0_S
1775032475.949287,1656,0,0_S
1775032475.950899,1596,0,0_S
1775032475.95345,2056,0,0_S
1775032475.9560509,2472,0,0_S
1775032475.961993,2261,0,0_S
1775032475.962652,1773,0,0_S
1775032475.965306,1620,0,0_S
1775032475.9697359,1732,0,0_S
1775032475.971375,2198,0,0_S
1775032475.97402,2500,0,0_S
1775032475.9770482,2134,0,0_S
1775032475.982274,1599,0,0_S
1775032475.984302,1606,0,0_S
1775032475.9866948,1893,0,0_S
1775032475.990491,2499,0,0_S
1775032475.992057,2295,0,0_S
1775032475.994915,1800,0,0_S
1775032475.99791,1698,0,0_S
1775032476.002739,1589,0,0_S
1775032476.004686,2205,0,0_S
1775032476.0076978,2582,0,0_S
1775032476.0107672,2145,0,0_S
1775032476.013443,1613,0,0_S
1775032476.015998,1678,0,0_S
1775032476.018923,1844,0,0_S
1775032476.023179,2391,0,0_S
1775032476.025111,2358,0,0_S
1775032476.028034,1902,0,0_S
1775032476.0310662,1611,0,0_S
1775032476.033904,1587,0,0_S
1775032476.0377119,2097,0,0_S
1775032476.044385,2430,0,0_S
1775032476.0447419,2280,0,0_S
1775032476.0471308,1662,0,0_S
1775032476.0500438,1629,0,0_S
1775032476.052135,1798,0,0_S
1775032476.054925,2362,0,0_S
1775032476.057906,2452,0,0_S
1775032476.0610602,1998,0,0_S
1775032476.064654,1610,0,0_S
1775032476.068643,1661,0,0_S
1775032476.070508,2033,0,0_S
1775032476.073869,2464,0,0_S
1775032476.076374,2288,0,0_S
1775032476.078939,1698,0,0_S
1775032476.0848892,1621,0,0_S
1775032476.085206,1721,0,0_S
1775032476.088892,2305,0,0_S
1775032476.091371,2519,0,0_S
1775032476.094814,2037,0,0_S
1775032476.097308,1576,0,0_S
1775032476.099913,1597,0,0_S
1775032476.106362,1987,0,0_S
1775032476.106956,2451,0,0_S
1775032476.109482,2363,0,0_S
1775032476.113837,1823,0,0_S
1775032476.115378,1571,0,0_S
1775032476.1179578,1649,0,0_S
1775032476.1209211,2301,0,0_S
1775032476.126567,2497,0,0_S
1775032476.127244,2110,0,0_S
1775032476.1303198,1661,0,0_S
1775032476.1346612,1598,0,0_S
1775032476.136134,1861,0,0_S
1775032476.138922,2430,0,0_S
1775032476.141921,2326,0,0_S
1775032476.146942,1821,0,0_S
1775032476.148824,1620,0,0_S
1775032476.1515598,1613,0,0_S
1775032476.1550138,2212,0,0_S
1775032476.156919,2487,0,0_S
1775032476.1599329,2164,0,0_S
1775032476.162894,1683,0,0_S
1775032476.1690948,1661,0,0_S
1775032476.169139,1892,0,0_S
1775032476.1737769,2397,0,0_S
1775032476.1777978,2403,0,0_S
1775032476.178217,1861,0,0_S
1775032476.1809201,1565,0,0_S
1775032476.183928,1628,0,0_S
1775032476.186917,2162,0,0_S
1775032476.1917062,2468,0,0_S
1775032476.193234,2243,0,0_S
1775032476.196162,1701,0,0_S
1775032476.199338,1626,0,0_S
1775032476.202098,1806,0,0_S
1775032476.204921,2322,0,0_S
1775032476.207906,2448,0,0_S
1775032476.212181,1924,0,0_S
1775032476.2140548,1589,0,0_S
1775032476.217103,1598,0,0_S
1775032476.2202759,2050,0,0_S
1775032476.223099,2451,0,0_S
1775032476.2259111,2257,0,0_S
1775032476.22892,1797,0,0_S
1775032476.233074,1685,0,0_S
1775032476.236049,1723,0,0_S
1775032476.23904,2295,0,0_S
1775032476.24102,2458,0,0_S
1775032476.243927,2010,0,0_S
1775032476.2468832,1602,0,0_S
1775032476.2499058,1618,0,0_S
1775032476.2552462,1953,0,0_S
1775032476.2566621,2419,0,0_S
1775032476.2612789,2371,0,0_S
1775032476.2627368,1783,0,0_S
1775032476.265289,1646,0,0_S
1775032476.267926,1690,0,0_S
1775032476.2744079,2241,0,0_S
1775032476.2755609,2538,0,0_S
1775032476.277097,2118,0,0_S
1775032476.281489,1638,0,0_S
1775032476.2829928,1614,0,0_S
1775032476.2859058,1828,0,0_S
1775032476.288901,2399,0,0_S
1775032476.293971,2316,0,0_S
1775032476.295691,1769,0,0_S
1775032476.299755,1652,0,0_S
1775032476.301945,1618,0,0_S
1775032476.304708,2235,0,0_S
1775032476.307251,2524,0,0_S
1775032476.309909,2204,0,0_S
1775032476.314069,1696,0,0_S
1775032476.3167229,1666,0,0_S
1775032476.32162,1822,0,0_S
1775032476.3219771,2402,0,0_S
1775032476.324911,2430,0,0_S
1775032476.327883,1883,0,0_S
1775032476.333975,1604,0,0_S
1775032476.334364,1549,0,0_S
1775032476.337837,2049,0,0_S
1775032476.340829,2530,0,0_S
1775032476.342976,2306,0,0_S
1775032476.345922,1681,0,0_S
1775032476.348902,1615,0,0_S
1775032476.3519208,1732,0,0_S
1775032476.354898,2312,0,0_S
