timestamp,ch1,ch2,label
1775033189.669079,242011,0,7_S
1775033189.675931,1668,0,7_S
1775033189.677272,1784,0,7_S
1775033189.67922,1991,0,7_S
1775033189.681098,2273,0,7_S
1775033189.6839008,2254,0,7_S
1775033189.686896,1819,0,7_S
1775033189.689906,1722,0,7_S
1775033189.6964638,1766,0,7_S
1775033189.6967301,2276,0,7_S
1775033189.6997209,2455,0,7_S
1775033189.702912,1979,0,7_S
1775033189.705484,1630,0,7_S
1775033189.708042,1772,0,7_S
1775033189.711052,1982,0,7_S
1775033189.7162828,2346,0,7_S
1775033189.719581,2197,0,7_S
1775033189.721837,1820,0,7_S
1775033189.72352,1759,0,7_S
1775033189.72597,1764,0,7_S
1775033189.728909,2156,0,7_S
1775033189.731906,2372,0,7_S
1775033189.739147,2055,0,7_S
1775033189.7408168,1728,0,7_S
1775033189.742937,1683,0,7_S
1775033189.745551,1887,0,7_S
1775033189.74807,2247,0,7_S
1775033189.74991,2468,0,7_S
1775033189.752893,1828,0,7_S
1775033189.755934,1701,0,7_S
1775033189.760051,1747,0,7_S
1775033189.7622552,2177,0,7_S
1775033189.765579,2334,0,7_S
1775033189.769414,2182,0,7_S
1775033189.770915,1693,0,7_S
1775033189.7739048,1711,0,7_S
1775033189.776913,1786,0,7_S
1775033189.7828422,2296,0,7_S
1775033189.784183,2395,0,7_S
1775033189.7860239,1951,0,7_S
1775033189.789633,1687,0,7_S
1775033189.7924402,1750,0,7_S
1775033189.795028,2023,0,7_S
1775033189.797916,2343,0,7_S
1775033189.803308,2137,0,7_S
1775033189.804551,1728,0,7_S
1775033189.808673,1732,0,7_S
1775033189.810921,1753,0,7_S
1775033189.8135412,2241,0,7_S
1775033189.816138,2465,0,7_S
1775033189.818899,1957,0,7_S
1775033189.823062,1687,0,7_S
1775033189.826561,1729,0,7_S
1775033189.828831,2057,0,7_S
1775033189.8312361,2349,0,7_S
1775033189.833919,2201,0,7_S
1775033189.8369222,1762,0,7_S
1775033189.8428428,1715,0,7_S
1775033189.8432078,1754,0,7_S
1775033189.847309,2223,0,7_S
1775033189.8493881,2418,0,7_S
1775033189.8517811,2051,0,7_S
1775033189.854762,1712,0,7_S
1775033189.8586051,1734,0,7_S
1775033189.8643682,1941,0,7_S
1775033189.864814,2337,0,7_S
1775033189.867326,2282,0,7_S
1775033189.8708348,1798,0,7_S
1775033189.873527,1681,0,7_S
1775033189.876083,1716,0,7_S
1775033189.878803,2168,0,7_S
1775033189.8834481,2405,0,7_S
1775033189.885719,2144,0,7_S
1775033189.888441,1720,0,7_S
1775033189.891998,1738,0,7_S
1775033189.893782,1826,0,7_S
1775033189.8967922,2295,0,7_S
1775033189.899769,2312,0,7_S
1775033189.903842,1837,0,7_S
1775033189.905802,1709,0,7_S
1775033189.9099588,1699,0,7_S
1775033189.9123158,2108,0,7_S
1775033189.914864,2415,0,7_S
1775033189.9177651,2130,0,7_S
1775033189.923885,1713,0,7_S
1775033189.924269,1737,0,7_S
1775033189.927788,1796,0,7_S
1775033189.9304671,2296,0,7_S
1775033189.932821,2405,0,7_S
1775033189.93577,1937,0,7_S
1775033189.9387882,1681,0,7_S
1775033189.944868,1702,0,7_S
1775033189.945546,2049,0,7_S
1775033189.9488719,2384,0,7_S
1775033189.951222,2175,0,7_S
1775033189.953778,1769,0,7_S
1775033189.9619808,1775,0,7_S
1775033189.9650261,1743,0,7_S
1775033189.965101,2201,0,7_S
1775033189.969644,2358,0,7_S
1775033189.971353,1955,0,7_S
1775033189.972055,1713,0,7_S
1775033189.9752011,1814,0,7_S
1775033189.978576,2065,0,7_S
1775033189.981486,2378,0,7_S
1775033189.984082,2249,0,7_S
1775033189.98677,1715,0,7_S
1775033189.99392,1718,0,7_S
1775033189.9953809,1746,0,7_S
1775033189.996889,2185,0,7_S
1775033190.001119,2396,0,7_S
1775033190.003222,2007,0,7_S
1775033190.0047748,1681,0,7_S
1775033190.007776,1751,0,7_S
1775033190.010907,1969,0,7_S
1775033190.0148532,2376,0,7_S
1775033190.017799,2294,0,7_S
1775033190.020848,1817,0,7_S
1775033190.023461,1741,0,7_S
1775033190.0260549,1720,0,7_S
1775033190.0287738,2128,0,7_S
1775033190.036932,2331,0,7_S
1775033190.0370471,2100,0,7_S
1775033190.038545,1761,0,7_S
1775033190.042212,1781,0,7_S
1775033190.0440729,1875,0,7_S
1775033190.046823,2340,0,7_S
1775033190.049803,2316,0,7_S
1775033190.056688,1786,0,7_S
1775033190.057219,1694,0,7_S
1775033190.061206,1669,0,7_S
1775033190.0620842,2103,0,7_S
1775033190.06624,2383,0,7_S
1775033190.067861,2119,0,7_S
1775033190.0708852,1767,0,7_S
1775033190.0738199,1797,0,7_S
1775033190.079115,1814,0,7_S
1775033190.0821881,2358,0,7_S
1775033190.082983,2378,0,7_S
1775033190.087557,1940,0,7_S
1775033190.088921,1702,0,7_S
1775033190.0917828,1684,0,7_S
1775033190.094781,2024,0,7_S
1775033190.101203,2353,0,7_S
1775033190.1013708,2182,0,7_S
1775033190.105798,1760,0,7_S
1775033190.108497,1718,0,7_S
1775033190.109941,1774,0,7_S
1775033190.112771,2254,0,7_S
1775033190.115778,2340,0,7_S
1775033190.1197162,1960,0,7_S
1775033190.123907,1707,0,7_S
1775033190.126204,1744,0,7_S
1775033190.1289952,2044,0,7_S
1775033190.1307762,2349,0,7_S
1775033190.133775,2195,0,7_S
1775033190.136962,1784,0,7_S
1775033190.1427572,1770,0,7_S
1775033190.14288,1733,0,7_S
1775033190.147104,2176,0,7_S
1775033190.149821,2409,0,7_S
1775033190.15255,2046,0,7_S
1775033190.155191,1724,0,7_S
1775033190.158015,1715,0,7_S
1775033190.1623821,1911,0,7_S
1775033190.165993,2334,0,7_S
1775033190.168114,2298,0,7_S
1775033190.1709702,1823,0,7_S
1775033190.17278,1743,0,7_S
1775033190.175782,1701,0,7_S
1775033190.181865,2159,0,7_S
1775033190.1845021,2429,0,7_S
1775033190.18623,2053,0,7_S
1775033190.189137,1666,0,7_S
1775033190.191586,1798,0,7_S
1775033190.194158,1882,0,7_S
1775033190.1967092,2296,0,7_S
1775033190.202595,2311,0,7_S
1775033190.20292,1875,0,7_S
1775033190.206657,1631,0,7_S
1775033190.209066,1686,0,7_S
1775033190.2116811,2149,0,7_S
1775033190.2146728,2440,0,7_S
1775033190.217667,2145,0,7_S
1775033190.223156,1686,0,7_S
1775033190.2243772,1706,0,7_S
1775033190.227165,1828,0,7_S
1775033190.229696,2301,0,7_S
1775033190.2331011,2388,0,7_S
1775033190.235692,1919,0,7_S
1775033190.238653,1721,0,7_S
1775033190.245179,1703,0,7_S
1775033190.245311,2115,0,7_S
1775033190.249279,2435,0,7_S
1775033190.251768,2165,0,7_S
1775033190.253668,1718,0,7_S
1775033190.2566662,1734,0,7_S
1775033190.2596412,1743,0,7_S
1775033190.2641191,2209,0,7_S
1775033190.266784,2395,0,7_S
1775033190.26971,1972,0,7_S
1775033190.2724328,1727,0,7_S
1775033190.275033,1714,0,7_S
1775033190.277753,1992,0,7_S
1775033190.283627,2357,0,7_S
1775033190.284215,2230,0,7_S
1775033190.287328,1836,0,7_S
1775033190.2907178,1733,0,7_S
1775033190.29268,1724,0,7_S
1775033190.295661,2220,0,7_S
1775033190.2986681,2385,0,7_S
1775033190.304827,2065,0,7_S
1775033190.3052192,1720,0,7_S
1775033190.307755,1751,0,7_S
1775033190.311699,1890,0,7_S
1775033190.313659,2395,0,7_S
1775033190.316671,2247,0,7_S
1775033190.31965,1755,0,7_S
1775033190.3246028,1669,0,7_S
1775033190.326334,1678,0,7_S
1775033190.330428,2117,0,7_S
1775033190.3329668,2434,0,7_S
1775033190.334651,2099,0,7_S
1775033190.337683,1862,0,7_S
1775033190.3406668,1832,0,7_S
1775033190.3452108,1829,0,7_S
1775033190.346905,2277,0,7_S
1775033190.351965,2339,0,7_S
1775033190.353645,1834,0,7_S
1775033190.356195,1663,0,7_S
1775033190.358797,1725,0,7_S
1775033190.3616982,2125,0,7_S
1775033190.3650181,2357,0,7_S
1775033190.3683982,1995,0,7_S
1775033190.3718631,1660,0,7_S
1775033190.3736582,1830,0,7_S
1775033190.376637,1949,0,7_S
1775033190.379631,2410,0,7_S
1775033190.385695,2327,0,7_S
1775033190.386392,1873,0,7_S
1775033190.389197,1696,0,7_S
1775033190.392709,1775,0,7_S
1775033190.395185,2053,0,7_S
1775033190.3977358,2380,0,7_S
1775033190.400665,2119,0,7_S
1775033190.4058838,1770,0,7_S
1775033190.407613,1678,0,7_S
1775033190.410419,1723,0,7_S
1775033190.412749,2266,0,7_S
1775033190.4156642,2409,0,7_S
1775033190.418665,2003,0,7_S
1775033190.421626,1643,0,7_S
1775033190.42644,1773,0,7_S
1775033190.4281769,2091,0,7_S
1775033190.430946,2322,0,7_S
1775033190.4344928,2160,0,7_S
1775033190.437284,1839,0,7_S
1775033190.439839,1710,0,7_S
1775033190.442657,1716,0,7_S
1775033190.4461539,2325,0,7_S
1775033190.449722,2330,0,7_S
1775033190.4520261,1961,0,7_S
1775033190.45474,1689,0,7_S
1775033190.45767,1779,0,7_S
1775033190.460629,1961,0,7_S
1775033190.466201,2303,0,7_S
1775033190.466802,2247,0,7_S
1775033190.470411,1872,0,7_S
1775033190.4727292,1744,0,7_S
1775033190.475671,1737,0,7_S
1775033190.478644,2163,0,7_S
1775033190.4816709,2369,0,7_S
1775033190.48685,2014,0,7_S
1775033190.488734,1724,0,7_S
1775033190.49181,1804,0,7_S
1775033190.494177,1853,0,7_S
1775033190.496843,2298,0,7_S
1775033190.49963,2294,0,7_S
1775033190.502649,1926,0,7_S
1775033190.5072472,1723,0,7_S
1775033190.5094159,1760,0,7_S
1775033190.511668,2093,0,7_S
1775033190.5148501,2354,0,7_S
1775033190.517642,2023,0,7_S
1775033190.520637,1701,0,7_S
1775033190.523756,1783,0,7_S
1775033190.527085,1849,0,7_S
1775033190.5303628,2324,0,7_S
1775033190.533057,2372,0,7_S
1775033190.535773,1967,0,7_S
1775033190.538668,1708,0,7_S
1775033190.541641,1768,0,7_S
1775033190.547904,2024,0,7_S
1775033190.5482528,2379,0,7_S
1775033190.551317,2287,0,7_S
1775033190.55367,1510,0,7_S
1775033190.5566669,1757,0,7_S
1775033190.559523,1966,0,7_S
1775033190.562541,2109,0,7_S
1775033190.56816,2402,0,7_S
1775033190.569814,2063,0,7_S
1775033190.571622,1717,0,7_S
1775033190.575522,1636,0,7_S
1775033190.578131,1978,0,7_S
1775033190.580676,2402,0,7_S
1775033190.58355,2172,0,7_S
1775033190.588114,1891,0,7_S
1775033190.589791,1908,0,7_S
1775033190.59276,1584,0,7_S
1775033190.5964758,2351,0,7_S
1775033190.599037,2391,0,7_S
1775033190.6015859,1857,0,7_S
1775033190.604542,1702,0,7_S
1775033190.6089358,1776,0,7_S
1775033190.611783,2025,0,7_S
1775033190.614644,2199,0,7_S
1775033190.617391,2252,0,7_S
1775033190.6199338,1808,0,7_S
1775033190.622527,1687,0,7_S
1775033190.6286862,1813,0,7_S
1775033190.629618,2431,0,7_S
1775033190.632009,2322,0,7_S
1775033190.636202,2126,0,7_S
1775033190.637724,1370,0,7_S
1775033190.6405172,1741,0,7_S
1775033190.64354,2107,0,7_S
1775033190.648961,2339,0,7_S
1775033190.650625,2299,0,7_S
1775033190.652946,1817,0,7_S
1775033190.655991,1654,0,7_S
1775033190.658716,1699,0,7_S
1775033190.6615329,2145,0,7_S
1775033190.6645398,2429,0,7_S
1775033190.668593,2072,0,7_S
1775033190.671695,1673,0,7_S
1775033190.673594,1666,0,7_S
1775033190.677164,1777,0,7_S
1775033190.679719,2438,0,7_S
1775033190.682507,2407,0,7_S
1775033190.688674,1899,0,7_S
1775033190.689048,1668,0,7_S
1775033190.6923342,1696,0,7_S
1775033190.6965702,2178,0,7_S
1775033190.698138,2314,0,7_S
1775033190.700694,2115,0,7_S
1775033190.703522,1801,0,7_S
1775033190.709389,1729,0,7_S
1775033190.709776,1706,0,7_S
1775033190.713114,2264,0,7_S
1775033190.7166169,2415,0,7_S
1775033190.718536,1862,0,7_S
1775033190.721496,1649,0,7_S
1775033190.724531,1696,0,7_S
1775033190.728858,2118,0,7_S
1775033190.731124,2420,0,7_S
1775033190.733911,2182,0,7_S
1775033190.736673,1748,0,7_S
1775033190.739538,1664,0,7_S
1775033190.742508,1733,0,7_S
1775033190.745499,2188,0,7_S
1775033190.7493691,2425,0,7_S
1775033190.75267,2136,0,7_S
1775033190.755691,1763,0,7_S
1775033190.7585258,1636,0,7_S
1775033190.761079,2014,0,7_S
1775033190.763623,2456,0,7_S
1775033190.76946,2264,0,7_S
1775033190.7703838,1876,0,7_S
1775033190.7738152,1651,0,7_S
1775033190.775944,1786,0,7_S
1775033190.778954,2165,0,7_S
1775033190.7815108,2320,0,7_S
1775033190.78453,1855,0,7_S
1775033190.789981,1790,0,7_S
1775033190.7907321,1739,0,7_S
1775033190.794127,1898,0,7_S
1775033190.797857,2377,0,7_S
1775033190.799537,2365,0,7_S
1775033190.802519,1920,0,7_S
1775033190.805519,1625,0,7_S
1775033190.810383,1796,0,7_S
1775033190.812099,2090,0,7_S
1775033190.81618,2498,0,7_S
1775033190.817787,2061,0,7_S
1775033190.820533,1658,0,7_S
1775033190.823516,1633,0,7_S
1775033190.826565,1847,0,7_S
1775033190.8304331,2328,0,7_S
1775033190.8333812,2338,0,7_S
1775033190.836326,1870,0,7_S
1775033190.8393002,1615,0,7_S
1775033190.84195,1761,0,7_S
1775033190.844539,2244,0,7_S
1775033190.850623,2344,0,7_S
1775033190.8509781,2016,0,7_S
1775033190.853982,1701,0,7_S
1775033190.8566332,1736,0,7_S
1775033190.859828,1855,0,7_S
1775033190.862533,2293,0,7_S
1775033190.865568,2275,0,7_S
1775033190.8716989,1842,0,7_S
1775033190.8723981,1612,0,7_S
1775033190.875316,1828,0,7_S
1775033190.879262,1853,0,7_S
1775033190.880822,2388,0,7_S
1775033190.883517,2241,0,7_S
1775033190.886515,1706,0,7_S
1775033190.8923168,1802,0,7_S
1775033190.8926752,1875,0,7_S
1775033190.896012,2241,0,7_S
1775033190.8997529,2383,0,7_S
1775033190.90155,1885,0,7_S
1775033190.904528,1610,0,7_S
1775033190.9075441,1851,0,7_S
1775033190.912519,2097,0,7_S
1775033190.914186,2371,0,7_S
1775033190.917006,1902,0,7_S
1775033190.919925,1892,0,7_S
1775033190.922678,1836,0,7_S
1775033190.92542,1515,0,7_S
1775033190.9284108,2220,0,7_S
1775033190.9326851,2424,0,7_S
1775033190.9345028,2226,0,7_S
1775033190.93856,1528,0,7_S
1775033190.9404092,1852,0,7_S
1775033190.943414,1887,0,7_S
1775033190.946383,2365,0,7_S
1775033190.952641,2482,0,7_S
1775033190.952976,1644,0,7_S
1775033190.956052,1763,0,7_S
1775033190.960293,1757,0,7_S
1775033190.9618208,2020,0,7_S
1775033190.964413,2175,0,7_S
1775033190.967412,2104,0,7_S
1775033190.9728901,1604,0,7_S
1775033190.973581,1925,0,7_S
1775033190.9764512,1978,0,7_S
1775033190.98075,2190,0,7_S
1775033190.982377,2298,0,7_S
1775033190.9853718,2039,0,7_S
1775033190.988399,1796,0,7_S
1775033190.993315,1612,0,7_S
1775033190.9950411,2106,0,7_S
1775033190.999008,2352,0,7_S
1775033191.0007591,2221,0,7_S
1775033191.00349,1649,0,7_S
1775033191.0063841,1841,0,7_S
1775033191.009411,1779,0,7_S
1775033191.013463,2016,0,7_S
1775033191.016671,2360,0,7_S
1775033191.0210922,2079,0,7_S
1775033191.0213702,1584,0,7_S
1775033191.024402,1657,0,7_S
1775033191.027383,2343,0,7_S
1775033191.030446,2290,0,7_S
1775033191.034071,2192,0,7_S
1775033191.0379379,1802,0,7_S
1775033191.039758,1492,0,7_S
1775033191.043135,1971,0,7_S
1775033191.045687,2213,0,7_S
1775033191.048415,2264,0,7_S
1775033191.051371,1963,0,7_S
1775033191.054724,1690,0,7_S
1775033191.0583968,1875,0,7_S
1775033191.060459,2096,0,7_S
1775033191.063413,2318,0,7_S
1775033191.066387,2392,0,7_S
1775033191.069362,1742,0,7_S
1775033191.0756679,1748,0,7_S
1775033191.075716,1729,0,7_S
1775033191.079293,2017,0,7_S
1775033191.083516,2430,0,7_S
1775033191.0851252,2032,0,7_S
1775033191.087444,1719,0,7_S
1775033191.09042,1445,0,7_S
1775033191.0965078,2147,0,7_S
1775033191.097558,2441,0,7_S
1775033191.1005251,2341,0,7_S
1775033191.103491,1818,0,7_S
1775033191.1075258,1658,0,7_S
1775033191.109041,1702,0,7_S
1775033191.111414,2096,0,7_S
1775033191.114414,2257,0,7_S
1775033191.119149,2262,0,7_S
1775033191.1214259,1770,0,7_S
1775033191.1235929,1818,0,7_S
1775033191.1275752,1781,0,7_S
1775033191.129406,2225,0,7_S
1775033191.132381,2408,0,7_S
1775033191.135405,1877,0,7_S
1775033191.141249,1665,0,7_S
1775033191.1419368,1658,0,7_S
1775033191.144704,2154,0,7_S
1775033191.149014,2247,0,7_S
1775033191.1507819,2123,0,7_S
1775033191.153378,1854,0,7_S
1775033191.156409,1689,0,7_S
1775033191.1616719,1900,0,7_S
1775033191.163828,2254,0,7_S
1775033191.165845,2543,0,7_S
1775033191.169893,1919,0,7_S
1775033191.171558,1650,0,7_S
1775033191.174415,1768,0,7_S
1775033191.177404,2000,0,7_S
1775033191.182637,2195,0,7_S
1775033191.1848269,2163,0,7_S
1775033191.186872,1931,0,7_S
1775033191.1894028,1660,0,7_S
1775033191.1930099,1661,0,7_S
1775033191.195564,2333,0,7_S
1775033191.198405,2408,0,7_S
1775033191.2047,2008,0,7_S
1775033191.2054038,1730,0,7_S
1775033191.208313,1713,0,7_S
1775033191.213113,1862,0,7_S
1775033191.213494,2259,0,7_S
1775033191.216396,2514,0,7_S
1775033191.2193868,1717,0,7_S
1775033191.2223911,1883,0,7_S
1775033191.229503,1445,0,7_S
1775033191.2297862,1992,0,7_S
1775033191.231572,2455,0,7_S
1775033191.2360342,2094,0,7_S
1775033191.237837,1515,0,7_S
1775033191.2405388,1756,0,7_S
1775033191.243382,2229,0,7_S
1775033191.25174,2534,0,7_S
1775033191.252175,2497,0,7_S
1775033191.254241,1828,0,7_S
1775033191.258826,1214,0,7_S
1775033191.259118,1493,0,7_S
1775033191.262006,2370,0,7_S
1775033191.264496,2496,0,7_S
1775033191.26781,1918,0,7_S
1775033191.272463,1562,0,7_S
1775033191.2752771,1930,0,7_S
1775033191.278399,2102,0,7_S
1775033191.282342,2303,0,7_S
1775033191.28272,2215,0,7_S
1775033191.285391,1962,0,7_S
1775033191.288386,1689,0,7_S
1775033191.291403,1650,0,7_S
1775033191.2958632,1979,0,7_S
1775033191.298187,2195,0,7_S
1775033191.304201,2304,0,7_S
1775033191.3043141,1858,0,7_S
1775033191.307072,1900,0,7_S
1775033191.3096268,1887,0,7_S
1775033191.312404,2609,0,7_S
1775033191.3174841,2505,0,7_S
1775033191.319359,1662,0,7_S
1775033191.321954,1779,0,7_S
1775033191.3255198,1480,0,7_S
1775033191.3272462,1940,0,7_S
1775033191.330262,2152,0,7_S
1775033191.333241,2684,0,7_S
1775033191.338832,2304,0,7_S
1775033191.339493,1449,0,7_S
1775033191.343431,1946,0,7_S
1775033191.34674,2411,0,7_S
1775033191.348405,2208,0,7_S
1775033191.3512661,1716,0,7_S
1775033191.354263,2177,0,7_S
1775033191.360259,1388,0,7_S
1775033191.360332,1686,0,7_S
1775033191.363748,2421,0,7_S
1775033191.368125,1999,0,7_S
1775033191.36975,1835,0,7_S
1775033191.3722959,2129,0,7_S
1775033191.375273,1342,0,7_S
1775033191.381232,2046,0,7_S
1775033191.381634,2586,0,7_S
1775033191.38483,2150,0,7_S
1775033191.389071,1608,0,7_S
1775033191.390795,1487,0,7_S
1775033191.3934379,2245,0,7_S
1775033191.396255,2053,0,7_S
1775033191.4025779,2317,0,7_S
1775033191.403219,2080,0,7_S
1775033191.406123,1792,0,7_S
1775033191.408489,1744,0,7_S
1775033191.412179,2159,0,7_S
1775033191.414742,2236,0,7_S
1775033191.4172952,2182,0,7_S
1775033191.420353,1749,0,7_S
1775033191.424483,1704,0,7_S
1775033191.4264162,1853,0,7_S
1775033191.429384,2249,0,7_S
1775033191.432392,2359,0,7_S
1775033191.435275,2034,0,7_S
1775033191.438278,1679,0,7_S
1775033191.4412758,1635,0,7_S
1775033191.4450922,2085,0,7_S
1775033191.448391,2326,0,7_S
1775033191.4532428,2208,0,7_S
1775033191.4533298,1754,0,7_S
1775033191.456274,1734,0,7_S
1775033191.459241,1760,0,7_S
1775033191.462263,2189,0,7_S
1775033191.466208,2296,0,7_S
1775033191.469389,1896,0,7_S
1775033191.4722822,1645,0,7_S
1775033191.474439,1658,0,7_S
1775033191.477294,2124,0,7_S
1775033191.4802759,2360,0,7_S
1775033191.483278,2228,0,7_S
1775033191.4880278,1726,0,7_S
1775033191.49277,1697,0,7_S
1775033191.493263,1810,0,7_S
1775033191.4964921,2179,0,7_S
1775033191.4982898,2294,0,7_S
1775033191.501257,1973,0,7_S
1775033191.5043268,1767,0,7_S
1775033191.510247,1768,0,7_S
1775033191.5103738,1902,0,7_S
1775033191.5140731,2291,0,7_S
1775033191.518337,2316,0,7_S
1775033191.5201302,1833,0,7_S
1775033191.5228841,1760,0,7_S
1775033191.525509,1772,0,7_S
1775033191.5321012,2192,0,7_S
1775033191.533521,2295,0,7_S
1775033191.536523,2004,0,7_S
1775033191.540603,1814,0,7_S
1775033191.5409331,1775,0,7_S
1775033191.5437388,1896,0,7_S
1775033191.546412,2327,0,7_S
1775033191.549269,2311,0,7_S
1775033191.5563798,1856,0,7_S
1775033191.556601,1647,0,7_S
1775033191.558548,1740,0,7_S
1775033191.5630689,2178,0,7_S
1775033191.564838,2314,0,7_S
1775033191.567604,2242,0,7_S
1775033191.570267,1668,0,7_S
1775033191.578567,1794,0,7_S
1775033191.58032,1956,0,7_S
1775033191.580835,2304,0,7_S
1775033191.585521,2343,0,7_S
1775033191.585968,1874,0,7_S
1775033191.588714,1712,0,7_S
1775033191.5913012,1727,0,7_S
1775033191.5942678,2048,0,7_S
1775033191.600065,2316,0,7_S
1775033191.6012921,2196,0,7_S
1775033191.604554,1656,0,7_S
1775033191.608308,1736,0,7_S
1775033191.60991,1786,0,7_S
1775033191.612536,2234,0,7_S
1775033191.615287,2403,0,7_S
1775033191.623452,1992,0,7_S
1775033191.623754,1752,0,7_S
1775033191.62573,1687,0,7_S
1775033191.630471,2060,0,7_S
1775033191.630692,2385,0,7_S
1775033191.6335459,2256,0,7_S
1775033191.6362529,1857,0,7_S
1775033191.639256,1723,0,7_S
1775033191.643769,1737,0,7_S
1775033191.6458519,2150,0,7_S
1775033191.652521,2345,0,7_S
1775033191.652664,2022,0,7_S
1775033191.6542988,1628,0,7_S
1775033191.657296,1713,0,7_S
1775033191.660267,2011,0,7_S
1775033191.666469,2361,0,7_S
1775033191.667899,2205,0,7_S
1775033191.670411,1745,0,7_S
1775033191.6743412,1747,0,7_S
1775033191.676061,1843,0,7_S
1775033191.678498,2179,0,7_S
1775033191.68128,2251,0,7_S
1775033191.687279,2100,0,7_S
1775033191.687619,1752,0,7_S
1775033191.691185,1753,0,7_S
1775033191.693897,1913,0,7_S
1775033191.6970859,2349,0,7_S
1775033191.699667,2286,0,7_S
1775033191.702282,1799,0,7_S
1775033191.708216,1697,0,7_S
1775033191.7088919,1737,0,7_S
1775033191.71198,2205,0,7_S
1775033191.714544,2415,0,7_S
1775033191.717952,2113,0,7_S
1775033191.720497,1649,0,7_S
1775033191.7231512,1649,0,7_S
1775033191.729228,1927,0,7_S
1775033191.729892,2498,0,7_S
1775033191.732439,2291,0,7_S
1775033191.736902,1817,0,7_S
1775033191.73825,1715,0,7_S
1775033191.741149,1763,0,7_S
1775033191.744121,2182,0,7_S
1775033191.749151,2340,0,7_S
1775033191.751103,2084,0,7_S
1775033191.7572942,1638,0,7_S
1775033191.757494,1727,0,7_S
1775033191.7591438,1781,0,7_S
1775033191.762112,2228,0,7_S
1775033191.76514,2406,0,7_S
1775033191.7699049,1959,0,7_S
1775033191.77146,1730,0,7_S
1775033191.774323,1643,0,7_S
1775033191.7771661,2091,0,7_S
1775033191.780113,2428,0,7_S
1775033191.7831192,2215,0,7_S
1775033191.786103,1797,0,7_S
1775033191.7899032,1728,0,7_S
1775033191.793314,1731,0,7_S
1775033191.7957141,2330,0,7_S
1775033191.798955,2438,0,7_S
1775033191.801518,1972,0,7_S
1775033191.804139,1649,0,7_S
1775033191.8071208,1825,0,7_S
1775033191.812024,1991,0,7_S
1775033191.814249,2367,0,7_S
1775033191.8165581,2129,0,7_S
1775033191.82079,1736,0,7_S
1775033191.8224351,1701,0,7_S
1775033191.8251252,1778,0,7_S
1775033191.828183,2214,0,7_S
1775033191.833504,2449,0,7_S
1775033191.8354409,2136,0,7_S
1775033191.837227,1593,0,7_S
1775033191.841451,1601,0,7_S
1775033191.843202,1833,0,7_S
1775033191.846144,2399,0,7_S
1775033191.8491101,2370,0,7_S
1775033191.8535402,1831,0,7_S
1775033191.855287,1627,0,7_S
1775033191.8584461,1693,0,7_S
1775033191.861352,2061,0,7_S
1775033191.864196,2437,0,7_S
1775033191.867112,2286,0,7_S
1775033191.870108,1720,0,7_S
1775033191.873588,1749,0,7_S
1775033191.8771572,1811,0,7_S
1775033191.882012,2345,0,7_S
1775033191.882175,2354,0,7_S
1775033191.8851452,1908,0,7_S
1775033191.888111,1772,0,7_S
1775033191.8941991,1665,0,7_S
1775033191.894551,1970,0,7_S
1775033191.897922,2361,0,7_S
1775033191.900646,2057,0,7_S
1775033191.904211,1788,0,7_S
1775033191.906804,1678,0,7_S
1775033191.909346,1689,0,7_S
1775033191.915379,2381,0,7_S
1775033191.915711,2568,0,7_S
1775033191.918663,2039,0,7_S
1775033191.923105,1691,0,7_S
1775033191.9246268,1655,0,7_S
1775033191.927179,2058,0,7_S
1775033191.9301429,2444,0,7_S
1775033191.936248,2277,0,7_S
1775033191.937608,1645,0,7_S
1775033191.939324,1694,0,7_S
1775033191.9435132,1749,0,7_S
1775033191.945141,2275,0,7_S
1775033191.948141,2458,0,7_S
1775033191.9511309,2059,0,7_S
1775033191.9557261,1594,0,7_S
1775033191.957709,1699,0,7_S
1775033191.961644,1857,0,7_S
1775033191.9635909,2470,0,7_S
1775033191.966281,2337,0,7_S
1775033191.9691,1767,0,7_S
1775033191.972141,1647,0,7_S
1775033191.9760902,1815,0,7_S
1775033191.979269,2189,0,7_S
1775033191.982105,2476,0,7_S
1775033191.984145,2094,0,7_S
1775033191.987137,1572,0,7_S
1775033191.990149,1698,0,7_S
1775033191.9964879,1831,0,7_S
1775033191.996922,2440,0,7_S
1775033192.000299,2401,0,7_S
1775033192.002686,1902,0,7_S
1775033192.006057,1650,0,7_S
1775033192.008648,1496,0,7_S
1775033192.011214,2178,0,7_S
1775033192.017209,2426,0,7_S
1775033192.0182168,2059,0,7_S
1775033192.020891,1734,0,7_S
1775033192.025214,1646,0,7_S
1775033192.026772,1772,0,7_S
1775033192.029394,2383,0,7_S
1775033192.0321438,2481,0,7_S
1775033192.0378828,1908,0,7_S
1775033192.03877,1628,0,7_S
1775033192.041163,1681,0,7_S
1775033192.045782,2054,0,7_S
1775033192.0473769,2487,0,7_S
1775033192.050139,2280,0,7_S
1775033192.053113,1666,0,7_S
1775033192.0581372,1667,0,7_S
1775033192.060137,1763,0,7_S
1775033192.062233,2390,0,7_S
1775033192.0663831,2434,0,7_S
1775033192.0681431,1961,0,7_S
1775033192.0711539,1627,0,7_S
1775033192.0741088,1666,0,7_S
1775033192.079392,1937,0,7_S
1775033192.082743,2329,0,7_S
1775033192.083112,2380,0,7_S
1775033192.087553,1815,0,7_S
1775033192.089144,1727,0,7_S
1775033192.092024,1652,0,7_S
1775033192.095009,2258,0,7_S
1775033192.099592,2518,0,7_S
1775033192.101535,2041,0,7_S
1775033192.105502,1574,0,7_S
1775033192.1075351,1604,0,7_S
1775033192.110312,1938,0,7_S
1775033192.113028,2463,0,7_S
1775033192.116025,2401,0,7_S
1775033192.1194859,1738,0,7_S
1775033192.123041,1616,0,7_S
1775033192.125984,1608,0,7_S
1775033192.128077,2221,0,7_S
1775033192.131022,2550,0,7_S
1775033192.133995,2138,0,7_S
1775033192.140331,1636,0,7_S
1775033192.142711,1653,0,7_S
1775033192.144444,1820,0,7_S
1775033192.147098,2417,0,7_S
1775033192.1490738,2407,0,7_S
1775033192.152021,1849,0,7_S
1775033192.155007,1604,0,7_S
1775033192.161346,1623,0,7_S
1775033192.16142,2178,0,7_S
1775033192.165317,2488,0,7_S
1775033192.16744,2177,0,7_S
1775033192.170838,1662,0,7_S
1775033192.173393,1687,0,7_S
1775033192.176018,1814,0,7_S
1775033192.181607,2363,0,7_S
1775033192.182796,2437,0,7_S
1775033192.185547,1875,0,7_S
1775033192.189729,1628,0,7_S
1775033192.191207,1575,0,7_S
1775033192.194011,2105,0,7_S
1775033192.197015,2489,0,7_S
1775033192.201802,2201,0,7_S
1775033192.2036428,1698,0,7_S
1775033192.2076302,1599,0,7_S
1775033192.2095628,1728,0,7_S
1775033192.2122931,2413,0,7_S
1775033192.215001,2468,0,7_S
1775033192.217973,2006,0,7_S
1775033192.2221498,1577,0,7_S
1775033192.225409,1770,0,7_S
1775033192.2270489,2000,0,7_S
1775033192.230595,2518,0,7_S
1775033192.233373,2234,0,7_S
1775033192.236049,1757,0,7_S
1775033192.2390301,1652,0,7_S
1775033192.2425978,1683,0,7_S
1775033192.246055,2228,0,7_S
1775033192.2487621,2329,0,7_S
1775033192.251071,2116,0,7_S
1775033192.253983,1643,0,7_S
1775033192.257015,1634,0,7_S
1775033192.263766,1931,0,7_S
1775033192.264137,2479,0,7_S
1775033192.26683,2389,0,7_S
1775033192.2711859,1813,0,7_S
1775033192.272707,1667,0,7_S
1775033192.275269,1611,0,7_S
1775033192.277981,2129,0,7_S
1775033192.283898,2533,0,7_S
1775033192.284564,2184,0,7_S
1775033192.2869928,1571,0,7_S
1775033192.2917671,1681,0,7_S
1775033192.293327,1897,0,7_S
1775033192.296006,2366,0,7_S
1775033192.299021,2398,0,7_S
1775033192.304188,1904,0,7_S
1775033192.305957,1592,0,7_S
1775033192.310019,1632,0,7_S
1775033192.312067,2194,0,7_S
1775033192.314007,2425,0,7_S
1775033192.317004,2329,0,7_S
1775033192.3200011,1495,0,7_S
1775033192.3246279,1663,0,7_S
1775033192.326648,1900,0,7_S
1775033192.329561,2399,0,7_S
1775033192.332532,2435,0,7_S
1775033192.3353012,1902,0,7_S
1775033192.338016,1647,0,7_S
1775033192.341014,1632,0,7_S
1775033192.345,2077,0,7_S
1775033192.347973,2443,0,7_S
1775033192.3510668,2388,0,7_S
1775033192.353041,1569,0,7_S
1775033192.35601,1689,0,7_S
1775033192.358977,1792,0,7_S
1775033192.365252,2366,0,7_S
1775033192.3655832,2418,0,7_S
1775033192.369494,1904,0,7_S
1775033192.371381,1696,0,7_S
1775033192.3748171,1729,0,7_S
1775033192.3773272,1980,0,7_S
1775033192.37987,2404,0,7_S
1775033192.386076,2168,0,7_S
1775033192.387491,1593,0,7_S
1775033192.389311,1803,0,7_S
1775033192.3936179,1665,0,7_S
1775033192.395155,2274,0,7_S
1775033192.39789,2312,0,7_S
1775033192.400882,2202,0,7_S
1775033192.406251,1566,0,7_S
1775033192.40821,1786,0,7_S
1775033192.409958,1999,0,7_S
1775033192.414359,2463,0,7_S
1775033192.415919,2286,0,7_S
1775033192.4189172,1772,0,7_S
1775033192.421877,1525,0,7_S
1775033192.426552,1764,0,7_S
1775033192.428593,2268,0,7_S
1775033192.4314728,2346,0,7_S
1775033192.43456,2082,0,7_S
1775033192.437113,1676,0,7_S
1775033192.439883,1728,0,7_S
1775033192.44289,1882,0,7_S
1775033192.447357,2351,0,7_S
1775033192.4502,2168,0,7_S
1775033192.4520278,1976,0,7_S
1775033192.455329,1776,0,7_S
1775033192.458078,1771,0,7_S
1775033192.4609,2191,0,7_S
1775033192.463862,2370,0,7_S
1775033192.46776,2084,0,7_S
1775033192.470792,1691,0,7_S
1775033192.4741938,1736,0,7_S
1775033192.476095,1727,0,7_S
1775033192.481952,2282,0,7_S
1775033192.4819882,2300,0,7_S
1775033192.4849331,1952,0,7_S
1775033192.48789,1663,0,7_S
1775033192.4926631,1643,0,7_S
1775033192.494438,2082,0,7_S
1775033192.497161,2522,0,7_S
1775033192.500618,2192,0,7_S
1775033192.503374,1747,0,7_S
1775033192.50593,1570,0,7_S
1775033192.5088482,1870,0,7_S
1775033192.513133,2442,0,7_S
1775033192.515015,2281,0,7_S
1775033192.5179572,1956,0,7_S
1775033192.521059,1656,0,7_S
1775033192.523871,1678,0,7_S
1775033192.52686,2202,0,7_S
1775033192.529999,2395,0,7_S
1775033192.5332348,2177,0,7_S
1775033192.536705,1715,0,7_S
1775033192.541342,1511,0,7_S
1775033192.54268,1761,0,7_S
1775033192.545482,2459,0,7_S
1775033192.5480268,2495,0,7_S
1775033192.5539389,1970,0,7_S
1775033192.554293,1697,0,7_S
1775033192.557795,1856,0,7_S
1775033192.560318,1799,0,7_S
1775033192.563898,2232,0,7_S
1775033192.566446,2383,0,7_S
1775033192.568989,1662,0,7_S
1775033192.5748322,1606,0,7_S
1775033192.575179,1689,0,7_S
1775033192.578569,2274,0,7_S
1775033192.581131,2357,0,7_S
1775033192.584498,2145,0,7_S
1775033192.587318,1903,0,7_S
1775033192.589896,1654,0,7_S
1775033192.59636,1897,0,7_S
1775033192.596704,2297,0,7_S
1775033192.599688,2375,0,7_S
1775033192.604476,2097,0,7_S
1775033192.604865,1359,0,7_S
1775033192.607878,1767,0,7_S
1775033192.610879,2226,0,7_S
1775033192.613903,2337,0,7_S
1775033192.618283,2338,0,7_S
1775033192.6206038,1796,0,7_S
1775033192.624923,1539,0,7_S
1775033192.627195,2039,0,7_S
1775033192.628908,2249,0,7_S
1775033192.6319191,2407,0,7_S
1775033192.634887,1875,0,7_S
1775033192.640804,1727,0,7_S
1775033192.641137,1567,0,7_S
1775033192.644235,2123,0,7_S
1775033192.648791,2450,0,7_S
1775033192.650381,2104,0,7_S
1775033192.6528451,1634,0,7_S
1775033192.655854,1684,0,7_S
1775033192.661611,1824,0,7_S
1775033192.6622021,2397,0,7_S
1775033192.665388,2458,0,7_S
1775033192.669775,1956,0,7_S
1775033192.671558,1712,0,7_S
1775033192.674123,1722,0,7_S
1775033192.676789,2052,0,7_S
1775033192.682694,2369,0,7_S
1775033192.683635,2233,0,7_S
1775033192.686239,1733,0,7_S
1775033192.691225,1500,0,7_S
1775033192.6929438,1776,0,7_S
1775033192.694748,2289,0,7_S
1775033192.6977768,2356,0,7_S
1775033192.7007492,1992,0,7_S
1775033192.706002,1581,0,7_S
1775033192.708565,1735,0,7_S
1775033192.71009,1952,0,7_S
1775033192.713585,2333,0,7_S
1775033192.716326,2181,0,7_S
1775033192.719027,1835,0,7_S
1775033192.7217228,1702,0,7_S
1775033192.7295308,1805,0,7_S
1775033192.731439,2270,0,7_S
1775033192.731914,2342,0,7_S
1775033192.738505,2001,0,7_S
1775033192.738627,1691,0,7_S
1775033192.740056,1706,0,7_S
1775033192.742783,2056,0,7_S
1775033192.7458382,2309,0,7_S
1775033192.750635,2301,0,7_S
1775033192.752794,1870,0,7_S
1775033192.759377,1782,0,7_S
1775033192.759551,1599,0,7_S
1775033192.761373,2212,0,7_S
1775033192.763984,2389,0,7_S
1775033192.766752,2076,0,7_S
1775033192.773814,1642,0,7_S
1775033192.774267,1766,0,7_S
1775033192.777793,1918,0,7_S
1775033192.7802298,2232,0,7_S
1775033192.782443,2304,0,7_S
1775033192.785089,1880,0,7_S
1775033192.787742,1789,0,7_S
1775033192.790755,1776,0,7_S
1775033192.796314,2118,0,7_S
1775033192.797062,2395,0,7_S
1775033192.8008142,2200,0,7_S
1775033192.806336,1716,0,7_S
1775033192.8064299,1665,0,7_S
1775033192.809334,1866,0,7_S
1775033192.811969,2472,0,7_S
1775033192.8149152,2319,0,7_S
1775033192.819123,1911,0,7_S
1775033192.8207722,1673,0,7_S
1775033192.82482,1603,0,7_S
1775033192.827044,2005,0,7_S
1775033192.829822,2354,0,7_S
1775033192.832733,2179,0,7_S
1775033192.8357341,1667,0,7_S
1775033192.855579,1701,0,7_S
1775033192.872958,1928,0,7_S
1775033192.8745978,2296,0,7_S
1775033192.875167,2222,0,7_S
1775033192.875235,1965,0,7_S
1775033192.8753228,1776,0,7_S
1775033192.875422,1679,0,7_S
1775033192.875487,2065,0,7_S
1775033192.875509,2284,0,7_S
1775033192.875616,2354,0,7_S
1775033192.875682,1936,0,7_S
1775033192.875742,1681,0,7_S
1775033192.8757708,1858,0,7_S
1775033192.8788218,1866,0,7_S
1775033192.880743,2373,0,7_S
1775033192.8885581,2112,0,7_S
1775033192.888958,1724,0,7_S
1775033192.89142,1751,0,7_S
1775033192.89401,1798,0,7_S
1775033192.89607,2253,0,7_S
1775033192.89875,2246,0,7_S
1775033192.9017239,1964,0,7_S
1775033192.904743,1820,0,7_S
1775033192.909643,1652,0,7_S
1775033192.912672,2053,0,7_S
1775033192.914287,2525,0,7_S
1775033192.917418,2107,0,7_S
1775033192.920118,1571,0,7_S
1775033192.9227562,1671,0,7_S
1775033192.9257228,1979,0,7_S
1775033192.930841,2623,0,7_S
1775033192.933104,2269,0,7_S
1775033192.935159,1626,0,7_S
1775033192.940276,1771,0,7_S
1775033192.941696,1752,0,7_S
1775033192.944246,2290,0,7_S
1775033192.946728,2144,0,7_S
1775033192.9497201,2386,0,7_S
1775033192.954096,1774,0,7_S
1775033192.957491,1717,0,7_S
1775033192.9599202,1757,0,7_S
1775033192.962147,2813,0,7_S
1775033192.9648588,1528,0,7_S
1775033192.967757,2205,0,7_S
1775033192.970749,1777,0,7_S
1775033192.975084,1688,0,7_S
1775033192.977161,1999,0,7_S
1775033192.9801338,2348,0,7_S
1775033192.983236,2403,0,7_S
1775033192.985594,1677,0,7_S
1775033192.989356,1996,0,7_S
1775033192.991946,1582,0,7_S
1775033192.996157,2177,0,7_S
1775033192.998061,2616,0,7_S
1775033193.0021372,1955,0,7_S
1775033193.00429,1444,0,7_S
1775033193.006997,2018,0,7_S
1775033193.0097148,1794,0,7_S
1775033193.012613,2046,0,7_S
1775033193.0181298,2593,0,7_S
1775033193.0201821,1800,0,7_S
1775033193.022998,1681,0,7_S
1775033193.026779,1660,0,7_S
1775033193.0285308,2141,0,7_S
1775033193.0312,2436,0,7_S
1775033193.033963,2085,0,7_S
1775033193.0419881,1766,0,7_S
1775033193.045179,1640,0,7_S
1775033193.046665,1768,0,7_S
1775033193.048927,2489,0,7_S
1775033193.049258,2387,0,7_S
1775033193.052166,1867,0,7_S
1775033193.054875,1713,0,7_S
1775033193.057666,1661,0,7_S
1775033193.063444,2108,0,7_S
1775033193.0653892,2429,0,7_S
1775033193.067808,2229,0,7_S
1775033193.0697339,1681,0,7_S
1775033193.07368,1629,0,7_S
1775033193.075635,1753,0,7_S
1775033193.078635,2381,0,7_S
1775033193.081624,2406,0,7_S
1775033193.084967,1890,0,7_S
1775033193.088647,1646,0,7_S
1775033193.0916858,1564,0,7_S
1775033193.094273,2178,0,7_S
1775033193.097121,2522,0,7_S
1775033193.09979,2246,0,7_S
1775033193.102626,1727,0,7_S
1775033193.111396,1670,0,7_S
1775033193.112211,1678,0,7_S
1775033193.113621,2393,0,7_S
1775033193.1175702,2518,0,7_S
1775033193.1192052,1921,0,7_S
1775033193.120724,1426,0,7_S
1775033193.12365,1475,0,7_S
1775033193.126667,2182,0,7_S
1775033193.131249,2502,0,7_S
1775033193.1331031,2269,0,7_S
1775033193.1398559,1696,0,7_S
1775033193.1412868,1630,0,7_S
1775033193.1415958,1755,0,7_S
1775033193.145397,2267,0,7_S
1775033193.1479292,2527,0,7_S
1775033193.1577642,2059,0,7_S
1775033193.158216,1592,0,7_S
1775033193.1592388,1679,0,7_S
1775033193.163292,1854,0,7_S
1775033193.1648011,2383,0,7_S
1775033193.1664991,2360,0,7_S
1775033193.1691809,1835,0,7_S
1775033193.1719801,1555,0,7_S
1775033193.176815,1567,0,7_S
1775033193.178835,2233,0,7_S
1775033193.181391,2555,0,7_S
1775033193.185606,2146,0,7_S
1775033193.187262,1629,0,7_S
1775033193.1897101,1649,0,7_S
1775033193.1926148,1848,0,7_S
1775033193.199905,2356,0,7_S
1775033193.201348,2363,0,7_S
1775033193.203119,1890,0,7_S
1775033193.205975,1595,0,7_S
1775033193.2084868,1614,0,7_S
1775033193.211295,2129,0,7_S
1775033193.214015,2517,0,7_S
1775033193.216647,2307,0,7_S
1775033193.223924,1776,0,7_S
1775033193.2241101,1656,0,7_S
1775033193.226337,1702,0,7_S
1775033193.228684,2358,0,7_S
1775033193.2326348,2392,0,7_S
1775033193.235243,1828,0,7_S
1775033193.237812,1713,0,7_S
1775033193.240756,1634,0,7_S
1775033193.244778,2079,0,7_S
1775033193.2475562,2408,0,7_S
1775033193.250558,2223,0,7_S
1775033193.252674,1728,0,7_S
1775033193.255618,1697,0,7_S
1775033193.25859,1727,0,7_S
1775033193.264797,2314,0,7_S
1775033193.265132,2441,0,7_S
1775033193.268834,2006,0,7_S
1775033193.271486,1649,0,7_S
1775033193.27365,1671,0,7_S
1775033193.276624,1951,0,7_S
1775033193.27959,2427,0,7_S
1775033193.282698,2309,0,7_S
1775033193.2861362,1701,0,7_S
1775033193.2891169,1610,0,7_S
1775033193.294154,1720,0,7_S
1775033193.2955258,2198,0,7_S
1775033193.298078,2466,0,7_S
1775033193.3006258,2093,0,7_S
1775033193.306467,1676,0,7_S
1775033193.306877,1704,0,7_S
1775033193.3105059,1998,0,7_S
1775033193.3147898,2400,0,7_S
1775033193.316349,2262,0,7_S
1775033193.318871,1804,0,7_S
1775033193.321601,1657,0,7_S
1775033193.3283572,1665,0,7_S
1775033193.3284569,2141,0,7_S
1775033193.331671,2400,0,7_S
1775033193.333915,2140,0,7_S
1775033193.337575,1629,0,7_S
1775033193.340118,1699,0,7_S
1775033193.342666,2060,0,7_S
1775033193.348397,2374,0,7_S
1775033193.348991,2359,0,7_S
1775033193.3517709,1828,0,7_S
1775033193.356519,1698,0,7_S
1775033193.358075,1628,0,7_S
1775033193.3606322,2105,0,7_S
1775033193.363605,2493,0,7_S
1775033193.3697321,2209,0,7_S
1775033193.371124,1646,0,7_S
1775033193.372629,1675,0,7_S
1775033193.377263,1770,0,7_S
1775033193.378749,2404,0,7_S
1775033193.381595,2470,0,7_S
1775033193.384591,1859,0,7_S
1775033193.3891761,1631,0,7_S
1775033193.391486,1617,0,7_S
1775033193.394372,2063,0,7_S
1775033193.39743,2379,0,7_S
1775033193.400185,2284,0,7_S
1775033193.4027379,1789,0,7_S
1775033193.405501,1630,0,7_S
1775033193.4099882,1691,0,7_S
1775033193.411621,2342,0,7_S
1775033193.415683,2439,0,7_S
1775033193.4177501,1920,0,7_S
1775033193.420486,1604,0,7_S
1775033193.42431,1592,0,7_S
1775033193.430444,2204,0,7_S
1775033193.430529,2509,0,7_S
1775033193.433435,2199,0,7_S
1775033193.43807,1574,0,7_S
1775033193.439699,1673,0,7_S
1775033193.441516,1809,0,7_S
1775033193.44448,2391,0,7_S
1775033193.450965,2459,0,7_S
1775033193.4512892,1917,0,7_S
1775033193.454071,1603,0,7_S
1775033193.458675,1616,0,7_S
1775033193.4601028,1869,0,7_S
1775033193.462653,2431,0,7_S
1775033193.465467,2311,0,7_S
1775033193.4716601,1752,0,7_S
1775033193.4720058,1620,0,7_S
1775033193.474951,1719,0,7_S
1775033193.4794,2303,0,7_S
1775033193.48097,2556,0,7_S
1775033193.4835122,2132,0,7_S
1775033193.486484,1681,0,7_S
1775033193.491646,1598,0,7_S
1775033193.4937322,1914,0,7_S
1775033193.495747,2311,0,7_S
1775033193.4998882,2329,0,7_S
1775033193.501479,1863,0,7_S
1775033193.504499,1744,0,7_S
1775033193.507494,1623,0,7_S
1775033193.511904,2144,0,7_S
1775033193.513859,2592,0,7_S
1775033193.5180879,2049,0,7_S
1775033193.520189,1533,0,7_S
1775033193.523018,1815,0,7_S
1775033193.525578,1777,0,7_S
1775033193.528476,2395,0,7_S
1775033193.5323179,2418,0,7_S
1775033193.535288,1850,0,7_S
1775033193.538207,1592,0,7_S
1775033193.5405068,1806,0,7_S
1775033193.543502,2080,0,7_S
1775033193.546486,2415,0,7_S
1775033193.553029,2288,0,7_S
1775033193.553675,1643,0,7_S
1775033193.556401,1689,0,7_S
1775033193.560971,1617,0,7_S
1775033193.562613,2338,0,7_S
1775033193.5644648,2566,0,7_S
1775033193.567471,2007,0,7_S
1775033193.573684,1602,0,7_S
1775033193.5737789,1687,0,7_S
1775033193.577004,1949,0,7_S
1775033193.5817542,2328,0,7_S
1775033193.5833158,2182,0,7_S
1775033193.5858712,1757,0,7_S
1775033193.5884821,1777,0,7_S
1775033193.59476,1832,0,7_S
1775033193.595149,2153,0,7_S
1775033193.598249,2530,0,7_S
1775033193.600579,1998,0,7_S
1775033193.604078,1579,0,7_S
1775033193.606624,1861,0,7_S
1775033193.609492,1962,0,7_S
1775033193.614885,2380,0,7_S
1775033193.615538,2370,0,7_S
1775033193.6186502,1735,0,7_S
1775033193.62305,1695,0,7_S
1775033193.624641,1619,0,7_S
1775033193.627521,2126,0,7_S
1775033193.6304681,2497,0,7_S
1775033193.63347,2123,0,7_S
1775033193.638165,1672,0,7_S
1775033193.640521,1624,0,7_S
1775033193.643421,1767,0,7_S
1775033193.645545,2452,0,7_S
1775033193.6484668,2408,0,7_S
1775033193.6514618,1856,0,7_S
1775033193.654495,1665,0,7_S
1775033193.6588612,1655,0,7_S
1775033193.660911,2100,0,7_S
1775033193.66499,2418,0,7_S
1775033193.667255,2155,0,7_S
1775033193.670062,1708,0,7_S
1775033193.672617,1734,0,7_S
1775033193.675424,1767,0,7_S
1775033193.680387,2330,0,7_S
1775033193.682213,2474,0,7_S
1775033193.686259,1920,0,7_S
1775033193.688417,1637,0,7_S
1775033193.6909618,1634,0,7_S
1775033193.693524,2075,0,7_S
1775033193.6964,2446,0,7_S
1775033193.70245,2198,0,7_S
1775033193.7030232,1669,0,7_S
1775033193.705864,1709,0,7_S
1775033193.710541,1672,0,7_S
1775033193.711989,2325,0,7_S
1775033193.714535,2446,0,7_S
1775033193.7173839,1989,0,7_S
1775033193.722829,1700,0,7_S
1775033193.723534,1683,0,7_S
1775033193.727077,1944,0,7_S
1775033193.7314172,2456,0,7_S
1775033193.732991,2309,0,7_S
1775033193.735541,1749,0,7_S
1775033193.7383502,1683,0,7_S
1775033193.744946,1654,0,7_S
1775033193.7453032,2210,0,7_S
1775033193.747648,2525,0,7_S
1775033193.750462,2124,0,7_S
1775033193.754091,1604,0,7_S
1775033193.756641,1606,0,7_S
1775033193.759372,1929,0,7_S
1775033193.7644632,2437,0,7_S
1775033193.766689,2350,0,7_S
1775033193.7687669,1732,0,7_S
1775033193.772925,1597,0,7_S
1775033193.774535,1743,0,7_S
1775033193.777361,2175,0,7_S
1775033193.780371,2423,0,7_S
1775033193.785234,2114,0,7_S
1775033193.787144,1664,0,7_S
1775033193.791311,1757,0,7_S
1775033193.79344,1844,0,7_S
1775033193.795368,2430,0,7_S
1775033193.798934,2365,0,7_S
1775033193.8014789,1834,0,7_S
1775033193.806459,1604,0,7_S
1775033193.80821,1642,0,7_S
1775033193.8108969,2103,0,7_S
1775033193.814201,2563,0,7_S
1775033193.816909,2156,0,7_S
1775033193.8194659,1598,0,7_S
1775033193.822363,1698,0,7_S
1775033193.82707,1817,0,7_S
1775033193.828757,2410,0,7_S
1775033193.832733,2401,0,7_S
1775033193.8348649,1882,0,7_S
1775033193.837441,1612,0,7_S
1775033193.840383,1718,0,7_S
1775033193.8433259,2100,0,7_S
1775033193.847111,2445,0,7_S
1775033193.850522,2241,0,7_S
1775033193.853626,1675,0,7_S
1775033193.855777,1577,0,7_S
1775033193.858627,1707,0,7_S
1775033193.861331,2359,0,7_S
1775033193.864338,2541,0,7_S
1775033193.86851,1957,0,7_S
1775033193.8712761,1600,0,7_S
1775033193.873442,1681,0,7_S
1775033193.876485,1978,0,7_S
1775033193.87936,2503,0,7_S
1775033193.8823302,2302,0,7_S
1775033193.885464,1750,0,7_S
1775033193.889645,1571,0,7_S
1775033193.89236,1699,0,7_S
1775033193.897024,2355,0,7_S
1775033193.8974211,2520,0,7_S
1775033193.900355,2022,0,7_S
1775033193.903339,1619,0,7_S
1775033193.909559,1695,0,7_S
1775033193.910212,1928,0,7_S
1775033193.9131122,2454,0,7_S
1775033193.915691,2272,0,7_S
1775033193.9192572,1767,0,7_S
1775033193.9218051,1570,0,7_S
1775033193.924382,1605,0,7_S
1775033193.930561,2254,0,7_S
1775033193.931211,2579,0,7_S
1775033193.933621,2170,0,7_S
1775033193.938325,1568,0,7_S
1775033193.939931,1719,0,7_S
1775033193.9424782,1872,0,7_S
1775033193.945345,2383,0,7_S
1775033193.951112,2386,0,7_S
1775033193.951691,1857,0,7_S
1775033193.954433,1588,0,7_S
1775033193.9589472,1669,0,7_S
1775033193.960495,2154,0,7_S
1775033193.9632251,2482,0,7_S
1775033193.966221,2222,0,7_S
1775033193.970911,1703,0,7_S
1775033193.973187,1674,0,7_S
1775033193.9774342,1733,0,7_S
1775033193.979508,2311,0,7_S
1775033193.981212,2459,0,7_S
1775033193.984204,1903,0,7_S
1775033193.987197,1639,0,7_S
1775033193.9917371,1668,0,7_S
1775033193.993696,2016,0,7_S
1775033193.997777,2492,0,7_S
1775033193.9998,2321,0,7_S
1775033194.00252,1720,0,7_S
1775033194.005198,1626,0,7_S
1775033194.008234,1672,0,7_S
1775033194.01261,2401,0,7_S
1775033194.0152588,2486,0,7_S
1775033194.018243,1978,0,7_S
1775033194.020315,1563,0,7_S
1775033194.023249,1685,0,7_S
1775033194.026211,2130,0,7_S
1775033194.029284,2406,0,7_S
1775033194.033529,2203,0,7_S
1775033194.035937,1801,0,7_S
1775033194.040739,1635,0,7_S
1775033194.042363,1627,0,7_S
1775033194.044717,2280,0,7_S
1775033194.0472589,2482,0,7_S
1775033194.053268,2108,0,7_S
1775033194.053658,1703,0,7_S
1775033194.057128,1595,0,7_S
1775033194.0595672,1943,0,7_S
1775033194.063041,2425,0,7_S
1775033194.0656,2358,0,7_S
1775033194.068272,1844,0,7_S
1775033194.074223,1574,0,7_S
1775033194.074262,1550,0,7_S
1775033194.077823,2322,0,7_S
1775033194.082378,2485,0,7_S
1775033194.0839832,2047,0,7_S
1775033194.08654,1616,0,7_S
1775033194.08924,1767,0,7_S
1775033194.094385,1748,0,7_S
1775033194.096763,2486,0,7_S
1775033194.098248,2349,0,7_S
1775033194.102874,1759,0,7_S
1775033194.104484,1674,0,7_S
1775033194.107244,1683,0,7_S
1775033194.110232,2099,0,7_S
1775033194.1159449,2484,0,7_S
1775033194.1166139,2148,0,7_S
1775033194.1194959,1737,0,7_S
1775033194.124171,1620,0,7_S
1775033194.125877,1730,0,7_S
1775033194.1284359,2431,0,7_S
1775033194.134321,2464,0,7_S
1775033194.1352918,1874,0,7_S
1775033194.1393769,1614,0,7_S
1775033194.141523,1626,0,7_S
1775033194.1433449,2157,0,7_S
1775033194.1481779,2474,0,7_S
1775033194.149887,2197,0,7_S
1775033194.152451,1705,0,7_S
1775033194.155227,1582,0,7_S
1775033194.162254,1788,0,7_S
1775033194.164088,2315,0,7_S
1775033194.1643252,2524,0,7_S
1775033194.16824,2049,0,7_S
1775033194.1704152,1561,0,7_S
1775033194.1732411,1661,0,7_S
1775033194.176204,2031,0,7_S
1775033194.179252,2490,0,7_S
1775033194.182695,2369,0,7_S
1775033194.185878,1645,0,7_S
1775033194.190347,1607,0,7_S
1775033194.1920052,1750,0,7_S
1775033194.194546,2253,0,7_S
1775033194.197218,2631,0,7_S
1775033194.2038112,1847,0,7_S
1775033194.204193,1675,0,7_S
1775033194.206814,1732,0,7_S
1775033194.211488,1979,0,7_S
1775033194.213135,2410,0,7_S
1775033194.2157109,2288,0,7_S
1775033194.21827,1776,0,7_S
1775033194.2245162,1658,0,7_S
1775033194.2258198,1652,0,7_S
1775033194.228568,2212,0,7_S
1775033194.2302961,2540,0,7_S
1775033194.233676,2083,0,7_S
1775033194.236408,1575,0,7_S
1775033194.239203,1787,0,7_S
1775033194.24222,1779,0,7_S
1775033194.2472608,2382,0,7_S
1775033194.249707,2400,0,7_S
1775033194.2514172,1854,0,7_S
1775033194.2544682,1494,0,7_S
1775033194.257101,1757,0,7_S
1775033194.260085,2276,0,7_S
1775033194.263125,2386,0,7_S
1775033194.266078,2090,0,7_S
1775033194.270902,1777,0,7_S
1775033194.273039,1653,0,7_S
1775033194.276185,1843,0,7_S
1775033194.279707,2372,0,7_S
1775033194.2815502,2292,0,7_S
1775033194.284106,1952,0,7_S
1775033194.2871108,1707,0,7_S
1775033194.2930079,1797,0,7_S
1775033194.295003,2096,0,7_S
1775033194.296893,2371,0,7_S
1775033194.3016262,2151,0,7_S
1775033194.303553,1565,0,7_S
1775033194.3051,1712,0,7_S
1775033194.308095,1885,0,7_S
1775033194.311079,2361,0,7_S
1775033194.3165388,2371,0,7_S
1775033194.317869,1898,0,7_S
1775033194.3222349,1693,0,7_S
1775033194.324471,1715,0,7_S
1775033194.326109,2044,0,7_S
1775033194.3291268,2413,0,7_S
1775033194.3321128,2335,0,7_S
1775033194.336566,1717,0,7_S
1775033194.338932,1629,0,7_S
1775033194.34308,1715,0,7_S
1775033194.345303,2319,0,7_S
1775033194.347114,2492,0,7_S
1775033194.3501198,1982,0,7_S
1775033194.3530922,1587,0,7_S
1775033194.357468,1703,0,7_S
1775033194.359336,1959,0,7_S
1775033194.362208,2284,0,7_S
1775033194.3653388,2299,0,7_S
1775033194.368107,1785,0,7_S
1775033194.371073,1771,0,7_S
1775033194.37408,1683,0,7_S
1775033194.378177,2235,0,7_S
1775033194.3809102,2487,0,7_S
1775033194.383703,2221,0,7_S
1775033194.3870049,1602,0,7_S
1775033194.389566,1723,0,7_S
1775033194.392123,1820,0,7_S
1775033194.3981838,2374,0,7_S
1775033194.398535,2142,0,7_S
1775033194.402069,1931,0,7_S
1775033194.404385,1800,0,7_S
1775033194.4079502,1750,0,7_S
1775033194.4105191,1878,0,7_S
1775033194.413118,2416,0,7_S
1775033194.416074,2171,0,7_S
1775033194.4205172,1817,0,7_S
1775033194.4235141,1756,0,7_S
1775033194.425159,1696,0,7_S
1775033194.428163,2417,0,7_S
1775033194.431108,2515,0,7_S
1775033194.434093,1885,0,7_S
1775033194.4400141,1695,0,7_S
1775033194.440379,1730,0,7_S
1775033194.4437819,2083,0,7_S
1775033194.448381,2447,0,7_S
1775033194.449945,2100,0,7_S
1775033194.452495,2008,0,7_S
1775033194.4550989,1674,0,7_S
1775033194.460938,1593,0,7_S
1775033194.461598,2046,0,7_S
1775033194.464632,2529,0,7_S
1775033194.469046,2064,0,7_S
1775033194.4704971,1691,0,7_S
1775033194.473161,1822,0,7_S
1775033194.476079,1885,0,7_S
1775033194.479158,2541,0,7_S
1775033194.4826958,2138,0,7_S
1775033194.4862368,1796,0,7_S
1775033194.4882948,1747,0,7_S
1775033194.4918022,1632,0,7_S
1775033194.4943402,2077,0,7_S
1775033194.497109,2557,0,7_S
1775033194.503509,1865,0,7_S
1775033194.503965,1544,0,7_S
1775033194.507062,1870,0,7_S
1775033194.511553,2005,0,7_S
1775033194.512917,2438,0,7_S
1775033194.5154781,2426,0,7_S
1775033194.518071,1802,0,7_S
1775033194.525514,1653,0,7_S
1775033194.5268118,1634,0,7_S
1775033194.5284748,2235,0,7_S
1775033194.533498,2303,0,7_S
1775033194.533671,2030,0,7_S
1775033194.536384,1670,0,7_S
1775033194.53909,1840,0,7_S
1775033194.54209,1841,0,7_S
1775033194.549233,2387,0,7_S
1775033194.549387,2324,0,7_S
1775033194.551296,1712,0,7_S
1775033194.556158,1718,0,7_S
1775033194.558072,1826,0,7_S
1775033194.560693,2247,0,7_S
1775033194.563352,2290,0,7_S
1775033194.570086,1965,0,7_S
1775033194.5718431,1780,0,7_S
1775033194.5735838,1839,0,7_S
1775033194.5785651,1829,0,7_S
1775033194.5787678,2278,0,7_S
1775033194.5815182,2269,0,7_S
1775033194.5841658,1862,0,7_S
1775033194.5870888,1649,0,7_S
1775033194.5929668,1741,0,7_S
1775033194.5961978,2086,0,7_S
1775033194.5972228,2338,0,7_S
1775033194.6011038,2263,0,7_S
1775033194.602911,1621,0,7_S
1775033194.605612,1739,0,7_S
1775033194.608257,1910,0,7_S
1775033194.61463,2258,0,7_S
1775033194.6153522,2310,0,7_S
1775033194.6199129,2018,0,7_S
1775033194.6211782,1726,0,7_S
1775033194.6234062,1743,0,7_S
1775033194.626383,2045,0,7_S
1775033194.62907,2268,0,7_S
1775033194.6319659,2254,0,7_S
1775033194.6374981,1784,0,7_S
1775033194.639919,1657,0,7_S
1775033194.641958,1845,0,7_S
1775033194.645529,2061,0,7_S
1775033194.6471522,2394,0,7_S
1775033194.6499681,2038,0,7_S
1775033194.6529448,1658,0,7_S
1775033194.660827,1646,0,7_S
1775033194.661014,2000,0,7_S
1775033194.662606,2380,0,7_S
1775033194.667525,2285,0,7_S
1775033194.668103,1737,0,7_S
1775033194.6710799,1740,0,7_S
1775033194.673971,1840,0,7_S
1775033194.67697,2222,0,7_S
1775033194.682938,2352,0,7_S
1775033194.683178,2038,0,7_S
1775033194.687435,1634,0,7_S
1775033194.6897888,1873,0,7_S
1775033194.692799,1764,0,7_S
1775033194.69545,2431,0,7_S
1775033194.698165,2266,0,7_S
1775033194.705158,1746,0,7_S
1775033194.705311,1690,0,7_S
1775033194.707975,1880,0,7_S
1775033194.709997,2162,0,7_S
1775033194.7138271,2330,0,7_S
1775033194.716506,2015,0,7_S
1775033194.7192261,1644,0,7_S
1775033194.725874,1707,0,7_S
1775033194.727614,1919,0,7_S
1775033194.729271,2359,0,7_S
1775033194.7310112,2365,0,7_S
1775033194.734428,1881,0,7_S
1775033194.737441,1787,0,7_S
1775033194.740097,1734,0,7_S
1775033194.7429628,2097,0,7_S
1775033194.749978,2201,0,7_S
1775033194.750054,2169,0,7_S
1775033194.753152,1784,0,7_S
1775033194.756911,1783,0,7_S
1775033194.758647,1768,0,7_S
1775033194.761353,2118,0,7_S
1775033194.764012,2474,0,7_S
1775033194.772388,2048,0,7_S
1775033194.772769,1547,0,7_S
1775033194.7747252,1618,0,7_S
1775033194.777154,2141,0,7_S
1775033194.779467,2336,0,7_S
1775033194.782371,2190,0,7_S
1775033194.785019,1741,0,7_S
1775033194.787951,1742,0,7_S
1775033194.793749,1755,0,7_S
1775033194.795487,2256,0,7_S
1775033194.79767,2373,0,7_S
1775033194.8016682,2011,0,7_S
1775033194.803353,1761,0,7_S
1775033194.806129,1810,0,7_S
1775033194.8089879,1918,0,7_S
1775033194.815548,2449,0,7_S
1775033194.816573,2319,0,7_S
1775033194.82027,1864,0,7_S
1775033194.823263,1849,0,7_S
1775033194.825556,1309,0,7_S
1775033194.827353,2196,0,7_S
1775033194.830039,2710,0,7_S
1775033194.832955,2076,0,7_S
1775033194.839784,1277,0,7_S
1775033194.841053,1773,0,7_S
1775033194.8455591,1877,0,7_S
1775033194.84818,2779,0,7_S
1775033194.848552,2087,0,7_S
1775033194.85136,1814,0,7_S
1775033194.854044,1794,0,7_S
1775033194.857012,1700,0,7_S
1775033194.863601,1918,0,7_S
1775033194.863999,2311,0,7_S
1775033194.86703,2244,0,7_S
1775033194.87203,1646,0,7_S
1775033194.872384,1675,0,7_S
1775033194.875353,1945,0,7_S
1775033194.878005,2312,0,7_S
1775033194.880964,2404,0,7_S
1775033194.887722,1894,0,7_S
1775033194.887975,1551,0,7_S
1775033194.890122,1669,0,7_S
1775033194.8943858,2105,0,7_S
1775033194.8962612,2463,0,7_S
1775033194.898954,2192,0,7_S
1775033194.90196,1661,0,7_S
1775033194.9098518,1674,0,7_S
1775033194.91006,1801,0,7_S
1775033194.911969,2303,0,7_S
1775033194.9145238,2453,0,7_S
1775033194.917026,1949,0,7_S
1775033194.919952,1664,0,7_S
1775033194.922954,1675,0,7_S
1775033194.925948,2062,0,7_S
1775033194.932365,2375,0,7_S
1775033194.9326878,2238,0,7_S
1775033194.935937,1779,0,7_S
1775033194.939487,1676,0,7_S
1775033194.941152,1689,0,7_S
1775033194.943958,2220,0,7_S
1775033194.946971,2507,0,7_S
1775033194.954941,2034,0,7_S
1775033194.9564958,1685,0,7_S
1775033194.9575229,1714,0,7_S
1775033194.962079,1961,0,7_S
1775033194.96248,2383,0,7_S
1775033194.965447,2288,0,7_S
1775033194.968116,1750,0,7_S
1775033194.970954,1649,0,7_S
1775033194.977802,1670,0,7_S
1775033194.97933,2191,0,7_S
1775033194.980712,2408,0,7_S
1775033194.984939,2128,0,7_S
1775033194.9866838,1705,0,7_S
1775033194.989318,1708,0,7_S
1775033194.9919622,1909,0,7_S
1775033194.9985359,2342,0,7_S
1775033195.000538,2281,0,7_S
1775033195.002984,1830,0,7_S
1775033195.0074089,1664,0,7_S
1775033195.007554,1636,0,7_S
1775033195.010279,2231,0,7_S
1775033195.012853,2571,0,7_S
1775033195.0158489,2211,0,7_S
1775033195.020062,1626,0,7_S
1775033195.02202,1790,0,7_S
1775033195.024864,1897,0,7_S
1775033195.028107,2356,0,7_S
1775033195.030824,2316,0,7_S
1775033195.033809,1837,0,7_S
1775033195.040223,1559,0,7_S
1775033195.040298,1651,0,7_S
1775033195.0435688,2253,0,7_S
1775033195.048234,2400,0,7_S
1775033195.049792,2289,0,7_S
1775033195.052352,1671,0,7_S
1775033195.054899,1646,0,7_S
1775033195.062208,1874,0,7_S
1775033195.062603,2339,0,7_S
1775033195.065815,2360,0,7_S
1775033195.068498,1902,0,7_S
1775033195.0704892,1596,0,7_S
1775033195.0728178,1773,0,7_S
1775033195.075816,2141,0,7_S
1775033195.0788548,2412,0,7_S
1775033195.0833569,2087,0,7_S
1775033195.085035,1710,0,7_S
1775033195.0890539,1771,0,7_S
1775033195.091101,1756,0,7_S
1775033195.0938392,2118,0,7_S
1775033195.096821,2422,0,7_S
1775033195.0998359,2145,0,7_S
1775033195.103295,1654,0,7_S
1775033195.1074402,1753,0,7_S
1775033195.1098628,1909,0,7_S
1775033195.11201,2459,0,7_S
1775033195.114825,2289,0,7_S
1775033195.117836,1671,0,7_S
1775033195.1208289,1589,0,7_S
1775033195.124885,1747,0,7_S
1775033195.127695,2307,0,7_S
1775033195.132166,2409,0,7_S
1775033195.1339571,2011,0,7_S
1775033195.135807,1630,0,7_S
1775033195.138866,1858,0,7_S
1775033195.1451578,1954,0,7_S
1775033195.145515,2389,0,7_S
1775033195.148563,2309,0,7_S
1775033195.1509361,1697,0,7_S
1775033195.154407,1727,0,7_S
1775033195.15695,1731,0,7_S
1775033195.15982,2151,0,7_S
1775033195.16507,2346,0,7_S
1775033195.1671848,2119,0,7_S
1775033195.168889,1741,0,7_S
1775033195.173368,1803,0,7_S
1775033195.174863,1782,0,7_S
1775033195.177845,2263,0,7_S
1775033195.18084,2446,0,7_S
1775033195.185506,1894,0,7_S
1775033195.187562,1672,0,7_S
1775033195.190358,1698,0,7_S
1775033195.1932192,2142,0,7_S
1775033195.195987,2411,0,7_S
1775033195.1988091,2113,0,7_S
1775033195.201847,1624,0,7_S
1775033195.205772,1601,0,7_S
1775033195.2093408,1758,0,7_S
1775033195.212033,2450,0,7_S
1775033195.214116,2442,0,7_S
1775033195.2169259,1960,0,7_S
1775033195.219813,1694,0,7_S
1775033195.222813,1624,0,7_S
1775033195.229252,2262,0,7_S
1775033195.2293499,2384,0,7_S
1775033195.232219,2219,0,7_S
1775033195.2352881,1750,0,7_S
1775033195.238063,1667,0,7_S
1775033195.240885,1764,0,7_S
1775033195.2438478,2282,0,7_S
1775033195.2483149,2442,0,7_S
1775033195.25018,1947,0,7_S
1775033195.253215,1616,0,7_S
1775033195.2562509,1623,0,7_S
1775033195.2591171,2035,0,7_S
1775033195.261844,2324,0,7_S
1775033195.2648199,2199,0,7_S
1775033195.268503,1814,0,7_S
1775033195.27172,1689,0,7_S
1775033195.276323,1704,0,7_S
1775033195.277775,2274,0,7_S
1775033195.280299,2519,0,7_S
1775033195.282856,2009,0,7_S
1775033195.289013,1682,0,7_S
1775033195.291306,1790,0,7_S
1775033195.293392,1968,0,7_S
1775033195.297884,2389,0,7_S
1775033195.297975,2246,0,7_S
1775033195.3008451,1791,0,7_S
1775033195.303843,1607,0,7_S
1775033195.310069,1663,0,7_S
1775033195.310722,2298,0,7_S
1775033195.314039,2435,0,7_S
1775033195.316681,1999,0,7_S
1775033195.318882,1698,0,7_S
1775033195.3218079,1704,0,7_S
1775033195.324821,1706,0,7_S
1775033195.32781,2488,0,7_S
1775033195.3315961,2541,0,7_S
1775033195.3349068,1862,0,7_S
1775033195.339075,1599,0,7_S
1775033195.340665,1580,0,7_S
1775033195.3432178,2150,0,7_S
1775033195.345849,2630,0,7_S
1775033195.352607,2155,0,7_S
1775033195.3530262,1366,0,7_S
1775033195.355417,1589,0,7_S
1775033195.3601742,1849,0,7_S
1775033195.361681,2256,0,7_S
1775033195.364227,2423,0,7_S
1775033195.36686,1912,0,7_S
1775033195.372601,1728,0,7_S
1775033195.373235,1723,0,7_S
1775033195.376585,2140,0,7_S
1775033195.380702,2466,0,7_S
1775033195.3823318,2222,0,7_S
1775033195.3848891,1636,0,7_S
1775033195.3878038,1638,0,7_S
1775033195.394322,1724,0,7_S
1775033195.394958,2321,0,7_S
1775033195.397344,2365,0,7_S
1775033195.402035,1923,0,7_S
1775033195.403939,1744,0,7_S
1775033195.405824,1789,0,7_S
1775033195.408844,1986,0,7_S
1775033195.411826,2385,0,7_S
1775033195.425483,2306,0,7_S
1775033195.425756,1771,0,7_S
1775033195.425917,1608,0,7_S
1775033195.426152,1633,0,7_S
1775033195.427764,2252,0,7_S
1775033195.430624,2482,0,7_S
1775033195.4332108,2008,0,7_S
1775033195.439439,1685,0,7_S
1775033195.439842,1786,0,7_S
1775033195.44175,1828,0,7_S
1775033195.44577,2249,0,7_S
1775033195.447972,2363,0,7_S
1775033195.450757,1810,0,7_S
1775033195.453717,1669,0,7_S
1775033195.4567108,1675,0,7_S
1775033195.460753,2225,0,7_S
1775033195.4630232,2461,0,7_S
1775033195.46727,2116,0,7_S
1775033195.469378,1648,0,7_S
1775033195.4719539,1680,0,7_S
1775033195.474727,1777,0,7_S
1775033195.478357,2323,0,7_S
1775033195.481638,2495,0,7_S
1775033195.483728,1825,0,7_S
1775033195.487777,1640,0,7_S
1775033195.489782,1712,0,7_S
1775033195.4927192,2139,0,7_S
1775033195.4963589,2503,0,7_S
1775033195.501911,2181,0,7_S
1775033195.502311,1713,0,7_S
1775033195.50644,1742,0,7_S
1775033195.508929,1714,0,7_S
1775033195.5110168,2310,0,7_S
1775033195.5137322,2440,0,7_S
1775033195.516717,1865,0,7_S
1775033195.519708,1684,0,7_S
1775033195.5233989,1643,0,7_S
1775033195.526628,2011,0,7_S
1775033195.529707,2479,0,7_S
1775033195.531766,2263,0,7_S
1775033195.534729,1694,0,7_S
1775033195.537725,1690,0,7_S
1775033195.544384,1708,0,7_S
1775033195.544708,2306,0,7_S
1775033195.547631,2422,0,7_S
1775033195.552027,2010,0,7_S
1775033195.5535302,1646,0,7_S
1775033195.556083,1729,0,7_S
1775033195.5587049,2027,0,7_S
1775033195.5650392,2364,0,7_S
1775033195.565381,2236,0,7_S
1775033195.568608,1733,0,7_S
1775033195.570844,1639,0,7_S
1775033195.5744839,1708,0,7_S
1775033195.577015,2360,0,7_S
1775033195.5797188,2494,0,7_S
1775033195.5848699,2107,0,7_S
1775033195.587219,1612,0,7_S
1775033195.5890071,1657,0,7_S
1775033195.593318,1933,0,7_S
1775033195.594917,2416,0,7_S
1775033195.597707,2304,0,7_S
1775033195.600679,1773,0,7_S
1775033195.6061518,1621,0,7_S
1775033195.607102,1665,0,7_S
1775033195.610511,2140,0,7_S
1775033195.614161,2434,0,7_S
1775033195.615716,2198,0,7_S
1775033195.6186812,1708,0,7_S
1775033195.621669,1653,0,7_S
1775033195.626784,1812,0,7_S
1775033195.628534,2451,0,7_S
1775033195.632545,2362,0,7_S
1775033195.6348522,1853,0,7_S
1775033195.636718,1613,0,7_S
1775033195.6397219,1614,0,7_S
1775033195.64271,2146,0,7_S
1775033195.648511,2499,0,7_S
1775033195.6495419,2174,0,7_S
1775033195.652571,1671,0,7_S
1775033195.655375,1694,0,7_S
1775033195.657726,1662,0,7_S
1775033195.660727,2385,0,7_S
1775033195.664287,2560,0,7_S
1775033195.666858,1923,0,7_S
1775033195.67105,1576,0,7_S
1775033195.673217,1608,0,7_S
1775033195.67616,2057,0,7_S
1775033195.679501,2470,0,7_S
1775033195.6822212,2231,0,7_S
1775033195.684777,1695,0,7_S
1775033195.687736,1653,0,7_S
1775033195.692398,1701,0,7_S
1775033195.694359,2322,0,7_S
1775033195.698408,2493,0,7_S
1775033195.700562,2036,0,7_S
1775033195.703261,1625,0,7_S
1775033195.7058098,1654,0,7_S
1775033195.708715,1954,0,7_S
1775033195.7128088,2471,0,7_S
1775033195.714825,2237,0,7_S
1775033195.718849,1773,0,7_S
1775033195.720914,1645,0,7_S
1775033195.723716,1667,0,7_S
1775033195.726689,2199,0,7_S
1775033195.729708,2536,0,7_S
1775033195.7334862,2032,0,7_S
1775033195.7356842,1664,0,7_S
1775033195.7398431,1626,0,7_S
1775033195.74201,1973,0,7_S
1775033195.744739,2500,0,7_S
1775033195.747709,2320,0,7_S
1775033195.7507021,1752,0,7_S
1775033195.7553458,1534,0,7_S
1775033195.758166,1707,0,7_S
1775033195.7605262,2262,0,7_S
1775033195.7638452,2460,0,7_S
1775033195.765771,2151,0,7_S
1775033195.7687109,1696,0,7_S
1775033195.771664,1685,0,7_S
1775033195.778524,1847,0,7_S
1775033195.7792552,2391,0,7_S
1775033195.7808142,2374,0,7_S
1775033195.78399,1796,0,7_S
1775033195.787631,1648,0,7_S
1775033195.790338,1593,0,7_S
1775033195.792953,2126,0,7_S
1775033195.796304,2540,0,7_S
1775033195.80198,2105,0,7_S
1775033195.802303,1637,0,7_S
1775033195.8059578,1789,0,7_S
1775033195.807965,1828,0,7_S
1775033195.8112252,2302,0,7_S
1775033195.81383,2455,0,7_S
1775033195.816673,1926,0,7_S
1775033195.819686,1633,0,7_S
1775033195.824476,1589,0,7_S
1775033195.8262641,2055,0,7_S
1775033195.82924,2450,0,7_S
1775033195.8329349,2313,0,7_S
1775033195.834697,1646,0,7_S
1775033195.8376698,1616,0,7_S
1775033195.8406742,1710,0,7_S
1775033195.8469398,2303,0,7_S
1775033195.8472981,2510,0,7_S
1775033195.850506,2039,0,7_S
1775033195.85284,1634,0,7_S
1775033195.856549,1667,0,7_S
1775033195.859116,1943,0,7_S
1775033195.861711,2456,0,7_S
1775033195.8647082,2257,0,7_S
1775033195.868767,1752,0,7_S
1775033195.871124,1593,0,7_S
1775033195.87424,1634,0,7_S
1775033195.8776488,2281,0,7_S
1775033195.880289,2521,0,7_S
1775033195.882838,2130,0,7_S
1775033195.885673,1657,0,7_S
1775033195.890412,1648,0,7_S
1775033195.8925388,1936,0,7_S
1775033195.896776,2402,0,7_S
1775033195.8989608,2310,0,7_S
1775033195.900676,1841,0,7_S
1775033195.904227,1657,0,7_S
1775033195.9067352,1625,0,7_S
1775033195.912479,2160,0,7_S
1775033195.913794,2463,0,7_S
1775033195.9166012,2118,0,7_S
1775033195.921,1620,0,7_S
1775033195.922603,1733,0,7_S
1775033195.925152,1886,0,7_S
1775033195.927698,2398,0,7_S
1775033195.934061,2303,0,7_S
1775033195.934434,1788,0,7_S
1775033195.9375691,1665,0,7_S
1775033195.942158,1716,0,7_S
1775033195.94363,2258,0,7_S
1775033195.946213,2520,0,7_S
1775033195.948778,2030,0,7_S
1775033195.951573,1660,0,7_S
1775033195.9553752,1757,0,7_S
1775033195.958613,1838,0,7_S
1775033195.961535,2298,0,7_S
1775033195.96375,2299,0,7_S
1775033195.96667,1942,0,7_S
1775033195.969546,1686,0,7_S
1775033195.972557,1416,0,7_S
1775033195.978615,2066,0,7_S
1775033195.979692,2457,0,7_S
1775033195.981606,2390,0,7_S
1775033195.986231,1785,0,7_S
1775033195.987827,1784,0,7_S
1775033195.990562,1470,0,7_S
1775033195.993557,2434,0,7_S
1775033195.9995809,2522,0,7_S
1775033196.0015922,1922,0,7_S
1775033196.003428,1499,0,7_S
1775033196.0059462,1819,0,7_S
1775033196.009346,1999,0,7_S
1775033196.0117602,2286,0,7_S
1775033196.0145679,2281,0,7_S
1775033196.0175622,1642,0,7_S
1775033196.0209239,1827,0,7_S
1775033196.02442,1696,0,7_S
1775033196.029206,2383,0,7_S
1775033196.029609,2308,0,7_S
1775033196.032586,2189,0,7_S
1775033196.035588,1652,0,7_S
1775033196.038667,1611,0,7_S
1775033196.042109,1927,0,7_S
1775033196.045548,2406,0,7_S
1775033196.0485709,2413,0,7_S
1775033196.0507112,1824,0,7_S
1775033196.053605,1472,0,7_S
1775033196.056592,1827,0,7_S
1775033196.063641,2277,0,7_S
1775033196.064341,2367,0,7_S
1775033196.065954,2127,0,7_S
1775033196.06906,1710,0,7_S
1775033196.0722182,1687,0,7_S
1775033196.0750139,1907,0,7_S
1775033196.077596,2382,0,7_S
1775033196.080574,2390,0,7_S
1775033196.084762,1917,0,7_S
1775033196.086764,1558,0,7_S
1775033196.091247,1646,0,7_S
1775033196.0934138,2152,0,7_S
1775033196.096189,2637,0,7_S
1775033196.098754,2165,0,7_S
1775033196.101554,1732,0,7_S
1775033196.106412,1630,0,7_S
1775033196.1088798,1688,0,7_S
1775033196.11131,2361,0,7_S
1775033196.115411,2510,0,7_S
1775033196.1170912,1940,0,7_S
1775033196.119647,1621,0,7_S
1775033196.122549,1553,0,7_S
1775033196.128769,1975,0,7_S
1775033196.129385,2483,0,7_S
1775033196.131892,2213,0,7_S
1775033196.136493,1760,0,7_S
1775033196.138108,1771,0,7_S
1775033196.1406531,1639,0,7_S
1775033196.1435552,2309,0,7_S
1775033196.149715,2506,0,7_S
1775033196.150731,1990,0,7_S
1775033196.153006,1522,0,7_S
1775033196.1580338,1655,0,7_S
1775033196.159647,2037,0,7_S
1775033196.1622112,2349,0,7_S
1775033196.164758,2324,0,7_S
1775033196.1705852,1636,0,7_S
1775033196.170978,1750,0,7_S
1775033196.174291,1790,0,7_S
1775033196.178625,2333,0,7_S
1775033196.1801732,2461,0,7_S
1775033196.1827211,1996,0,7_S
1775033196.185589,1717,0,7_S
1775033196.191556,1642,0,7_S
1775033196.193546,1913,0,7_S
1775033196.1953778,2321,0,7_S
1775033196.197974,2279,0,7_S
1775033196.20168,1719,0,7_S
1775033196.20358,1711,0,7_S
1775033196.206578,1750,0,7_S
1775033196.212641,2171,0,7_S
1775033196.21489,2493,0,7_S
1775033196.216645,2099,0,7_S
1775033196.2190678,1660,0,7_S
1775033196.222368,1706,0,7_S
1775033196.2249181,1868,0,7_S
1775033196.22761,2351,0,7_S
1775033196.2340841,2349,0,7_S
1775033196.234459,1717,0,7_S
1775033196.2371242,1811,0,7_S
1775033196.2415721,1687,0,7_S
1775033196.2430542,2211,0,7_S
1775033196.245617,2463,0,7_S
1775033196.248576,2006,0,7_S
1775033196.253788,1747,0,7_S
1775033196.255765,1749,0,7_S
1775033196.257846,1876,0,7_S
1775033196.262104,2357,0,7_S
1775033196.263646,2400,0,7_S
1775033196.266662,1802,0,7_S
1775033196.269564,1703,0,7_S
1775033196.274674,1767,0,7_S
1775033196.276412,2073,0,7_S
1775033196.282419,2433,0,7_S
1775033196.2825751,2209,0,7_S
1775033196.284564,1641,0,7_S
1775033196.287578,1591,0,7_S
1775033196.290572,1768,0,7_S
1775033196.295028,2383,0,7_S
1775033196.2970119,2420,0,7_S
1775033196.29993,1901,0,7_S
1775033196.3029141,1587,0,7_S
1775033196.305641,1658,0,7_S
1775033196.308547,2128,0,7_S
1775033196.311587,2446,0,7_S
1775033196.315528,2275,0,7_S
1775033196.318572,1701,0,7_S
1775033196.321023,1657,0,7_S
1775033196.324517,1703,0,7_S
1775033196.327071,2310,0,7_S
1775033196.329629,2518,0,7_S
1775033196.3351948,1806,0,7_S
1775033196.3357902,1576,0,7_S
1775033196.339521,1755,0,7_S
1775033196.343315,1923,0,7_S
1775033196.344918,2383,0,7_S
1775033196.3474612,2397,0,7_S
1775033196.3504581,1655,0,7_S
1775033196.3555908,1725,0,7_S
1775033196.3575108,1611,0,7_S
1775033196.360429,2145,0,7_S
1775033196.363492,2519,0,7_S
1775033196.365449,2020,0,7_S
1775033196.368454,1582,0,7_S
1775033196.371434,1726,0,7_S
1775033196.375913,1876,0,7_S
1775033196.3780758,2210,0,7_S
1775033196.380979,2760,0,7_S
1775033196.384002,1696,0,7_S
1775033196.3867662,1784,0,7_S
1775033196.389486,1636,0,7_S
1775033196.392454,2387,0,7_S
1775033196.3964531,2209,0,7_S
1775033196.3993988,2283,0,7_S
1775033196.402483,1536,0,7_S
1775033196.4046102,1626,0,7_S
1775033196.4074602,1672,0,7_S
1775033196.410414,2359,0,7_S
1775033196.4135191,2469,0,7_S
1775033196.416697,2020,0,7_S
1775033196.420672,1496,0,7_S
1775033196.424771,1836,0,7_S
1775033196.426378,2055,0,7_S
1775033196.428946,2503,0,7_S
1775033196.431486,2115,0,7_S
1775033196.4377458,1841,0,7_S
1775033196.437831,1659,0,7_S
1775033196.44113,1714,0,7_S
1775033196.4435341,2353,0,7_S
1775033196.4471722,2491,0,7_S
1775033196.449718,1944,0,7_S
1775033196.452422,1588,0,7_S
1775033196.458266,1739,0,7_S
1775033196.4586189,2020,0,7_S
1775033196.461946,2460,0,7_S
1775033196.4662888,2094,0,7_S
1775033196.467669,1612,0,7_S
1775033196.470448,1732,0,7_S
1775033196.4734159,1603,0,7_S
1775033196.479562,2365,0,7_S
1775033196.479969,2419,0,7_S
1775033196.4836,2150,0,7_S
1775033196.485624,1701,0,7_S
1775033196.489354,1602,0,7_S
1775033196.491901,2070,0,7_S
1775033196.4944918,2428,0,7_S
1775033196.5012858,2182,0,7_S
1775033196.501944,1656,0,7_S
1775033196.504513,1717,0,7_S
1775033196.506915,1721,0,7_S
1775033196.51042,2320,0,7_S
1775033196.512966,2366,0,7_S
1775033196.515518,1855,0,7_S
1775033196.521754,1676,0,7_S
1775033196.521823,1709,0,7_S
1775033196.5255098,2159,0,7_S
1775033196.5278652,2372,0,7_S
1775033196.5311959,2240,0,7_S
1775033196.533744,1792,0,7_S
1775033196.536443,1693,0,7_S
1775033196.5425768,1681,0,7_S
1775033196.543221,2175,0,7_S
1775033196.545967,2497,0,7_S
1775033196.5506449,1967,0,7_S
1775033196.552178,1673,0,7_S
1775033196.554726,1729,0,7_S
1775033196.557442,1845,0,7_S
1775033196.562984,2302,0,7_S
1775033196.563905,2301,0,7_S
1775033196.566695,1860,0,7_S
1775033196.571114,1693,0,7_S
1775033196.572644,1759,0,7_S
1775033196.575443,2170,0,7_S
1775033196.578442,2381,0,7_S
1775033196.58389,2125,0,7_S
1775033196.584509,1717,0,7_S
1775033196.588385,1764,0,7_S
1775033196.5918531,1858,0,7_S
1775033196.593467,2304,0,7_S
1775033196.596468,2336,0,7_S
1775033196.599448,1986,0,7_S
1775033196.604458,1663,0,7_S
1775033196.6061382,1737,0,7_S
1775033196.610267,2404,0,7_S
1775033196.612347,2656,0,7_S
1775033196.615053,2113,0,7_S
1775033196.6176052,1439,0,7_S
1775033196.62045,1472,0,7_S
1775033196.624962,1821,0,7_S
1775033196.626739,2259,0,7_S
1775033196.629605,2442,0,7_S
1775033196.6326091,1974,0,7_S
1775033196.635434,1801,0,7_S
1775033196.638398,1848,0,7_S
1775033196.641428,2000,0,7_S
1775033196.644865,2187,0,7_S
1775033196.6480598,2345,0,7_S
1775033196.6525068,1816,0,7_S
1775033196.653989,1749,0,7_S
1775033196.656534,1655,0,7_S
1775033196.659447,2068,0,7_S
1775033196.6652899,2356,0,7_S
1775033196.6662269,2085,0,7_S
1775033196.6687438,1888,0,7_S
1775033196.673429,1959,0,7_S
1775033196.675114,2151,0,7_S
1775033196.6777449,2387,0,7_S
1775033196.680448,2017,0,7_S
1775033196.686639,1646,0,7_S
1775033196.686959,1636,0,7_S
1775033196.689992,1782,0,7_S
1775033196.694533,2296,0,7_S
1775033196.696051,2454,0,7_S
1775033196.6985972,2067,0,7_S
1775033196.701447,1615,0,7_S
1775033196.707341,1621,0,7_S
1775033196.709249,1959,0,7_S
1775033196.711137,2317,0,7_S
1775033196.713544,2302,0,7_S
1775033196.71706,1775,0,7_S
1775033196.719428,1793,0,7_S
1775033196.722302,1940,0,7_S
1775033196.728176,2130,0,7_S
1775033196.728888,2385,0,7_S
1775033196.7316182,2012,0,7_S
1775033196.7362602,1832,0,7_S
1775033196.73767,1843,0,7_S
1775033196.740337,1729,0,7_S
1775033196.7433002,2660,0,7_S
1775033196.749943,1778,0,7_S
1775033196.7503319,1995,0,7_S
1775033196.753458,1923,0,7_S
1775033196.755712,1725,0,7_S
1775033196.759267,1930,0,7_S
1775033196.761837,2471,0,7_S
1775033196.764375,2286,0,7_S
1775033196.7700312,1534,0,7_S
1775033196.7703621,1644,0,7_S
1775033196.774039,1741,0,7_S
1775033196.7780428,2364,0,7_S
1775033196.779656,2245,0,7_S
1775033196.782315,2140,0,7_S
1775033196.785324,1613,0,7_S
1775033196.791172,1797,0,7_S
1775033196.791786,2120,0,7_S
1775033196.794576,2253,0,7_S
1775033196.799108,2320,0,7_S
1775033196.8006852,1930,0,7_S
1775033196.8033211,1551,0,7_S
1775033196.8063202,1746,0,7_S
1775033196.8124301,2260,0,7_S
1775033196.812783,2474,0,7_S
1775033196.8154728,2024,0,7_S
1775033196.820184,1496,0,7_S
1775033196.821738,1613,0,7_S
1775033196.824332,1969,0,7_S
1775033196.827334,2401,0,7_S
1775033196.832549,2404,0,7_S
1775033196.834535,1790,0,7_S
1775033196.836545,1615,0,7_S
1775033196.8406699,1632,0,7_S
1775033196.84234,2264,0,7_S
1775033196.8453162,2528,0,7_S
1775033196.848321,2129,0,7_S
1775033196.852978,1627,0,7_S
1775033196.854955,1711,0,7_S
1775033196.857858,1966,0,7_S
1775033196.8608372,2321,0,7_S
1775033196.8635352,2314,0,7_S
1775033196.8662882,1872,0,7_S
1775033196.86927,1630,0,7_S
1775033196.8733351,1649,0,7_S
1775033196.8754518,2170,0,7_S
1775033196.878325,2450,0,7_S
1775033196.881303,2115,0,7_S
1775033196.8843,1722,0,7_S
1775033196.887285,1676,0,7_S
1775033196.893552,1827,0,7_S
1775033196.893656,2289,0,7_S
1775033196.897172,2460,0,7_S
1775033196.899564,1902,0,7_S
1775033196.903048,1596,0,7_S
1775033196.905673,1677,0,7_S
1775033196.9083142,2031,0,7_S
1775033196.914243,2466,0,7_S
1775033196.91459,2309,0,7_S
1775033196.91796,1681,0,7_S
1775033196.920397,1593,0,7_S
1775033196.923912,1659,0,7_S
1775033196.926523,2257,0,7_S
1775033196.929478,2560,0,7_S
1775033196.932302,1971,0,7_S
1775033196.9365702,1635,0,7_S
1775033196.938383,1678,0,7_S
1775033196.9424288,1999,0,7_S
1775033196.9445581,2529,0,7_S
1775033196.947295,2301,0,7_S
1775033196.950285,1735,0,7_S
1775033196.953381,1624,0,7_S
1775033196.956438,1722,0,7_S
1775033196.960761,2261,0,7_S
1775033196.962898,2451,0,7_S
1775033196.965345,2051,0,7_S
1775033196.968322,1549,0,7_S
1775033196.971304,1680,0,7_S
1775033196.974976,2015,0,7_S
1775033196.9773881,2464,0,7_S
1775033196.981153,2371,0,7_S
1775033196.983597,1707,0,7_S
1775033196.9871218,1722,0,7_S
1775033196.98979,1664,0,7_S
1775033196.99233,2154,0,7_S
1775033196.997858,2425,0,7_S
1775033196.99855,2073,0,7_S
1775033197.001568,1635,0,7_S
1775033197.006,1733,0,7_S
1775033197.007391,1837,0,7_S
1775033197.010321,2386,0,7_S
1775033197.0133278,2377,0,7_S
1775033197.019305,1878,0,7_S
1775033197.019691,1670,0,7_S
1775033197.023347,1750,0,7_S
1775033197.025392,2140,0,7_S
1775033197.029184,2402,0,7_S
1775033197.031734,2069,0,7_S
1775033197.0342982,1636,0,7_S
1775033197.040033,1831,0,7_S
1775033197.040428,1860,0,7_S
1775033197.044309,2316,0,7_S
1775033197.046696,2356,0,7_S
1775033197.050234,1994,0,7_S
1775033197.052822,1695,0,7_S
1775033197.0553641,1634,0,7_S
1775033197.058292,1988,0,7_S
1775033197.062207,2468,0,7_S
1775033197.065184,2220,0,7_S
1775033197.0678568,1601,0,7_S
1775033197.071223,1686,0,7_S
1775033197.07377,1703,0,7_S
1775033197.0763211,2280,0,7_S
1775033197.082409,2553,0,7_S
1775033197.08302,2011,0,7_S
1775033197.0864708,1608,0,7_S
1775033197.0886898,1713,0,7_S
1775033197.092235,1969,0,7_S
1775033197.094778,2430,0,7_S
1775033197.097319,2173,0,7_S
1775033197.103425,1859,0,7_S
1775033197.103793,1787,0,7_S
1775033197.1069791,1695,0,7_S
1775033197.111305,2201,0,7_S
1775033197.112742,2325,0,7_S
1775033197.115296,2110,0,7_S
1775033197.118289,1663,0,7_S
1775033197.123647,1704,0,7_S
1775033197.1254551,1888,0,7_S
1775033197.1275961,2295,0,7_S
1775033197.131603,2268,0,7_S
1775033197.133387,1871,0,7_S
1775033197.136381,1914,0,7_S
1775033197.139541,1675,0,7_S
1775033197.146283,2143,0,7_S
1775033197.148787,2542,0,7_S
1775033197.1504261,2188,0,7_S
1775033197.152498,1687,0,7_S
1775033197.154871,1632,0,7_S
1775033197.157825,1816,0,7_S
1775033197.160568,2382,0,7_S
1775033197.163231,2391,0,7_S
1775033197.169423,1755,0,7_S
1775033197.171788,1611,0,7_S
1775033197.174517,1704,0,7_S
1775033197.1790578,2216,0,7_S
1775033197.1793869,2533,0,7_S
1775033197.1811981,2169,0,7_S
1775033197.18424,1645,0,7_S
1775033197.1872,1699,0,7_S
1775033197.196063,1873,0,7_S
1775033197.19966,2362,0,7_S
1775033197.200906,2462,0,7_S
1775033197.203539,1850,0,7_S
1775033197.205276,1569,0,7_S
1775033197.205405,1614,0,7_S
1775033197.2081978,2044,0,7_S
1775033197.211195,2413,0,7_S
1775033197.218078,2109,0,7_S
1775033197.2206159,1594,0,7_S
1775033197.22074,1778,0,7_S
1775033197.226049,1927,0,7_S
1775033197.226229,2375,0,7_S
1775033197.22925,2458,0,7_S
1775033197.232198,1988,0,7_S
1775033197.235188,1573,0,7_S
1775033197.242006,1744,0,7_S
1775033197.245248,2066,0,7_S
1775033197.249204,2360,0,7_S
1775033197.2494552,2231,0,7_S
1775033197.251127,1667,0,7_S
1775033197.253788,1639,0,7_S
1775033197.256497,1612,0,7_S
1775033197.26283,2310,0,7_S
1775033197.2638998,2549,0,7_S
1775033197.265745,2064,0,7_S
1775033197.272384,1647,0,7_S
1775033197.274045,1588,0,7_S
1775033197.2745118,2009,0,7_S
1775033197.2772758,2459,0,7_S
1775033197.2801821,2393,0,7_S
1775033197.2871628,1727,0,7_S
1775033197.2873442,1658,0,7_S
1775033197.289341,1612,0,7_S
1775033197.294024,2211,0,7_S
1775033197.296443,2491,0,7_S
1775033197.2981818,2067,0,7_S
1775033197.301173,1636,0,7_S
1775033197.3042188,1653,0,7_S
1775033197.31075,1863,0,7_S
1775033197.312095,2449,0,7_S
1775033197.3136792,2309,0,7_S
1775033197.318603,1808,0,7_S
1775033197.32164,1678,0,7_S
1775033197.322161,1636,0,7_S
1775033197.325237,2295,0,7_S
1775033197.328176,2468,0,7_S
1775033197.337389,2116,0,7_S
1775033197.3378298,1719,0,7_S
1775033197.337943,1768,0,7_S
1775033197.341836,1876,0,7_S
1775033197.3435361,2359,0,7_S
1775033197.346155,2301,0,7_S
1775033197.349188,1792,0,7_S
1775033197.3560371,1643,0,7_S
1775033197.3578491,1666,0,7_S
1775033197.360797,2074,0,7_S
1775033197.361523,2354,0,7_S
1775033197.36477,2239,0,7_S
1775033197.36742,1806,0,7_S
1775033197.370223,1781,0,7_S
1775033197.373863,1785,0,7_S
1775033197.377749,2358,0,7_S
1775033197.379817,2382,0,7_S
1775033197.3829272,1904,0,7_S
1775033197.3861718,1694,0,7_S
1775033197.388183,1637,0,7_S
1775033197.391256,2030,0,7_S
1775033197.39419,2434,0,7_S
1775033197.399828,2219,0,7_S
1775033197.400497,1769,0,7_S
1775033197.405324,1680,0,7_S
1775033197.407546,1649,0,7_S
1775033197.409185,2420,0,7_S
1775033197.412184,2450,0,7_S
1775033197.415178,2023,0,7_S
1775033197.4206169,1616,0,7_S
1775033197.422842,1631,0,7_S
1775033197.424582,1995,0,7_S
1775033197.429173,2368,0,7_S
1775033197.430753,2264,0,7_S
1775033197.4332979,1669,0,7_S
1775033197.436188,1730,0,7_S
1775033197.442569,1837,0,7_S
1775033197.4429061,2259,0,7_S
1775033197.446662,2349,0,7_S
1775033197.4488268,1983,0,7_S
1775033197.451231,1797,0,7_S
1775033197.454155,1784,0,7_S
1775033197.457322,1854,0,7_S
1775033197.4601972,2458,0,7_S
1775033197.4646468,2282,0,7_S
1775033197.4667048,1826,0,7_S
1775033197.469617,1633,0,7_S
1775033197.4731898,1721,0,7_S
1775033197.475203,2117,0,7_S
1775033197.478237,2353,0,7_S
1775033197.481249,2280,0,7_S
1775033197.489355,1631,0,7_S
1775033197.4914079,1665,0,7_S
1775033197.494175,1837,0,7_S
1775033197.496396,2382,0,7_S
1775033197.496661,2400,0,7_S
1775033197.499579,1844,0,7_S
1775033197.502199,1595,0,7_S
1775033197.5050392,1752,0,7_S
1775033197.5112221,2228,0,7_S
1775033197.512426,2542,0,7_S
1775033197.514933,2167,0,7_S
1775033197.5191412,1638,0,7_S
1775033197.520868,1666,0,7_S
1775033197.523422,1747,0,7_S
1775033197.526061,2381,0,7_S
1775033197.533001,2514,0,7_S
1775033197.5337238,1850,0,7_S
1775033197.537062,1593,0,7_S
1775033197.541656,1625,0,7_S
1775033197.541923,2066,0,7_S
1775033197.544791,2441,0,7_S
1775033197.547568,2263,0,7_S
1775033197.550935,1676,0,7_S
1775033197.5663419,1740,0,7_S
1775033197.566431,1737,0,7_S
1775033197.566484,2287,0,7_S
1775033197.566533,2422,0,7_S
1775033197.56686,1953,0,7_S
1775033197.568697,1621,0,7_S
1775033197.5714078,1620,0,7_S
1775033197.5949771,2080,0,7_S
1775033197.5951989,2492,0,7_S
1775033197.595331,2232,0,7_S
1775033197.595615,1747,0,7_S
1775033197.5956428,1680,0,7_S
1775033197.595665,1601,0,7_S
1775033197.595686,2270,0,7_S
1775033197.5957189,2554,0,7_S
1775033197.611817,2090,0,7_S
1775033197.611906,1634,0,7_S
1775033197.611962,1688,0,7_S
1775033197.6120121,1868,0,7_S
1775033197.612061,2409,0,7_S
1775033197.613375,2351,0,7_S
1775033197.616082,1792,0,7_S
1775033197.6220632,1625,0,7_S
1775033197.624985,1633,0,7_S
1775033197.626348,2206,0,7_S
1775033197.6287081,2481,0,7_S
1775033197.632426,2085,0,7_S
1775033197.6341891,1640,0,7_S
1775033197.6370718,1729,0,7_S
1775033197.640069,1889,0,7_S
1775033197.646996,2365,0,7_S
1775033197.647681,2417,0,7_S
1775033197.650311,1843,0,7_S
1775033197.653213,1646,0,7_S
1775033197.6571012,1644,0,7_S
1775033197.658519,2136,0,7_S
1775033197.661267,2511,0,7_S
1775033197.664059,2137,0,7_S
1775033197.670961,1677,0,7_S
1775033197.673064,1739,0,7_S
1775033197.673203,1728,0,7_S
1775033197.677977,2315,0,7_S
1775033197.679692,2431,0,7_S
1775033197.682251,1902,0,7_S
1775033197.685049,1655,0,7_S
1775033197.691082,1639,0,7_S
1775033197.691433,2032,0,7_S
1775033197.694397,2416,0,7_S
1775033197.6989179,2235,0,7_S
1775033197.7005,1735,0,7_S
1775033197.70306,1686,0,7_S
1775033197.706054,1749,0,7_S
1775033197.711055,2324,0,7_S
1775033197.713351,2448,0,7_S
1775033197.7153752,1977,0,7_S
1775033197.719465,1634,0,7_S
1775033197.721055,1693,0,7_S
1775033197.724041,1973,0,7_S
1775033197.72705,2403,0,7_S
1775033197.731717,2324,0,7_S
1775033197.733588,1686,0,7_S
1775033197.736531,1707,0,7_S
1775033197.739706,1669,0,7_S
1775033197.742338,2268,0,7_S
1775033197.745089,2499,0,7_S
1775033197.7480571,2006,0,7_S
1775033197.7522502,1633,0,7_S
1775033197.75522,1673,0,7_S
1775033197.758145,1950,0,7_S
1775033197.7600892,2401,0,7_S
1775033197.763062,2336,0,7_S
1775033197.7660182,1770,0,7_S
1775033197.771977,1680,0,7_S
1775033197.7725928,1645,0,7_S
1775033197.775537,2165,0,7_S
1775033197.780224,2435,0,7_S
1775033197.781676,2203,0,7_S
1775033197.784226,1624,0,7_S
1775033197.787062,1625,0,7_S
1775033197.793238,1945,0,7_S
1775033197.7935748,2416,0,7_S
1775033197.796072,2387,0,7_S
1775033197.8004212,1858,0,7_S
1775033197.802055,1643,0,7_S
1775033197.805005,1625,0,7_S
1775033197.8080509,2134,0,7_S
1775033197.81269,2424,0,7_S
1775033197.8145878,2120,0,7_S
1775033197.818675,1684,0,7_S
1775033197.82079,1691,0,7_S
1775033197.8235168,1772,0,7_S
1775033197.826025,2428,0,7_S
1775033197.82963,2469,0,7_S
1775033197.834955,1873,0,7_S
1775033197.836396,1587,0,7_S
1775033197.838182,1651,0,7_S
1775033197.841116,2082,0,7_S
1775033197.844067,2500,0,7_S
1775033197.847018,2202,0,7_S
1775033197.8532338,1692,0,7_S
1775033197.854464,1605,0,7_S
1775033197.8568509,1732,0,7_S
1775033197.8611672,2358,0,7_S
1775033197.862703,2478,0,7_S
1775033197.865246,1924,0,7_S
1775033197.868052,1643,0,7_S
1775033197.873479,1727,0,7_S
1775033197.8740869,2031,0,7_S
1775033197.87728,2472,0,7_S
1775033197.881213,2290,0,7_S
1775033197.88305,1731,0,7_S
1775033197.886038,1686,0,7_S
1775033197.8890612,1696,0,7_S
1775033197.893398,2246,0,7_S
1775033197.895523,2454,0,7_S
1775033197.898296,1968,0,7_S
1775033197.9014678,1600,0,7_S
1775033197.904188,1622,0,7_S
1775033197.9070232,1940,0,7_S
1775033197.9100559,2467,0,7_S
1775033197.9139042,2347,0,7_S
1775033197.916136,1815,0,7_S
1775033197.9191198,1689,0,7_S
1775033197.92214,1671,0,7_S
1775033197.92505,2226,0,7_S
1775033197.9288661,2484,0,7_S
1775033197.931409,2081,0,7_S
1775033197.935932,1588,0,7_S
1775033197.937898,1643,0,7_S
1775033197.94092,1876,0,7_S
1775033197.944243,2382,0,7_S
1775033197.946053,2439,0,7_S
1775033197.9490619,1908,0,7_S
1775033197.9519339,1662,0,7_S
1775033197.9566069,1625,0,7_S
1775033197.958611,2161,0,7_S
1775033197.9615371,2508,0,7_S
1775033197.964552,2120,0,7_S
1775033197.9672499,1636,0,7_S
1775033197.969932,1613,0,7_S
1775033197.972919,1744,0,7_S
1775033197.976717,2432,0,7_S
1775033197.980342,2422,0,7_S
1775033197.98302,1894,0,7_S
1775033197.985108,1718,0,7_S
1775033197.987926,1668,0,7_S
1775033197.990901,2058,0,7_S
1775033197.993898,2522,0,7_S
1775033197.997674,2216,0,7_S
1775033198.001441,1606,0,7_S
1775033198.0076108,1634,0,7_S
1775033198.007643,1680,0,7_S
1775033198.008936,2308,0,7_S
1775033198.011935,2450,0,7_S
1775033198.0149279,1988,0,7_S
1775033198.019626,1742,0,7_S
1775033198.0212102,1650,0,7_S
1775033198.0242078,1862,0,7_S
1775033198.027498,2536,0,7_S
1775033198.030185,2295,0,7_S
1775033198.032919,1668,0,7_S
1775033198.035939,1685,0,7_S
1775033198.039807,1742,0,7_S
1775033198.043453,2255,0,7_S
1775033198.045179,2598,0,7_S
1775033198.048477,1829,0,7_S
1775033198.051063,1600,0,7_S
1775033198.053937,1699,0,7_S
1775033198.056897,1998,0,7_S
1775033198.060313,2452,0,7_S
1775033198.064009,2251,0,7_S
1775033198.0688488,1704,0,7_S
1775033198.069058,1601,0,7_S
1775033198.071913,1646,0,7_S
1775033198.074898,2402,0,7_S
1775033198.0779321,2540,0,7_S
1775033198.081451,2028,0,7_S
1775033198.085143,1595,0,7_S
1775033198.0876448,1871,0,7_S
1775033198.0900521,1773,0,7_S
1775033198.092902,2334,0,7_S
1775033198.095932,2349,0,7_S
1775033198.102068,1846,0,7_S
1775033198.10246,1644,0,7_S
1775033198.106207,1581,0,7_S
1775033198.108552,2164,0,7_S
1775033198.110941,2485,0,7_S
1775033198.113894,2153,0,7_S
1775033198.116929,1791,0,7_S
1775033198.1200268,1676,0,7_S
1775033198.123412,1851,0,7_S
1775033198.127149,2424,0,7_S
1775033198.129633,2389,0,7_S
1775033198.1319082,1833,0,7_S
1775033198.134896,1669,0,7_S
1775033198.137883,1569,0,7_S
1775033198.140981,2022,0,7_S
1775033198.144435,2430,0,7_S
1775033198.14813,2257,0,7_S
1775033198.150246,1766,0,7_S
1775033198.1539168,1633,0,7_S
1775033198.156458,1754,0,7_S
1775033198.1590679,2390,0,7_S
1775033198.165143,2461,0,7_S
1775033198.165246,1942,0,7_S
1775033198.168876,1603,0,7_S
1775033198.173432,1572,0,7_S
1775033198.174764,2173,0,7_S
1775033198.1773078,2415,0,7_S
1775033198.179924,2307,0,7_S
1775033198.186188,1680,0,7_S
1775033198.18653,1661,0,7_S
1775033198.189364,1800,0,7_S
1775033198.193844,2198,0,7_S
1775033198.195379,2515,0,7_S
1775033198.197936,2041,0,7_S
1775033198.200927,1577,0,7_S
1775033198.20661,1649,0,7_S
1775033198.207495,1953,0,7_S
1775033198.209996,2598,0,7_S
1775033198.214706,2230,0,7_S
1775033198.216306,1781,0,7_S
1775033198.218921,1731,0,7_S
1775033198.221925,1679,0,7_S
1775033198.226806,2190,0,7_S
1775033198.228771,2467,0,7_S
1775033198.232843,2054,0,7_S
1775033198.235009,1597,0,7_S
1775033198.236924,1640,0,7_S
1775033198.239923,1919,0,7_S
1775033198.2428858,2502,0,7_S
1775033198.248085,2391,0,7_S
1775033198.250818,1645,0,7_S
1775033198.2537658,1738,0,7_S
1775033198.255736,1645,0,7_S
1775033198.258576,2239,0,7_S
1775033198.2611399,2558,0,7_S
1775033198.2638998,2144,0,7_S
1775033198.2680042,1597,0,7_S
1775033198.269987,1613,0,7_S
1775033198.272985,1999,0,7_S
1775033198.2760031,2061,0,7_S
1775033198.2789261,2398,0,7_S
1775033198.281897,2045,0,7_S
1775033198.284906,1507,0,7_S
1775033198.288081,1588,0,7_S
1775033198.291662,2201,0,7_S
1775033198.2961679,2519,0,7_S
1775033198.297739,2146,0,7_S
1775033198.300283,1861,0,7_S
1775033198.302908,1596,0,7_S
1775033198.3094862,1726,0,7_S
1775033198.309844,2295,0,7_S
1775033198.3123121,2441,0,7_S
1775033198.316801,1870,0,7_S
1775033198.318411,1573,0,7_S
1775033198.320954,1576,0,7_S
1775033198.323932,2002,0,7_S
1775033198.32983,2387,0,7_S
1775033198.331413,2473,0,7_S
1775033198.333218,1723,0,7_S
1775033198.337634,1657,0,7_S
1775033198.3391979,1705,0,7_S
1775033198.341888,2178,0,7_S
1775033198.3449202,2484,0,7_S
1775033198.3507452,2040,0,7_S
1775033198.352036,1557,0,7_S
1775033198.354086,1711,0,7_S
1775033198.358176,2024,0,7_S
1775033198.359926,2347,0,7_S
1775033198.362923,2280,0,7_S
1775033198.3659189,1835,0,7_S
1775033198.370332,1704,0,7_S
1775033198.372227,1785,0,7_S
1775033198.3763058,1918,0,7_S
1775033198.378504,2516,0,7_S
1775033198.381171,2124,0,7_S
1775033198.383945,1627,0,7_S
1775033198.386797,1632,0,7_S
1775033198.390945,1898,0,7_S
1775033198.3942,2416,0,7_S
1775033198.3969421,2296,0,7_S
1775033198.3992388,1764,0,7_S
1775033198.401855,1616,0,7_S
1775033198.4047842,1592,0,7_S
1775033198.411414,2205,0,7_S
1775033198.411496,2516,0,7_S
1775033198.415245,2115,0,7_S
1775033198.417356,1673,0,7_S
1775033198.420773,1730,0,7_S
1775033198.4232562,2150,0,7_S
1775033198.425812,2145,0,7_S
1775033198.431811,2342,0,7_S
1775033198.432174,1818,0,7_S
1775033198.435612,1643,0,7_S
1775033198.438155,1671,0,7_S
1775033198.4415832,2056,0,7_S
1775033198.444134,2268,0,7_S
1775033198.446791,2212,0,7_S
1775033198.4523368,1639,0,7_S
1775033198.452972,1623,0,7_S
1775033198.456269,1898,0,7_S
1775033198.460545,2315,0,7_S
1775033198.462175,2366,0,7_S
1775033198.4647932,1847,0,7_S
1775033198.467778,1798,0,7_S
1775033198.4729338,1633,0,7_S
1775033198.474827,2138,0,7_S
1775033198.476931,2529,0,7_S
1775033198.48096,2260,0,7_S
1775033198.482778,1579,0,7_S
1775033198.48576,1746,0,7_S
1775033198.48876,1750,0,7_S
1775033198.493168,2270,0,7_S
1775033198.495019,2357,0,7_S
1775033198.499083,1812,0,7_S
1775033198.501129,1721,0,7_S
1775033198.503815,1740,0,7_S
1775033198.506827,2178,0,7_S
1775033198.509761,2506,0,7_S
1775033198.513296,1920,0,7_S
1775033198.516479,1847,0,7_S
1775033198.519514,1765,0,7_S
1775033198.521785,1700,0,7_S
1775033198.5247629,2170,0,7_S
1775033198.528388,2350,0,7_S
1775033198.533992,1987,0,7_S
1775033198.534657,1709,0,7_S
1775033198.5378299,1712,0,7_S
1775033198.5421948,2050,0,7_S
1775033198.543551,2321,0,7_S
1775033198.546108,2176,0,7_S
1775033198.548767,1897,0,7_S
1775033198.554549,1846,0,7_S
1775033198.5550761,1724,0,7_S
1775033198.5589309,2078,0,7_S
1775033198.565365,2458,0,7_S
1775033198.5655549,2152,0,7_S
1775033198.567127,1621,0,7_S
1775033198.5698009,1757,0,7_S
1775033198.5728,2026,0,7_S
1775033198.577,2219,0,7_S
1775033198.57887,2330,0,7_S
1775033198.5829508,1837,0,7_S
1775033198.5851462,1483,0,7_S
1775033198.587839,1844,0,7_S
1775033198.590764,2248,0,7_S
1775033198.593796,2356,0,7_S
1775033198.5979369,2181,0,7_S
1775033198.6010938,1464,0,7_S
1775033198.603729,1836,0,7_S
1775033198.6059022,1942,0,7_S
1775033198.608764,2327,0,7_S
1775033198.611795,2330,0,7_S
1775033198.618049,1887,0,7_S
1775033198.618418,1685,0,7_S
1775033198.622308,1675,0,7_S
1775033198.624091,2157,0,7_S
1775033198.627906,2353,0,7_S
1775033198.629771,2132,0,7_S
1775033198.6327932,1764,0,7_S
1775033198.635892,1741,0,7_S
1775033198.6394298,1838,0,7_S
1775033198.6428869,2217,0,7_S
1775033198.6457431,2275,0,7_S
1775033198.647988,1953,0,7_S
1775033198.650759,1789,0,7_S
1775033198.6537652,1842,0,7_S
1775033198.6568,2106,0,7_S
1775033198.6636229,2476,0,7_S
1775033198.6637928,2340,0,7_S
1775033198.6671722,1647,0,7_S
1775033198.6707819,1456,0,7_S
1775033198.67264,1594,0,7_S
1775033198.6749802,2274,0,7_S
1775033198.67852,2402,0,7_S
1775033198.6892512,2020,0,7_S
1775033198.69258,1722,0,7_S
1775033198.695512,1680,0,7_S
1775033198.695856,2063,0,7_S
1775033198.697595,2524,0,7_S
1775033198.6976728,2302,0,7_S
1775033198.69907,1921,0,7_S
1775033198.7017841,1686,0,7_S
1775033198.704779,1487,0,7_S
1775033198.711734,2135,0,7_S
1775033198.71212,2474,0,7_S
1775033198.715669,1994,0,7_S
1775033198.719862,1520,0,7_S
1775033198.720059,1538,0,7_S
1775033198.722975,2083,0,7_S
1775033198.725798,2656,0,7_S
1775033198.728775,2411,0,7_S
1775033198.7358599,1643,0,7_S
1775033198.736175,1684,0,7_S
1775033198.738129,1770,0,7_S
1775033198.743009,2310,0,7_S
1775033198.745025,2316,0,7_S
1775033198.746769,2123,0,7_S
1775033198.749772,1454,0,7_S
1775033198.752791,1640,0,7_S
1775033198.758667,1997,0,7_S
1775033198.759806,2529,0,7_S
1775033198.762402,2279,0,7_S
1775033198.767009,1889,0,7_S
1775033198.768833,1833,0,7_S
1775033198.770853,1930,0,7_S
1775033198.77379,2155,0,7_S
1775033198.776774,2364,0,7_S
1775033198.7811542,2422,0,7_S
1775033198.783508,1418,0,7_S
1775033198.787946,1552,0,7_S
1775033198.790561,1446,0,7_S
1775033198.792267,2311,0,7_S
1775033198.7947662,2553,0,7_S
1775033198.7977679,1853,0,7_S
1775033198.803753,1450,0,7_S
1775033198.8075368,1715,0,7_S
1775033198.809185,2390,0,7_S
1775033198.812961,2052,0,7_S
1775033198.813461,2327,0,7_S
1775033198.8163571,1843,0,7_S
1775033198.818979,1753,0,7_S
1775033198.821768,1688,0,7_S
1775033198.8278332,2197,0,7_S
1775033198.8292532,2436,0,7_S
1775033198.8314,2069,0,7_S
1775033198.835807,1665,0,7_S
1775033198.8374789,1617,0,7_S
1775033198.8400462,2022,0,7_S
1775033198.842751,2476,0,7_S
1775033198.848862,2368,0,7_S
1775033198.849487,1690,0,7_S
1775033198.85319,1541,0,7_S
1775033198.855486,1714,0,7_S
1775033198.857801,2263,0,7_S
1775033198.860767,2446,0,7_S
1775033198.863754,2256,0,7_S
1775033198.866764,1624,0,7_S
1775033198.8707972,1784,0,7_S
1775033198.872906,1834,0,7_S
1775033198.876431,2228,0,7_S
1775033198.8797681,2344,0,7_S
1775033198.8826659,1804,0,7_S
1775033198.885215,1599,0,7_S
1775033198.887829,1573,0,7_S
1775033198.893153,2215,0,7_S
1775033198.8949592,2439,0,7_S
1775033198.8973289,2136,0,7_S
1775033198.901172,1679,0,7_S
1775033198.902944,1752,0,7_S
1775033198.905778,1903,0,7_S
1775033198.9087648,2348,0,7_S
1775033198.913861,2310,0,7_S
1775033198.915207,1843,0,7_S
1775033198.919162,1678,0,7_S
1775033198.922432,1637,0,7_S
1775033198.9238179,2189,0,7_S
1775033198.926785,2492,0,7_S
1775033198.929785,2284,0,7_S
1775033198.935342,1647,0,7_S
1775033198.935771,1657,0,7_S
1775033198.939214,1818,0,7_S
1775033198.943639,2316,0,7_S
1775033198.945363,2366,0,7_S
1775033198.947915,1860,0,7_S
1775033198.950756,1642,0,7_S
1775033198.9567869,1682,0,7_S
1775033198.957757,2100,0,7_S
1775033198.960608,2478,0,7_S
1775033198.9635909,2252,0,7_S
1775033198.965805,1699,0,7_S
1775033198.968755,1675,0,7_S
1775033198.971776,1672,0,7_S
1775033198.974752,2295,0,7_S
1775033198.978407,2417,0,7_S
1775033198.981626,1961,0,7_S
1775033198.986389,1625,0,7_S
1775033198.986767,1682,0,7_S
1775033198.989789,2069,0,7_S
1775033198.9927528,2520,0,7_S
1775033198.9957829,2291,0,7_S
1775033198.999216,1735,0,7_S
1775033199.00292,1667,0,7_S
1775033199.007283,1731,0,7_S
1775033199.008686,2283,0,7_S
1775033199.011316,2453,0,7_S
1775033199.013897,1988,0,7_S
1775033199.01676,1574,0,7_S
1775033199.021249,1661,0,7_S
1775033199.023558,1957,0,7_S
1775033199.027864,2460,0,7_S
1775033199.030175,2308,0,7_S
1775033199.03197,1760,0,7_S
1775033199.034786,1614,0,7_S
1775033199.03776,1617,0,7_S
1775033199.0453482,2164,0,7_S
1775033199.04689,2489,0,7_S
1775033199.048625,2101,0,7_S
1775033199.051611,1718,0,7_S
1775033199.0541172,1762,0,7_S
1775033199.055787,1887,0,7_S
1775033199.0587652,2416,0,7_S
1775033199.061768,2395,0,7_S
1775033199.0687182,1787,0,7_S
1775033199.069779,1627,0,7_S
1775033199.071856,1651,0,7_S
1775033199.0766132,2114,0,7_S
1775033199.076798,2393,0,7_S
1775033199.079749,2095,0,7_S
1775033199.082795,1781,0,7_S
1775033199.0857768,1664,0,7_S
1775033199.0926762,1790,0,7_S
1775033199.094365,2341,0,7_S
1775033199.095788,2421,0,7_S
1775033199.099796,1906,0,7_S
1775033199.1016378,1681,0,7_S
1775033199.104374,1769,0,7_S
1775033199.1068952,2143,0,7_S
1775033199.114013,2370,0,7_S
1775033199.115711,2155,0,7_S
1775033199.115874,1706,0,7_S
1775033199.118944,1710,0,7_S
1775033199.122831,1788,0,7_S
1775033199.124659,2338,0,7_S
1775033199.127646,2381,0,7_S
1775033199.130657,1884,0,7_S
1775033199.1373491,1612,0,7_S
1775033199.138517,1687,0,7_S
1775033199.141119,2016,0,7_S
1775033199.1453109,2407,0,7_S
1775033199.145764,2327,0,7_S
1775033199.148709,1776,0,7_S
1775033199.151656,1684,0,7_S
1775033199.154645,1719,0,7_S
1775033199.159752,2309,0,7_S
1775033199.16167,2483,0,7_S
1775033199.163832,2013,0,7_S
1775033199.168097,1634,0,7_S
1775033199.169704,1625,0,7_S
1775033199.17268,1949,0,7_S
1775033199.17563,2299,0,7_S
1775033199.181855,2337,0,7_S
1775033199.181936,1837,0,7_S
1775033199.1856582,1749,0,7_S
1775033199.187834,1712,0,7_S
1775033199.191436,2240,0,7_S
1775033199.193844,2471,0,7_S
1775033199.1966348,2072,0,7_S
1775033199.202517,1543,0,7_S
1775033199.202867,1679,0,7_S
1775033199.20591,2018,0,7_S
1775033199.2103832,2509,0,7_S
1775033199.211964,2302,0,7_S
1775033199.2146602,1795,0,7_S
1775033199.217659,1680,0,7_S
1775033199.223161,1698,0,7_S
1775033199.223815,2226,0,7_S
1775033199.227471,2431,0,7_S
1775033199.230989,2094,0,7_S
1775033199.232661,1622,0,7_S
1775033199.235685,1582,0,7_S
1775033199.238658,1821,0,7_S
1775033199.243577,2322,0,7_S
1775033199.2453241,2547,0,7_S
1775033199.251456,1879,0,7_S
1775033199.2515671,1670,0,7_S
1775033199.253658,1651,0,7_S
1775033199.256625,2092,0,7_S
1775033199.259661,2459,0,7_S
1775033199.2648451,2206,0,7_S
1775033199.26626,1699,0,7_S
1775033199.2694411,1677,0,7_S
1775033199.2725601,1757,0,7_S
1775033199.275285,2381,0,7_S
1775033199.277875,2457,0,7_S
1775033199.280666,1987,0,7_S
1775033199.28526,1560,0,7_S
1775033199.287029,1527,0,7_S
1775033199.289929,2038,0,7_S
1775033199.2929611,2448,0,7_S
1775033199.29568,2346,0,7_S
1775033199.2986329,1745,0,7_S
1775033199.3016331,1626,0,7_S
1775033199.305376,1679,0,7_S
1775033199.3082979,2338,0,7_S
1775033199.312684,2482,0,7_S
1775033199.314194,2141,0,7_S
1775033199.3167439,1607,0,7_S
1775033199.31961,1732,0,7_S
1775033199.325835,1924,0,7_S
1775033199.3262239,2420,0,7_S
1775033199.32942,2373,0,7_S
1775033199.331796,1712,0,7_S
1775033199.335357,1508,0,7_S
1775033199.337926,1676,0,7_S
1775033199.340755,2317,0,7_S
1775033199.346675,2526,0,7_S
1775033199.347059,2062,0,7_S
1775033199.3497028,1691,0,7_S
1775033199.354424,1681,0,7_S
1775033199.355985,1823,0,7_S
1775033199.358634,2379,0,7_S
1775033199.361656,2342,0,7_S
1775033199.36716,1809,0,7_S
1775033199.367806,1760,0,7_S
1775033199.370704,1639,0,7_S
1775033199.374815,2210,0,7_S
1775033199.3766332,2506,0,7_S
1775033199.379628,2045,0,7_S
1775033199.382663,1615,0,7_S
1775033199.387799,1731,0,7_S
1775033199.38927,1928,0,7_S
1775033199.393184,2420,0,7_S
1775033199.395413,2278,0,7_S
1775033199.3980758,1805,0,7_S
1775033199.400806,1542,0,7_S
1775033199.403649,1610,0,7_S
1775033199.408063,2323,0,7_S
1775033199.409994,2464,0,7_S
1775033199.4140558,2222,0,7_S
1775033199.416095,1657,0,7_S
1775033199.4188092,1691,0,7_S
1775033199.421613,1757,0,7_S
1775033199.424633,2216,0,7_S
1775033199.4289558,2434,0,7_S
1775033199.4320168,1967,0,7_S
1775033199.436108,1772,0,7_S
1775033199.437817,1674,0,7_S
1775033199.439659,2017,0,7_S
1775033199.442622,2221,0,7_S
1775033199.449247,2305,0,7_S
1775033199.4496992,1785,0,7_S
1775033199.451679,1655,0,7_S
1775033199.455793,1650,0,7_S
1775033199.457984,2335,0,7_S
1775033199.460756,2516,0,7_S
1775033199.463658,1953,0,7_S
1775033199.466654,1593,0,7_S
1775033199.470549,1802,0,7_S
1775033199.473691,2031,0,7_S
1775033199.4757829,2424,0,7_S
1775033199.4788558,2215,0,7_S
1775033199.481649,1752,0,7_S
1775033199.4846232,1663,0,7_S
1775033199.4877372,1648,0,7_S
1775033199.490842,2320,0,7_S
1775033199.495191,2438,0,7_S
1775033199.497016,2063,0,7_S
1775033199.5004108,1677,0,7_S
1775033199.502965,1618,0,7_S
1775033199.505507,1879,0,7_S
1775033199.5119061,2569,0,7_S
1775033199.5125031,2318,0,7_S
1775033199.515083,1700,0,7_S
1775033199.519518,1653,0,7_S
1775033199.52109,1634,0,7_S
1775033199.523638,2183,0,7_S
1775033199.5265331,2453,0,7_S
1775033199.532417,2124,0,7_S
1775033199.534312,1670,0,7_S
1775033199.535896,1697,0,7_S
1775033199.540673,1901,0,7_S
1775033199.542218,2368,0,7_S
1775033199.544771,2376,0,7_S
1775033199.547534,1856,0,7_S
1775033199.555205,1606,0,7_S
1775033199.555383,1584,0,7_S
1775033199.556874,2195,0,7_S
1775033199.561353,2467,0,7_S
1775033199.5629911,2124,0,7_S
1775033199.565542,1615,0,7_S
1775033199.568525,1755,0,7_S
1775033199.574048,1814,0,7_S
1775033199.574972,2408,0,7_S
1775033199.578636,2429,0,7_S
1775033199.5819688,1905,0,7_S
1775033199.583594,1699,0,7_S
1775033199.586544,1647,0,7_S
1775033199.589521,2103,0,7_S
1775033199.59456,2403,0,7_S
1775033199.5962749,2128,0,7_S
1775033199.600248,1695,0,7_S
1775033199.602346,1725,0,7_S
1775033199.605035,1746,0,7_S
1775033199.607577,2331,0,7_S
1775033199.6105332,2416,0,7_S
1775033199.6153011,1899,0,7_S
1775033199.6167822,1629,0,7_S
1775033199.619782,1641,0,7_S
1775033199.6228218,2013,0,7_S
1775033199.625557,2520,0,7_S
1775033199.62853,2303,0,7_S
1775033199.631673,1659,0,7_S
1775033199.635373,1655,0,7_S
1775033199.6381361,1737,0,7_S
1775033199.6424918,2326,0,7_S
1775033199.644032,2506,0,7_S
1775033199.646579,2051,0,7_S
1775033199.6495218,1745,0,7_S
1775033199.6554189,1638,0,7_S
1775033199.655852,1917,0,7_S
1775033199.659172,2467,0,7_S
1775033199.661758,2322,0,7_S
1775033199.665266,1741,0,7_S
1775033199.667818,1630,0,7_S
1775033199.670518,1587,0,7_S
1775033199.676148,2267,0,7_S
1775033199.676835,2436,0,7_S
1775033199.680156,2113,0,7_S
1775033199.684514,1709,0,7_S
1775033199.68608,1654,0,7_S
1775033199.688632,1968,0,7_S
1775033199.691529,2465,0,7_S
1775033199.6968682,2297,0,7_S
1775033199.697731,1687,0,7_S
1775033199.701944,1702,0,7_S
1775033199.7050738,1708,0,7_S
1775033199.706638,2212,0,7_S
1775033199.709585,2483,0,7_S
1775033199.71253,2090,0,7_S
1775033199.717464,1554,0,7_S
1775033199.719591,1641,0,7_S
1775033199.721936,1934,0,7_S
1775033199.7257578,2479,0,7_S
1775033199.7275252,2421,0,7_S
1775033199.7304919,1824,0,7_S
1775033199.733519,1572,0,7_S
1775033199.7393742,1561,0,7_S
1775033199.7397969,2070,0,7_S
1775033199.743104,2611,0,7_S
1775033199.746645,2293,0,7_S
1775033199.748498,1713,0,7_S
1775033199.751491,1624,0,7_S
1775033199.7544801,1669,0,7_S
1775033199.7595332,2340,0,7_S
1775033199.76299,2445,0,7_S
1775033199.763842,1969,0,7_S
1775033199.7670348,1634,0,7_S
1775033199.769881,1619,0,7_S
1775033199.772494,2004,0,7_S
1775033199.775517,2473,0,7_S
1775033199.780397,2207,0,7_S
1775033199.783029,1747,0,7_S
1775033199.787988,1722,0,7_S
1775033199.788136,1736,0,7_S
1775033199.790869,2319,0,7_S
1775033199.7935328,2472,0,7_S
1775033199.796524,1961,0,7_S
1775033199.801143,1475,0,7_S
1775033199.802837,1710,0,7_S
1775033199.8057039,2096,0,7_S
1775033199.808703,2422,0,7_S
1775033199.811528,2326,0,7_S
1775033199.8145,1762,0,7_S
1775033199.817539,1668,0,7_S
1775033199.821578,1675,0,7_S
1775033199.824068,2272,0,7_S
1775033199.829304,2545,0,7_S
1775033199.829531,2083,0,7_S
1775033199.832531,1605,0,7_S
1775033199.83549,1668,0,7_S
1775033199.8385868,1830,0,7_S
1775033199.842153,2413,0,7_S
1775033199.8453178,2427,0,7_S
1775033199.847651,1752,0,7_S
1775033199.8510988,1740,0,7_S
1775033199.8537211,1645,0,7_S
1775033199.856404,2142,0,7_S
1775033199.8624032,2466,0,7_S
1775033199.86305,2187,0,7_S
1775033199.865715,1727,0,7_S
1775033199.870402,1646,0,7_S
1775033199.8719108,1755,0,7_S
1775033199.8744829,2429,0,7_S
1775033199.8773718,2422,0,7_S
1775033199.8824372,1908,0,7_S
1775033199.88447,1652,0,7_S
1775033199.888393,1570,0,7_S
1775033199.890476,2139,0,7_S
1775033199.893177,2524,0,7_S
1775033199.895728,2226,0,7_S
1775033199.898412,1637,0,7_S
1775033199.903583,1633,0,7_S
1775033199.905654,1737,0,7_S
1775033199.907464,2311,0,7_S
1775033199.9107652,2517,0,7_S
1775033199.913455,1987,0,7_S
1775033199.916367,1590,0,7_S
1775033199.9193878,1611,0,7_S
1775033199.9228191,2051,0,7_S
1775033199.926611,2527,0,7_S
1775033199.928755,2200,0,7_S
1775033199.9324439,1709,0,7_S
1775033199.934999,1657,0,7_S
1775033199.9374,1736,0,7_S
1775033199.943771,2381,0,7_S
1775033199.944114,2517,0,7_S
1775033199.947018,1973,0,7_S
1775033199.9514701,1560,0,7_S
1775033199.9531038,1737,0,7_S
1775033199.9556448,1985,0,7_S
1775033199.958404,2391,0,7_S
1775033199.964235,2345,0,7_S
1775033199.964573,1735,0,7_S
1775033199.967547,1660,0,7_S
1775033199.972011,1639,0,7_S
1775033199.97362,2270,0,7_S
1775033199.976397,2480,0,7_S
1775033199.979397,2053,0,7_S
1775033199.984697,1596,0,7_S
1775033199.986364,1695,0,7_S
1775033199.9923258,1816,0,7_S
1775033199.992382,2397,0,7_S
1775033199.994397,2413,0,7_S
1775033199.997396,1831,0,7_S
1775033200.00037,1760,0,7_S
1775033200.004815,1621,0,7_S
1775033200.006717,2279,0,7_S
1775033200.009463,2277,0,7_S
1775033200.012762,2194,0,7_S
1775033200.015553,1748,0,7_S
1775033200.018399,1753,0,7_S
1775033200.021368,1626,0,7_S
1775033200.024647,2391,0,7_S
1775033200.028158,2390,0,7_S
1775033200.0325801,1981,0,7_S
1775033200.034168,1658,0,7_S
1775033200.03672,1541,0,7_S
1775033200.03942,2202,0,7_S
1775033200.0456908,2600,0,7_S
1775033200.0464268,2007,0,7_S
1775033200.0491378,1700,0,7_S
1775033200.053714,1634,0,7_S
1775033200.055239,1722,0,7_S
1775033200.057795,2403,0,7_S
1775033200.06039,2441,0,7_S
1775033200.066425,1869,0,7_S
1775033200.0671418,1606,0,7_S
1775033200.069911,1656,0,7_S
1775033200.074395,2115,0,7_S
1775033200.075857,2505,0,7_S
1775033200.078411,2235,0,7_S
1775033200.081394,1774,0,7_S
1775033200.0864902,1607,0,7_S
1775033200.088323,1729,0,7_S
1775033200.091108,2161,0,7_S
1775033200.094304,2591,0,7_S
1775033200.0968819,2018,0,7_S
1775033200.0994282,1590,0,7_S
1775033200.102405,1673,0,7_S
1775033200.106932,2022,0,7_S
1775033200.108763,2380,0,7_S
1775033200.111613,2301,0,7_S
1775033200.114704,1755,0,7_S
1775033200.1174011,1664,0,7_S
1775033200.120366,1688,0,7_S
1775033200.1234078,2264,0,7_S
1775033200.127313,2501,0,7_S
1775033200.129427,2121,0,7_S
1775033200.1358972,1649,0,7_S
1775033200.135989,1663,0,7_S
1775033200.1387231,1944,0,7_S
1775033200.141408,2404,0,7_S
1775033200.144402,2458,0,7_S
1775033200.149548,1540,0,7_S
1775033200.151737,1624,0,7_S
1775033200.153454,1715,0,7_S
1775033200.158303,2220,0,7_S
1775033200.159977,2511,0,7_S
1775033200.1625578,2100,0,7_S
1775033200.165407,1695,0,7_S
1775033200.1721659,1749,0,7_S
1775033200.172597,1811,0,7_S
1775033200.175759,2327,0,7_S
1775033200.178679,2374,0,7_S
1775033200.181103,1809,0,7_S
1775033200.1833699,1631,0,7_S
1775033200.1863859,1609,0,7_S
1775033200.189396,2199,0,7_S
1775033200.194626,2554,0,7_S
1775033200.196877,2255,0,7_S
1775033200.199321,1492,0,7_S
1775033200.201474,1703,0,7_S
1775033200.205484,1872,0,7_S
1775033200.208003,2404,0,7_S
1775033200.210623,2448,0,7_S
1775033200.213454,1779,0,7_S
1775033200.2193248,1529,0,7_S
1775033200.221086,1663,0,7_S
1775033200.22414,2064,0,7_S
1775033200.2264938,2600,0,7_S
1775033200.228373,2165,0,7_S
1775033200.231393,1652,0,7_S
1775033200.2343712,1662,0,7_S
1775033200.240282,1696,0,7_S
1775033200.2407649,2394,0,7_S
1775033200.244291,2455,0,7_S
1775033200.2468731,1946,0,7_S
1775033200.249404,1702,0,7_S
1775033200.252358,1776,0,7_S
1775033200.255381,1951,0,7_S
1775033200.258378,2394,0,7_S
1775033200.265213,2172,0,7_S
1775033200.268218,1818,0,7_S
1775033200.269118,1772,0,7_S
1775033200.272437,1599,0,7_S
1775033200.274213,2274,0,7_S
1775033200.276829,2455,0,7_S
1775033200.2794619,1962,0,7_S
1775033200.286294,1675,0,7_S
1775033200.290215,1753,0,7_S
1775033200.291042,1935,0,7_S
1775033200.291575,2384,0,7_S
1775033200.2956018,2281,0,7_S
1775033200.297386,1706,0,7_S
1775033200.300384,1860,0,7_S
1775033200.303369,1471,0,7_S
1775033200.310833,2469,0,7_S
1775033200.314199,2174,0,7_S
1775033200.314524,2051,0,7_S
1775033200.318361,1769,0,7_S
1775033200.318688,1640,0,7_S
1775033200.321728,1920,0,7_S
1775033200.324394,2348,0,7_S
1775033200.3273668,2408,0,7_S
1775033200.333128,1798,0,7_S
1775033200.335275,1747,0,7_S
1775033200.3379378,1915,0,7_S
1775033200.3399959,2156,0,7_S
1775033200.3437839,2233,0,7_S
1775033200.345403,2090,0,7_S
1775033200.348395,1724,0,7_S
1775033200.351258,1701,0,7_S
1775033200.3547678,1789,0,7_S
1775033200.3586502,2412,0,7_S
1775033200.361266,2431,0,7_S
1775033200.363533,1672,0,7_S
1775033200.366293,1747,0,7_S
1775033200.370058,1773,0,7_S
1775033200.3726451,2077,0,7_S
1775033200.377158,2308,0,7_S
1775033200.3789709,2059,0,7_S
1775033200.384887,1704,0,7_S
1775033200.3851762,1765,0,7_S
1775033200.387964,1883,0,7_S
1775033200.390325,2434,0,7_S
1775033200.3932412,2320,0,7_S
1775033200.39871,2082,0,7_S
1775033200.399723,1468,0,7_S
1775033200.402783,1717,0,7_S
1775033200.407137,1987,0,7_S
1775033200.408764,2406,0,7_S
1775033200.411351,2072,0,7_S
1775033200.414233,1642,0,7_S
1775033200.4200718,1707,0,7_S
1775033200.421128,1689,0,7_S
1775033200.4244428,2286,0,7_S
1775033200.426893,2669,0,7_S
1775033200.4292831,2129,0,7_S
1775033200.432242,1360,0,7_S
1775033200.435265,1627,0,7_S
1775033200.43823,2040,0,7_S
1775033200.442677,2522,0,7_S
1775033200.444502,2325,0,7_S
1775033200.448638,1605,0,7_S
1775033200.450897,1586,0,7_S
1775033200.4536152,1813,0,7_S
1775033200.456269,2148,0,7_S
1775033200.4592378,2586,0,7_S
1775033200.464088,2058,0,7_S
1775033200.4661682,1650,0,7_S
1775033200.468346,1746,0,7_S
1775033200.4726589,1853,0,7_S
1775033200.474284,2208,0,7_S
1775033200.477238,2277,0,7_S
1775033200.480256,1865,0,7_S
1775033200.4858959,1750,0,7_S
1775033200.4869068,1616,0,7_S
1775033200.489717,2247,0,7_S
1775033200.4945679,2552,0,7_S
1775033200.496277,1992,0,7_S
1775033200.498833,1645,0,7_S
1775033200.501379,1825,0,7_S
1775033200.50716,1929,0,7_S
1775033200.5075269,2243,0,7_S
1775033200.511074,2389,0,7_S
1775033200.513768,1852,0,7_S
1775033200.5162811,1668,0,7_S
1775033200.519222,1620,0,7_S
1775033200.5222678,2082,0,7_S
1775033200.525259,2485,0,7_S
1775033200.530577,2275,0,7_S
1775033200.5326269,1762,0,7_S
1775033200.535157,1638,0,7_S
1775033200.539594,1794,0,7_S
1775033200.541224,2382,0,7_S
1775033200.543735,2330,0,7_S
1775033200.546368,1830,0,7_S
1775033200.549244,1728,0,7_S
1775033200.555987,1767,0,7_S
1775033200.557763,2149,0,7_S
1775033200.559306,2536,0,7_S
1775033200.563385,2059,0,7_S
1775033200.5650718,1760,0,7_S
1775033200.567699,1724,0,7_S
1775033200.570327,1773,0,7_S
1775033200.5779068,2343,0,7_S
1775033200.5791638,2457,0,7_S
1775033200.579378,1840,0,7_S
1775033200.583772,1570,0,7_S
1775033200.586296,1695,0,7_S
1775033200.5882509,1939,0,7_S
1775033200.591243,2365,0,7_S
1775033200.59425,2237,0,7_S
1775033200.601807,1697,0,7_S
1775033200.601984,1720,0,7_S
1775033200.604525,1883,0,7_S
1775033200.609188,2302,0,7_S
1775033200.610642,2306,0,7_S
1775033200.6122508,2026,0,7_S
1775033200.615248,1659,0,7_S
1775033200.618264,1744,0,7_S
1775033200.626084,2019,0,7_S
1775033200.6271412,2350,0,7_S
1775033200.6280792,2272,0,7_S
1775033200.6314309,1685,0,7_S
1775033200.633248,1717,0,7_S
1775033200.636291,1788,0,7_S
1775033200.639261,2328,0,7_S
1775033200.645142,2202,0,7_S
1775033200.645598,2250,0,7_S
1775033200.648772,1683,0,7_S
1775033200.651366,1656,0,7_S
1775033200.655304,1949,0,7_S
1775033200.657252,2238,0,7_S
1775033200.660241,2357,0,7_S
1775033200.663229,1822,0,7_S
1775033200.6673322,1710,0,7_S
1775033200.670382,1657,0,7_S
1775033200.673155,2212,0,7_S
1775033200.675329,2476,0,7_S
1775033200.678256,2099,0,7_S
1775033200.6812859,1737,0,7_S
1775033200.687892,1761,0,7_S
1775033200.687917,1973,0,7_S
1775033200.6914,2340,0,7_S
1775033200.693266,2254,0,7_S
1775033200.696558,1888,0,7_S
1775033200.699255,1704,0,7_S
1775033200.7022212,1750,0,7_S
1775033200.705277,2212,0,7_S
1775033200.70854,2419,0,7_S
1775033200.7121081,2110,0,7_S
1775033200.714693,1649,0,7_S
1775033200.718288,1634,0,7_S
1775033200.720225,1838,0,7_S
1775033200.723223,2220,0,7_S
1775033200.7294111,2263,0,7_S
1775033200.730052,1904,0,7_S
1775033200.733441,1818,0,7_S
1775033200.736212,1619,0,7_S
1775033200.738357,2122,0,7_S
1775033200.7412732,2536,0,7_S
1775033200.744229,2291,0,7_S
1775033200.747264,1563,0,7_S
1775033200.751286,1732,0,7_S
1775033200.754709,1685,0,7_S
1775033200.757487,2209,0,7_S
1775033200.75952,2356,0,7_S
1775033200.762333,2167,0,7_S
1775033200.765242,1811,0,7_S
1775033200.768266,1526,0,7_S
1775033200.7720299,1929,0,7_S
1775033200.775341,2369,0,7_S
1775033200.77835,2269,0,7_S
1775033200.780373,1950,0,7_S
1775033200.783255,1576,0,7_S
1775033200.786209,1620,0,7_S
1775033200.789301,2216,0,7_S
1775033200.793196,2248,0,7_S
1775033200.795987,2163,0,7_S
1775033200.80058,2065,0,7_S
1775033200.802186,1745,0,7_S
1775033200.8047428,2125,0,7_S
1775033200.8078022,2335,0,7_S
1775033200.810375,2055,0,7_S
1775033200.814923,1878,0,7_S
1775033200.8167832,1878,0,7_S
1775033200.823384,1964,0,7_S
1775033200.824966,1857,0,7_S
1775033200.825245,2248,0,7_S
1775033200.82823,2480,0,7_S
1775033200.8312378,1568,0,7_S
1775033200.839447,1302,0,7_S
1775033200.839509,1896,0,7_S
1775033200.841124,2325,0,7_S
1775033200.845935,2494,0,7_S
1775033200.846273,2113,0,7_S
1775033200.849223,1046,0,7_S
1775033200.8522382,1779,0,7_S
1775033200.855214,2331,0,7_S
1775033200.861691,2346,0,7_S
1775033200.862108,2417,0,7_S
1775033200.864911,1444,0,7_S
1775033200.868296,1665,0,7_S
1775033200.8704262,1724,0,7_S
1775033200.873256,2403,0,7_S
1775033200.87623,2440,0,7_S
1775033200.881899,1876,0,7_S
1775033200.882255,1567,0,7_S
1775033200.886018,1703,0,7_S
1775033200.888608,2119,0,7_S
1775033200.892051,2409,0,7_S
1775033200.89462,2264,0,7_S
1775033200.897275,1681,0,7_S
1775033200.9002419,1635,0,7_S
1775033200.90335,1771,0,7_S
1775033200.90728,2334,0,7_S
1775033200.9120388,2431,0,7_S
1775033200.912354,1952,0,7_S
1775033200.915264,1700,0,7_S
1775033200.918232,1646,0,7_S
1775033200.922067,2015,0,7_S
1775033200.924625,2425,0,7_S
1775033200.928263,2319,0,7_S
1775033200.9317849,1846,0,7_S
1775033200.9333498,1677,0,7_S
1775033200.937123,1691,0,7_S
1775033200.939733,2258,0,7_S
1775033200.9422982,2397,0,7_S
1775033200.94838,1996,0,7_S
1775033200.9490938,1626,0,7_S
1775033200.9523132,1734,0,7_S
1775033200.957438,1909,0,7_S
1775033200.9575229,2322,0,7_S
1775033200.960332,2292,0,7_S
1775033200.9637928,1805,0,7_S
1775033200.966381,1672,0,7_S
1775033200.972992,1705,0,7_S
1775033200.9740689,2190,0,7_S
1775033200.9759412,2488,0,7_S
1775033200.980552,2148,0,7_S
1775033200.982071,1648,0,7_S
1775033200.984703,1740,0,7_S
1775033200.987265,1906,0,7_S
1775033200.990224,2395,0,7_S
1775033200.994484,2410,0,7_S
1775033200.9976928,1802,0,7_S
1775033201.004411,1595,0,7_S
1775033201.004676,1665,0,7_S
1775033201.0065012,2184,0,7_S
1775033201.008239,2454,0,7_S
1775033201.011341,2179,0,7_S
1775033201.015291,1658,0,7_S
1775033201.0172591,1700,0,7_S
1775033201.0239239,1809,0,7_S
1775033201.0240362,2320,0,7_S
1775033201.02687,2374,0,7_S
1775033201.029472,1854,0,7_S
1775033201.0322628,1656,0,7_S
1775033201.037966,1630,0,7_S
1775033201.0400152,2075,0,7_S
1775033201.0416708,2552,0,7_S
1775033201.04433,2325,0,7_S
1775033201.048013,1666,0,7_S
1775033201.0505621,1651,0,7_S
1775033201.053281,1768,0,7_S
1775033201.056247,2281,0,7_S
1775033201.0613482,2503,0,7_S
1775033201.063526,1851,0,7_S
1775033201.0656571,1638,0,7_S
1775033201.070359,1712,0,7_S
1775033201.071991,2033,0,7_S
1775033201.074603,2402,0,7_S
1775033201.0772538,2266,0,7_S
1775033201.082399,1771,0,7_S
1775033201.084084,1748,0,7_S
1775033201.088181,1683,0,7_S
1775033201.091841,2265,0,7_S
1775033201.092234,2476,0,7_S
1775033201.0952299,1976,0,7_S
1775033201.098221,1645,0,7_S
1775033201.104324,1703,0,7_S
1775033201.1047199,1958,0,7_S
1775033201.10906,2440,0,7_S
1775033201.1132429,2187,0,7_S
1775033201.1133351,1737,0,7_S
1775033201.116228,1684,0,7_S
1775033201.11923,1711,0,7_S
1775033201.122237,2189,0,7_S
1775033201.12968,2492,0,7_S
1775033201.1308532,2135,0,7_S
1775033201.1327481,1740,0,7_S
1775033201.137562,1735,0,7_S
1775033201.137698,1836,0,7_S
1775033201.140713,2354,0,7_S
1775033201.14355,2346,0,7_S
1775033201.150513,1808,0,7_S
1775033201.151655,1604,0,7_S
1775033201.154349,1680,0,7_S
1775033201.157685,2105,0,7_S
1775033201.1593852,2425,0,7_S
1775033201.1612191,2209,0,7_S
1775033201.164255,1627,0,7_S
1775033201.171673,1757,0,7_S
1775033201.172462,1885,0,7_S
1775033201.1742249,2404,0,7_S
1775033201.176374,2358,0,7_S
1775033201.180869,1802,0,7_S
1775033201.182637,1668,0,7_S
1775033201.185237,1696,0,7_S
1775033201.1882381,2239,0,7_S
1775033201.191413,2410,0,7_S
1775033201.1948538,2115,0,7_S
1775033201.198636,1752,0,7_S
1775033201.201484,1652,0,7_S
1775033201.203719,1744,0,7_S
1775033201.206369,2287,0,7_S
1775033201.209264,2389,0,7_S
1775033201.21222,1841,0,7_S
1775033201.2176661,1702,0,7_S
1775033201.218411,1647,0,7_S
1775033201.22238,2081,0,7_S
1775033201.224424,2509,0,7_S
1775033201.2282681,2261,0,7_S
1775033201.230826,1768,0,7_S
1775033201.233386,1695,0,7_S
1775033201.238455,1761,0,7_S
1775033201.240024,2277,0,7_S
1775033201.2442648,2411,0,7_S
1775033201.2463932,1963,0,7_S
1775033201.2482529,1642,0,7_S
1775033201.251221,1709,0,7_S
1775033201.2542138,1951,0,7_S
1775033201.259951,2508,0,7_S
1775033201.2609909,2241,0,7_S
1775033201.263306,1659,0,7_S
1775033201.2681532,1708,0,7_S
1775033201.270082,1790,0,7_S
1775033201.272646,2348,0,7_S
1775033201.275147,2410,0,7_S
1775033201.280468,2076,0,7_S
1775033201.28191,1598,0,7_S
1775033201.284854,1624,0,7_S
1775033201.288607,1952,0,7_S
1775033201.2902348,2472,0,7_S
1775033201.293144,2334,0,7_S
1775033201.2961438,1719,0,7_S
1775033201.302355,1605,0,7_S
1775033201.302461,1684,0,7_S
1775033201.306526,2305,0,7_S
1775033201.308779,2439,0,7_S
1775033201.311181,2154,0,7_S
1775033201.314146,1575,0,7_S
1775033201.31785,1699,0,7_S
1775033201.322479,1708,0,7_S
1775033201.324022,2430,0,7_S
1775033201.328253,2441,0,7_S
1775033201.330383,1837,0,7_S
1775033201.332133,1636,0,7_S
1775033201.335128,1710,0,7_S
1775033201.338163,2101,0,7_S
1775033201.344044,2571,0,7_S
1775033201.3444328,2319,0,7_S
1775033201.348462,1747,0,7_S
1775033201.3517702,1624,0,7_S
1775033201.3534799,1796,0,7_S
1775033201.356108,2408,0,7_S
1775033201.359127,2397,0,7_S
1775033201.366512,1855,0,7_S
1775033201.366608,1537,0,7_S
1775033201.369198,1631,0,7_S
1775033201.373878,2063,0,7_S
1775033201.374333,2299,0,7_S
1775033201.3771331,2167,0,7_S
1775033201.3801,1771,0,7_S
1775033201.383109,1767,0,7_S
1775033201.388342,1782,0,7_S
1775033201.389858,2284,0,7_S
1775033201.393964,2461,0,7_S
1775033201.396151,2016,0,7_S
1775033201.3989089,1686,0,7_S
1775033201.401462,1695,0,7_S
1775033201.4041028,1931,0,7_S
1775033201.409361,2409,0,7_S
1775033201.41121,2386,0,7_S
1775033201.413693,1817,0,7_S
1775033201.41771,1655,0,7_S
1775033201.4194481,1664,0,7_S
1775033201.4220989,2193,0,7_S
1775033201.4251342,2483,0,7_S
1775033201.428129,2061,0,7_S
1775033201.4326808,1672,0,7_S
1775033201.43461,1729,0,7_S
1775033201.43733,1955,0,7_S
1775033201.441308,2287,0,7_S
1775033201.443143,2361,0,7_S
1775033201.446145,1835,0,7_S
1775033201.449196,1675,0,7_S
1775033201.467534,1684,0,7_S
1775033201.4678028,2126,0,7_S
1775033201.467875,2460,0,7_S
1775033201.467995,2125,0,7_S
1775033201.468061,1692,0,7_S
1775033201.468203,1697,0,7_S
1775033201.470162,1970,0,7_S
1775033201.4731698,2402,0,7_S
1775033201.480021,2331,0,7_S
1775033201.4860952,1787,0,7_S
1775033201.48954,1583,0,7_S
1775033201.4897401,1705,0,7_S
1775033201.49206,2128,0,7_S
1775033201.4931772,2400,0,7_S
1775033201.494587,2176,0,7_S
1775033201.4980109,1752,0,7_S
1775033201.500088,1690,0,7_S
1775033201.509501,1738,0,7_S
1775033201.5099142,2482,0,7_S
1775033201.5114272,2412,0,7_S
1775033201.515498,1934,0,7_S
1775033201.5156438,1574,0,7_S
1775033201.518548,1568,0,7_S
1775033201.521191,2109,0,7_S
1775033201.527771,2512,0,7_S
1775033201.5322702,2181,0,7_S
1775033201.5332859,1669,0,7_S
1775033201.533668,1636,0,7_S
1775033201.536887,1740,0,7_S
1775033201.539667,2373,0,7_S
1775033201.5422342,2541,0,7_S
1775033201.545093,1955,0,7_S
1775033201.549463,1616,0,7_S
1775033201.5513961,1693,0,7_S
1775033201.555434,2111,0,7_S
1775033201.557606,2468,0,7_S
1775033201.560319,2235,0,7_S
1775033201.5631418,1677,0,7_S
1775033201.566138,1610,0,7_S
1775033201.569879,1790,0,7_S
1775033201.573434,2189,0,7_S
1775033201.576179,2454,0,7_S
1775033201.578123,2060,0,7_S
1775033201.581096,1572,0,7_S
1775033201.58409,1596,0,7_S
1775033201.590245,1970,0,7_S
