timestamp,ch1,ch2,label
1775031386.193299,84,0,ɔ
1775031386.193495,2168,0,ɔ
1775031386.193599,1500,0,ɔ
1775031386.1937091,1512,0,ɔ
1775031386.198983,1995,0,ɔ
1775031386.19915,2516,0,ɔ
1775031386.204361,2445,0,ɔ
1775031386.206379,1788,0,ɔ
1775031386.2079859,1435,0,ɔ
1775031386.210985,1821,0,ɔ
1775031386.21397,2272,0,ɔ
1775031386.220153,2545,0,ɔ
1775031386.220885,2226,0,ɔ
1775031386.2243378,1402,0,ɔ
1775031386.226735,1469,0,ɔ
1775031386.229016,2015,0,ɔ
1775031386.23199,2399,0,ɔ
1775031386.235116,2494,0,ɔ
1775031386.238206,1950,0,ɔ
1775031386.241597,1362,0,ɔ
1775031386.244044,1603,0,ɔ
1775031386.247186,2102,0,ɔ
1775031386.250366,2656,0,ɔ
1775031386.252982,2422,0,ɔ
1775031386.2559948,1552,0,ɔ
1775031386.2590091,1352,0,ɔ
1775031386.269175,1857,0,ɔ
1775031386.270582,2329,0,ɔ
1775031386.2731972,2499,0,ɔ
1775031386.2751622,2037,0,ɔ
1775031386.275239,1443,0,ɔ
1775031386.2769809,1692,0,ɔ
1775031386.2799811,2099,0,ɔ
1775031386.283071,2419,0,ɔ
1775031386.287235,2202,0,ɔ
1775031386.289925,1767,0,ɔ
1775031386.293059,1509,0,ɔ
1775031386.2956522,1880,0,ɔ
1775031386.2984169,2397,0,ɔ
1775031386.301117,2518,0,ɔ
1775031386.303997,2033,0,ɔ
1775031386.3110342,1299,0,ɔ
1775031386.314395,1616,0,ɔ
1775031386.3147671,2170,0,ɔ
1775031386.317788,2317,0,ɔ
1775031386.3192189,2449,0,ɔ
1775031386.322036,1747,0,ɔ
1775031386.3250072,1406,0,ɔ
1775031386.327992,1790,0,ɔ
1775031386.334781,2240,0,ɔ
1775031386.335167,2526,0,ɔ
1775031386.337522,2178,0,ɔ
1775031386.340705,1587,0,ɔ
1775031386.3434072,1584,0,ɔ
1775031386.3460119,1946,0,ɔ
1775031386.3488798,2435,0,ɔ
1775031386.355388,2463,0,ɔ
1775031386.357334,1809,0,ɔ
1775031386.360445,1407,0,ɔ
1775031386.362365,1775,0,ɔ
1775031386.364838,2134,0,ɔ
1775031386.367241,2614,0,ɔ
1775031386.369923,2198,0,ɔ
1775031386.373044,1566,0,ɔ
1775031386.379091,1414,0,ɔ
1775031386.380911,1999,0,ɔ
1775031386.384011,2441,0,ɔ
1775031386.386336,2534,0,ɔ
1775031386.387907,1875,0,ɔ
1775031386.3908968,1424,0,ɔ
1775031386.393899,1691,0,ɔ
1775031386.399828,2136,0,ɔ
1775031386.3999481,2513,0,ɔ
1775031386.403657,2283,0,ɔ
1775031386.405903,1604,0,ɔ
1775031386.409201,1376,0,ɔ
1775031386.411922,2059,0,ɔ
1775031386.414888,2360,0,ɔ
1775031386.420867,2491,0,ɔ
1775031386.42159,1974,0,ɔ
1775031386.4245172,1411,0,ɔ
1775031386.427237,1688,0,ɔ
1775031386.4298759,2150,0,ɔ
1775031386.4329212,2431,0,ɔ
1775031386.435849,2353,0,ɔ
1775031386.441827,1623,0,ɔ
1775031386.442566,1418,0,ɔ
1775031386.4457102,1813,0,ɔ
1775031386.44874,2280,0,ɔ
1775031386.4514198,2633,0,ɔ
1775031386.4540129,2112,0,ɔ
1775031386.456884,1411,0,ɔ
1775031386.45986,1558,0,ɔ
1775031386.463955,2193,0,ɔ
1775031386.465846,2469,0,ɔ
1775031386.4709918,2343,0,ɔ
1775031386.472631,1701,0,ɔ
1775031386.4752262,1441,0,ɔ
1775031386.477887,1804,0,ɔ
1775031386.480841,2160,0,ɔ
1775031386.4861288,2505,0,ɔ
1775031386.4894452,2151,0,ɔ
1775031386.4900968,1542,0,ɔ
1775031386.495452,1532,0,ɔ
1775031386.495855,2067,0,ɔ
1775031386.499676,2376,0,ɔ
1775031386.50218,2482,0,ɔ
1775031386.5051389,1949,0,ɔ
1775031386.5094981,1399,0,ɔ
1775031386.5138738,1704,0,ɔ
1775031386.514633,2127,0,ɔ
1775031386.51783,2511,0,ɔ
1775031386.520205,2203,0,ɔ
1775031386.5233521,1555,0,ɔ
1775031386.533076,1519,0,ɔ
1775031386.533509,1903,0,ɔ
1775031386.536129,2406,0,ɔ
1775031386.539286,2480,0,ɔ
1775031386.539401,1953,0,ɔ
1775031386.540877,1522,0,ɔ
1775031386.5438652,1704,0,ɔ
1775031386.546748,2139,0,ɔ
1775031386.5516071,2420,0,ɔ
1775031386.553378,2289,0,ɔ
1775031386.556309,1597,0,ɔ
1775031386.559623,1537,0,ɔ
1775031386.5622861,1872,0,ɔ
1775031386.5649128,2286,0,ɔ
1775031386.567759,2403,0,ɔ
1775031386.5734038,1996,0,ɔ
1775031386.575358,1350,0,ɔ
1775031386.5777988,1782,0,ɔ
1775031386.58076,2151,0,ɔ
1775031386.582737,2587,0,ɔ
1775031386.585749,2311,0,ɔ
1775031386.588792,1716,0,ɔ
1775031386.5934951,1441,0,ɔ
1775031386.5959501,1918,0,ɔ
1775031386.598494,2302,0,ɔ
1775031386.601593,2446,0,ɔ
1775031386.6046941,2074,0,ɔ
1775031386.60727,1419,0,ɔ
1775031386.609945,1584,0,ɔ
1775031386.61797,2106,0,ɔ
1775031386.619416,2364,0,ɔ
1775031386.619859,2433,0,ɔ
1775031386.622922,1790,0,ɔ
1775031386.625715,1445,0,ɔ
1775031386.628406,1783,0,ɔ
1775031386.631149,2271,0,ɔ
1775031386.637894,2516,0,ɔ
1775031386.6396768,2186,0,ɔ
1775031386.6398878,1569,0,ɔ
1775031386.644277,1527,0,ɔ
1775031386.645865,1986,0,ɔ
1775031386.648727,2417,0,ɔ
1775031386.6517692,2357,0,ɔ
1775031386.654745,1813,0,ɔ
1775031386.6616518,1470,0,ɔ
1775031386.661936,1724,0,ɔ
1775031386.663831,2240,0,ɔ
1775031386.667642,2468,0,ɔ
1775031386.669749,2290,0,ɔ
1775031386.6727319,1627,0,ɔ
1775031386.675741,1473,0,ɔ
1775031386.682838,1929,0,ɔ
1775031386.6830761,2390,0,ɔ
1775031386.685007,2412,0,ɔ
1775031386.688871,1890,0,ɔ
1775031386.69075,1354,0,ɔ
1775031386.693745,1716,0,ɔ
1775031386.696728,2221,0,ɔ
1775031386.704166,2462,0,ɔ
1775031386.7043462,2464,0,ɔ
1775031386.70667,1648,0,ɔ
1775031386.7090392,1399,0,ɔ
1775031386.711901,1870,0,ɔ
1775031386.714721,2259,0,ɔ
1775031386.7177339,2418,0,ɔ
1775031386.7249641,2115,0,ɔ
1775031386.7253802,1391,0,ɔ
1775031386.7282372,1617,0,ɔ
1775031386.7307,2128,0,ɔ
1775031386.733801,2437,0,ɔ
1775031386.735632,2366,0,ɔ
1775031386.739393,1763,0,ɔ
1775031386.745794,1461,0,ɔ
1775031386.746481,1773,0,ɔ
1775031386.747881,2231,0,ɔ
1775031386.751967,2603,0,ɔ
1775031386.754713,2086,0,ɔ
1775031386.7572951,1465,0,ɔ
1775031386.759858,1704,0,ɔ
1775031386.7626271,2040,0,ɔ
1775031386.766263,2360,0,ɔ
1775031386.768645,2406,0,ɔ
1775031386.7725708,1784,0,ɔ
1775031386.775421,1474,0,ɔ
1775031386.7779891,1760,0,ɔ
1775031386.7807481,2153,0,ɔ
1775031386.786768,2438,0,ɔ
1775031386.7868109,2214,0,ɔ
1775031386.7913952,1612,0,ɔ
1775031386.793644,1523,0,ɔ
1775031386.796462,2056,0,ɔ
1775031386.7989912,2369,0,ɔ
1775031386.801638,2426,0,ɔ
1775031386.8073049,1844,0,ɔ
1775031386.8079748,1451,0,ɔ
1775031386.810943,1703,0,ɔ
1775031386.814785,2260,0,ɔ
1775031386.816627,2462,0,ɔ
1775031386.819595,2261,0,ɔ
1775031386.822612,1645,0,ɔ
1775031386.827631,1451,0,ɔ
1775031386.831288,1919,0,ɔ
1775031386.831667,2340,0,ɔ
1775031386.835309,2433,0,ɔ
1775031386.838043,2068,0,ɔ
1775031386.840638,1427,0,ɔ
1775031386.843599,1716,0,ɔ
1775031386.8482392,2167,0,ɔ
1775031386.850045,2407,0,ɔ
1775031386.8531241,2281,0,ɔ
1775031386.855639,1760,0,ɔ
1775031386.858613,1475,0,ɔ
1775031386.861595,1846,0,ɔ
1775031386.864629,2277,0,ɔ
1775031386.868364,2431,0,ɔ
1775031386.871509,2076,0,ɔ
1775031386.875714,1408,0,ɔ
1775031386.8772569,1685,0,ɔ
1775031386.8798022,2147,0,ɔ
1775031386.882588,2448,0,ɔ
1775031386.88842,2352,0,ɔ
1775031386.888762,1760,0,ɔ
1775031386.891964,1408,0,ɔ
1775031386.895714,1873,0,ɔ
1775031386.897624,2253,0,ɔ
1775031386.90063,2496,0,ɔ
1775031386.9036422,2137,0,ɔ
1775031386.908594,1489,0,ɔ
1775031386.910451,1583,0,ɔ
1775031386.9144561,2007,0,ɔ
1775031386.9159381,2293,0,ɔ
1775031386.9187388,2531,0,ɔ
1775031386.9214962,1851,0,ɔ
1775031386.92447,1407,0,ɔ
1775031386.928591,1835,0,ɔ
1775031386.9305742,2227,0,ɔ
1775031386.934737,2434,0,ɔ
1775031386.9374459,2140,0,ɔ
1775031386.940033,1668,0,ɔ
1775031386.942529,1487,0,ɔ
1775031386.9455922,1978,0,ɔ
1775031386.9489448,2361,0,ɔ
1775031386.9522712,2349,0,ɔ
1775031386.954675,1967,0,ɔ
1775031386.957632,1449,0,ɔ
1775031386.9604769,1693,0,ɔ
1775031386.9635131,2180,0,ɔ
1775031386.9696598,2447,0,ɔ
1775031386.9700422,2242,0,ɔ
1775031386.9728482,1666,0,ɔ
1775031386.975552,1408,0,ɔ
1775031386.978492,1905,0,ɔ
1775031386.981461,2360,0,ɔ
1775031386.98449,2431,0,ɔ
1775031386.9891179,2048,0,ɔ
1775031386.9912808,1543,0,ɔ
1775031386.995311,1688,0,ɔ
1775031386.996924,2083,0,ɔ
1775031386.9995708,2482,0,ɔ
1775031387.002502,2374,0,ɔ
1775031387.005504,1676,0,ɔ
1775031387.009536,1510,0,ɔ
1775031387.0127392,1803,0,ɔ
1775031387.014596,2272,0,ɔ
1775031387.018399,2480,0,ɔ
1775031387.020959,1988,0,ɔ
1775031387.023508,1398,0,ɔ
1775031387.026484,1792,0,ɔ
1775031387.0298429,2107,0,ɔ
1775031387.0333529,2402,0,ɔ
1775031387.0356622,2314,0,ɔ
1775031387.0387352,1854,0,ɔ
1775031387.041504,1457,0,ɔ
1775031387.044512,1816,0,ɔ
1775031387.0505338,2281,0,ɔ
1775031387.05123,2553,0,ɔ
1775031387.0536819,2107,0,ɔ
1775031387.057874,1481,0,ɔ
1775031387.05952,1539,0,ɔ
1775031387.0624819,2078,0,ɔ
1775031387.065469,2489,0,ɔ
1775031387.0717812,2389,0,ɔ
1775031387.071918,1889,0,ɔ
1775031387.0746932,1461,0,ɔ
1775031387.078748,1670,0,ɔ
1775031387.0805042,2243,0,ɔ
1775031387.083468,2496,0,ɔ
1775031387.0865018,2159,0,ɔ
1775031387.092055,1588,0,ɔ
1775031387.093121,1537,0,ɔ
1775031387.0971148,1976,0,ɔ
1775031387.09872,2382,0,ɔ
1775031387.101501,2380,0,ɔ
1775031387.1044679,1958,0,ɔ
1775031387.107469,1482,0,ɔ
1775031387.111155,1765,0,ɔ
1775031387.1144729,2189,0,ɔ
1775031387.117454,2446,0,ɔ
1775031387.120414,2276,0,ɔ
1775031387.1230311,1590,0,ɔ
1775031387.125576,1439,0,ɔ
1775031387.128593,1922,0,ɔ
1775031387.13186,2331,0,ɔ
1775031387.135246,2410,0,ɔ
1775031387.1397371,1995,0,ɔ
1775031387.1411772,1446,0,ɔ
1775031387.1437209,1713,0,ɔ
1775031387.1464698,2097,0,ɔ
1775031387.15263,2461,0,ɔ
1775031387.1530209,2319,0,ɔ
1775031387.155958,1722,0,ɔ
1775031387.160099,1474,0,ɔ
1775031387.161624,1947,0,ɔ
1775031387.164524,2278,0,ɔ
1775031387.1674938,2423,0,ɔ
1775031387.172436,2077,0,ɔ
1775031387.174612,1555,0,ɔ
1775031387.176619,1660,0,ɔ
1775031387.180523,2034,0,ɔ
1775031387.1823518,2381,0,ɔ
1775031387.185374,2308,0,ɔ
1775031387.1883469,1751,0,ɔ
1775031387.192941,1446,0,ɔ
1775031387.1948118,1849,0,ɔ
1775031387.198941,2205,0,ɔ
1775031387.2006521,2462,0,ɔ
1775031387.203348,2239,0,ɔ
1775031387.206343,1551,0,ɔ
1775031387.2093709,1611,0,ɔ
1775031387.21418,2004,0,ɔ
1775031387.215968,2317,0,ɔ
1775031387.218951,2361,0,ɔ
1775031387.221744,1950,0,ɔ
1775031387.224488,1458,0,ɔ
1775031387.227377,1737,0,ɔ
1775031387.230381,2169,0,ɔ
1775031387.235326,2405,0,ɔ
1775031387.237948,2257,0,ɔ
1775031387.23958,1585,0,ɔ
1775031387.242441,1511,0,ɔ
1775031387.2453618,2054,0,ɔ
1775031387.248343,2261,0,ɔ
1775031387.251339,2329,0,ɔ
1775031387.254999,1984,0,ɔ
1775031387.2583182,1494,0,ɔ
1775031387.26294,1736,0,ɔ
1775031387.264334,2176,0,ɔ
1775031387.266879,2380,0,ɔ
1775031387.2694342,2291,0,ɔ
1775031387.2723682,1687,0,ɔ
1775031387.276178,1444,0,ɔ
1775031387.2791739,1920,0,ɔ
1775031387.283493,2311,0,ɔ
1775031387.285054,2430,0,ɔ
1775031387.287594,2053,0,ɔ
1775031387.2903712,1426,0,ɔ
1775031387.296607,1651,0,ɔ
1775031387.296988,2106,0,ɔ
1775031387.299981,2465,0,ɔ
1775031387.302656,2328,0,ɔ
1775031387.3060338,1781,0,ɔ
1775031387.3085911,1457,0,ɔ
1775031387.311351,1875,0,ɔ
1775031387.316841,2266,0,ɔ
1775031387.318103,2364,0,ɔ
1775031387.320443,2173,0,ɔ
1775031387.324755,1626,0,ɔ
1775031387.326371,1625,0,ɔ
1775031387.32937,1968,0,ɔ
1775031387.332362,2377,0,ɔ
1775031387.3379772,2397,0,ɔ
1775031387.338936,1902,0,ɔ
1775031387.3415082,1464,0,ɔ
1775031387.345797,1777,0,ɔ
1775031387.3473878,2161,0,ɔ
1775031387.350368,2349,0,ɔ
1775031387.353375,2245,0,ɔ
1775031387.359036,1622,0,ɔ
1775031387.359696,1462,0,ɔ
1775031387.3625631,2018,0,ɔ
1775031387.366966,2459,0,ɔ
1775031387.368595,2359,0,ɔ
1775031387.371378,1843,0,ɔ
1775031387.374337,1466,0,ɔ
1775031387.3799832,1833,0,ɔ
1775031387.380619,2188,0,ɔ
1775031387.3843148,2436,0,ɔ
1775031387.38748,2182,0,ɔ
1775031387.38935,1607,0,ɔ
1775031387.39235,1535,0,ɔ
1775031387.395343,2019,0,ɔ
1775031387.4006941,2332,0,ɔ
1775031387.404054,2346,0,ɔ
1775031387.404442,1950,0,ɔ
1775031387.4082408,1470,0,ɔ
1775031387.410954,1677,0,ɔ
1775031387.413502,2100,0,ɔ
1775031387.4163682,2358,0,ɔ
1775031387.42063,2236,0,ɔ
1775031387.423022,1841,0,ɔ
1775031387.425936,1453,0,ɔ
1775031387.428929,1900,0,ɔ
1775031387.431617,2315,0,ɔ
1775031387.434222,2440,0,ɔ
1775031387.437262,2090,0,ɔ
1775031387.442293,1524,0,ɔ
1775031387.4437382,1577,0,ɔ
1775031387.44659,2155,0,ɔ
1775031387.449968,2356,0,ɔ
1775031387.452702,2325,0,ɔ
1775031387.455285,1702,0,ɔ
1775031387.4582279,1412,0,ɔ
1775031387.463083,1954,0,ɔ
1775031387.465318,2266,0,ɔ
1775031387.467631,2419,0,ɔ
1775031387.4714339,2189,0,ɔ
1775031387.473253,1478,0,ɔ
1775031387.476223,1658,0,ɔ
1775031387.4792519,2042,0,ɔ
1775031387.4851022,2399,0,ɔ
1775031387.4858382,2312,0,ɔ
1775031387.488651,1843,0,ɔ
1775031387.491358,1458,0,ɔ
1775031387.4951549,1766,0,ɔ
1775031387.497718,2186,0,ɔ
1775031387.5002618,2470,0,ɔ
1775031387.506612,2188,0,ɔ
1775031387.507058,1525,0,ɔ
1775031387.510266,1603,0,ɔ
1775031387.513161,2033,0,ɔ
1775031387.515348,2320,0,ɔ
1775031387.518302,2475,0,ɔ
1775031387.5212412,1904,0,ɔ
1775031387.524328,1353,0,ɔ
1775031387.529639,1736,0,ɔ
1775031387.530678,2281,0,ɔ
1775031387.533868,2418,0,ɔ
1775031387.538073,2230,0,ɔ
1775031387.539702,1610,0,ɔ
1775031387.542249,1516,0,ɔ
1775031387.5452218,1939,0,ɔ
1775031387.5512261,2355,0,ɔ
1775031387.551593,2341,0,ɔ
1775031387.5548549,1908,0,ɔ
1775031387.5593998,1516,0,ɔ
1775031387.5608408,1720,0,ɔ
1775031387.5633988,2206,0,ɔ
1775031387.566242,2416,0,ɔ
1775031387.5724149,2309,0,ɔ
1775031387.5725188,1697,0,ɔ
1775031387.576295,1523,0,ɔ
1775031387.5788538,1876,0,ɔ
1775031387.58126,2340,0,ɔ
1775031387.584248,2435,0,ɔ
1775031387.587256,2017,0,ɔ
1775031387.5902562,1489,0,ɔ
1775031387.5943308,1635,0,ɔ
1775031387.596401,2085,0,ɔ
1775031387.600908,2423,0,ɔ
1775031387.6032472,2362,0,ɔ
1775031387.605251,1726,0,ɔ
1775031387.608247,1361,0,ɔ
1775031387.611258,1795,0,ɔ
1775031387.6167722,2300,0,ɔ
1775031387.617982,2554,0,ɔ
1775031387.621621,2136,0,ɔ
1775031387.6236641,1485,0,ɔ
1775031387.626953,1677,0,ɔ
1775031387.6297028,2117,0,ɔ
1775031387.632256,2421,0,ɔ
1775031387.635232,2441,0,ɔ
1775031387.640086,1798,0,ɔ
1775031387.642081,1355,0,ɔ
1775031387.6449778,1755,0,ɔ
1775031387.6487591,2178,0,ɔ
1775031387.6502872,2435,0,ɔ
1775031387.65325,2209,0,ɔ
1775031387.656105,1513,0,ɔ
1775031387.659122,1561,0,ɔ
1775031387.66334,2040,0,ɔ
1775031387.6653051,2296,0,ɔ
1775031387.668107,2354,0,ɔ
1775031387.672022,1940,0,ɔ
1775031387.674658,1471,0,ɔ
1775031387.6772149,1794,0,ɔ
1775031387.6801002,2243,0,ɔ
1775031387.684789,2439,0,ɔ
1775031387.686709,2229,0,ɔ
1775031387.6898549,1563,0,ɔ
1775031387.6933,1516,0,ɔ
1775031387.695107,2045,0,ɔ
1775031387.698096,2339,0,ɔ
1775031387.7010791,2343,0,ɔ
1775031387.7064698,2036,0,ɔ
1775031387.7088299,1451,0,ɔ
1775031387.7109451,1717,0,ɔ
1775031387.7151418,2197,0,ɔ
1775031387.716749,2411,0,ɔ
1775031387.719288,2283,0,ɔ
1775031387.722089,1738,0,ɔ
1775031387.728128,1451,0,ɔ
1775031387.728524,1864,0,ɔ
1775031387.731735,2266,0,ɔ
1775031387.73558,2412,0,ɔ
1775031387.737104,2055,0,ɔ
1775031387.740086,1567,0,ɔ
1775031387.7430851,1695,0,ɔ
1775031387.747862,2059,0,ɔ
1775031387.749768,2436,0,ɔ
1775031387.7537432,2323,0,ɔ
1775031387.756077,1781,0,ɔ
1775031387.758817,1478,0,ɔ
1775031387.7614021,1830,0,ɔ
1775031387.764102,2198,0,ɔ
1775031387.769089,2445,0,ɔ
1775031387.7709498,2156,0,ɔ
1775031387.77491,1553,0,ɔ
1775031387.77722,1640,0,ɔ
1775031387.779669,2028,0,ɔ
1775031387.7820852,2353,0,ɔ
1775031387.785079,2355,0,ɔ
1775031387.79096,1873,0,ɔ
1775031387.791323,1467,0,ɔ
1775031387.794108,1788,0,ɔ
1775031387.7987,2201,0,ɔ
1775031387.800282,2493,0,ɔ
1775031387.8030841,2208,0,ɔ
1775031387.806082,1555,0,ɔ
1775031387.811866,1583,0,ɔ
1775031387.812287,2025,0,ɔ
1775031387.815401,2368,0,ɔ
1775031387.8199198,2352,0,ɔ
1775031387.8215199,1920,0,ɔ
1775031387.824091,1436,0,ɔ
1775031387.827085,1722,0,ɔ
1775031387.83264,2178,0,ɔ
1775031387.833536,2457,0,ɔ
1775031387.8366349,2285,0,ɔ
1775031387.840984,1597,0,ɔ
1775031387.842597,1530,0,ɔ
1775031387.845149,1966,0,ɔ
1775031387.8481169,2323,0,ɔ
1775031387.8539011,2422,0,ɔ
1775031387.854353,2029,0,ɔ
1775031387.857389,1446,0,ɔ
1775031387.8603258,1689,0,ɔ
1775031387.8639748,2103,0,ɔ
1775031387.866594,2470,0,ɔ
1775031387.86916,2244,0,ɔ
1775031387.872214,1673,0,ɔ
1775031387.875498,1515,0,ɔ
1775031387.879018,1875,0,ɔ
1775031387.8839428,2277,0,ɔ
1775031387.884228,2393,0,ɔ
1775031387.886993,2103,0,ɔ
1775031387.889965,1353,0,ɔ
1775031387.892993,1646,0,ɔ
1775031387.8980422,2054,0,ɔ
1775031387.899617,2454,0,ɔ
1775031387.902826,2351,0,ɔ
1775031387.906139,1771,0,ɔ
1775031387.907999,1578,0,ɔ
1775031387.910953,1675,0,ɔ
1775031387.9147599,2329,0,ɔ
1775031387.919011,2389,0,ɔ
1775031387.9209092,2181,0,ɔ
1775031387.9238012,1528,0,ɔ
1775031387.92716,1673,0,ɔ
1775031387.9289951,1893,0,ɔ
1775031387.931975,2378,0,ɔ
1775031387.934999,2360,0,ɔ
1775031387.940583,1793,0,ɔ
1775031387.9415228,1477,0,ɔ
1775031387.944213,1951,0,ɔ
1775031387.9488058,2112,0,ɔ
1775031387.950402,2519,0,ɔ
1775031387.9530072,2177,0,ɔ
1775031387.9559941,1609,0,ɔ
1775031387.961874,1576,0,ɔ
1775031387.962636,2077,0,ɔ
1775031387.965499,2318,0,ɔ
1775031387.970044,2419,0,ɔ
1775031387.971699,1884,0,ɔ
1775031387.974245,1524,0,ɔ
1775031387.976995,1763,0,ɔ
1775031387.982635,2098,0,ɔ
1775031387.983318,2400,0,ɔ
1775031387.986331,2318,0,ɔ
1775031387.990897,1652,0,ɔ
1775031387.992566,1523,0,ɔ
1775031387.995117,1971,0,ɔ
1775031387.997971,2318,0,ɔ
1775031388.00335,2383,0,ɔ
1775031388.004042,1939,0,ɔ
1775031388.007205,1494,0,ɔ
1775031388.011811,1715,0,ɔ
1775031388.01341,2194,0,ɔ
1775031388.0159822,2443,0,ɔ
1775031388.018982,2196,0,ɔ
1775031388.024909,1817,0,ɔ
1775031388.025236,1456,0,ɔ
1775031388.028651,1940,0,ɔ
1775031388.0310662,2245,0,ɔ
1775031388.034734,2467,0,ɔ
1775031388.0372841,2152,0,ɔ
1775031388.039996,1474,0,ɔ
1775031388.045894,1425,0,ɔ
1775031388.046251,2008,0,ɔ
1775031388.0496142,2547,0,ɔ
1775031388.054015,2476,0,ɔ
1775031388.055628,1666,0,ɔ
1775031388.058155,1268,0,ɔ
1775031388.0609689,1836,0,ɔ
1775031388.0670452,2301,0,ɔ
1775031388.067399,2656,0,ɔ
1775031388.072096,2189,0,ɔ
1775031388.0764039,1335,0,ɔ
1775031388.076459,1344,0,ɔ
1775031388.079372,1981,0,ɔ
1775031388.082007,2508,0,ɔ
1775031388.084961,2360,0,ɔ
1775031388.090898,1807,0,ɔ
1775031388.092082,1383,0,ɔ
1775031388.0942311,1782,0,ɔ
1775031388.098793,2290,0,ɔ
1775031388.100287,2519,0,ɔ
1775031388.1029701,2232,0,ɔ
1775031388.105956,1569,0,ɔ
1775031388.1123168,1519,0,ɔ
1775031388.112753,1945,0,ɔ
1775031388.115891,2287,0,ɔ
1775031388.1191459,2608,0,ɔ
1775031388.121464,1957,0,ɔ
1775031388.124095,1421,0,ɔ
1775031388.126988,1659,0,ɔ
1775031388.129994,2228,0,ɔ
1775031388.134349,2540,0,ɔ
1775031388.136309,2304,0,ɔ
1775031388.1394198,1576,0,ɔ
1775031388.14274,1407,0,ɔ
1775031388.1453838,1825,0,ɔ
1775031388.1479292,2393,0,ɔ
1775031388.151486,2534,0,ɔ
1775031388.155176,2023,0,ɔ
1775031388.157221,1411,0,ɔ
1775031388.161314,1704,0,ɔ
1775031388.163532,2144,0,ɔ
1775031388.1662972,2428,0,ɔ
1775031388.168861,2363,0,ɔ
1775031388.17186,1734,0,ɔ
1775031388.176167,1430,0,ɔ
1775031388.178357,1790,0,ɔ
1775031388.18118,2133,0,ɔ
1775031388.18458,2518,0,ɔ
1775031388.1871748,2194,0,ɔ
1775031388.1898282,1481,0,ɔ
1775031388.192867,1682,0,ɔ
1775031388.197599,2273,0,ɔ
1775031388.199421,2488,0,ɔ
1775031388.203508,2412,0,ɔ
1775031388.2057421,1694,0,ɔ
1775031388.208498,1336,0,ɔ
1775031388.211045,1773,0,ɔ
1775031388.213828,2319,0,ɔ
1775031388.218635,2519,0,ɔ
1775031388.220342,2041,0,ɔ
1775031388.224419,1357,0,ɔ
1775031388.226787,1544,0,ɔ
1775031388.229253,2142,0,ɔ
1775031388.23185,2437,0,ɔ
1775031388.234875,2393,0,ɔ
1775031388.239656,1843,0,ɔ
1775031388.24173,1369,0,ɔ
1775031388.2459068,1878,0,ɔ
1775031388.248213,2345,0,ɔ
1775031388.2498791,2464,0,ɔ
1775031388.2528481,2091,0,ɔ
1775031388.255862,1494,0,ɔ
1775031388.260706,1524,0,ɔ
1775031388.2628238,2073,0,ɔ
1775031388.265768,2357,0,ɔ
1775031388.2690449,2411,0,ɔ
1775031388.2708962,1881,0,ɔ
1775031388.273904,1391,0,ɔ
1775031388.276856,1759,0,ɔ
1775031388.281867,2347,0,ɔ
1775031388.284053,2569,0,ɔ
1775031388.286508,2338,0,ɔ
1775031388.290633,1509,0,ɔ
1775031388.292305,1308,0,ɔ
1775031388.2948852,1834,0,ɔ
1775031388.297825,2303,0,ɔ
1775031388.303763,2538,0,ɔ
1775031388.3044128,2009,0,ɔ
1775031388.3072152,1430,0,ɔ
1775031388.311758,1729,0,ɔ
1775031388.313355,2290,0,ɔ
1775031388.315899,2560,0,ɔ
1775031388.31888,2348,0,ɔ
1775031388.321862,1553,0,ɔ
1775031388.3262799,1384,0,ɔ
1775031388.328011,1837,0,ɔ
1775031388.332083,2244,0,ɔ
1775031388.334335,2501,0,ɔ
1775031388.33702,2058,0,ɔ
1775031388.339844,1455,0,ɔ
1775031388.342855,1638,0,ɔ
1775031388.3475368,2149,0,ɔ
1775031388.34987,2507,0,ɔ
1775031388.35508,2422,0,ɔ
1775031388.35517,1725,0,ɔ
1775031388.35793,1354,0,ɔ
1775031388.3607428,1777,0,ɔ
1775031388.3637571,2255,0,ɔ
1775031388.3681989,2567,0,ɔ
1775031388.369924,2107,0,ɔ
1775031388.374051,1424,0,ɔ
1775031388.376318,1538,0,ɔ
1775031388.379062,2051,0,ɔ
1775031388.3817558,2445,0,ɔ
1775031388.384726,2416,0,ɔ
1775031388.389668,1812,0,ɔ
1775031388.392459,1376,0,ɔ
1775031388.394002,1827,0,ɔ
1775031388.397372,2243,0,ɔ
1775031388.400042,2558,0,ɔ
1775031388.402824,2206,0,ɔ
1775031388.4057379,1534,0,ɔ
1775031388.4102862,1446,0,ɔ
1775031388.412343,1925,0,ɔ
1775031388.416394,2445,0,ɔ
1775031388.4189792,2505,0,ɔ
1775031388.420747,1832,0,ɔ
1775031388.42373,1349,0,ɔ
1775031388.42674,1588,0,ɔ
1775031388.432603,2225,0,ɔ
1775031388.432967,2547,0,ɔ
1775031388.435931,2319,0,ɔ
1775031388.440709,1591,0,ɔ
1775031388.442313,1428,0,ɔ
1775031388.444865,1922,0,ɔ
1775031388.4477298,2378,0,ɔ
1775031388.4539452,2506,0,ɔ
1775031388.454824,2012,0,ɔ
1775031388.4576662,1417,0,ɔ
1775031388.460133,1619,0,ɔ
1775031388.464062,2108,0,ɔ
1775031388.465688,2498,0,ɔ
1775031388.468744,2327,0,ɔ
1775031388.471693,1641,0,ɔ
1775031388.4752152,1458,0,ɔ
1775031388.479075,1950,0,ɔ
1775031388.481772,2323,0,ɔ
1775031388.484021,2554,0,ɔ
1775031388.4867358,2054,0,ɔ
1775031388.489727,1396,0,ɔ
1775031388.492707,1574,0,ɔ
1775031388.496587,2104,0,ɔ
1775031388.499817,2474,0,ɔ
1775031388.503024,2354,0,ɔ
1775031388.5054138,1791,0,ɔ
1775031388.508118,1433,0,ɔ
1775031388.5107908,1842,0,ɔ
1775031388.513702,2287,0,ɔ
1775031388.5181482,2454,0,ɔ
1775031388.520544,2107,0,ɔ
1775031388.5245261,1506,0,ɔ
1775031388.526846,1568,0,ɔ
1775031388.5287402,2065,0,ɔ
1775031388.531737,2410,0,ɔ
1775031388.534719,2468,0,ɔ
1775031388.539457,1892,0,ɔ
1775031388.54147,1365,0,ɔ
1775031388.544415,1663,0,ɔ
1775031388.547647,2209,0,ɔ
1775031388.549576,2618,0,ɔ
1775031388.553396,2308,0,ɔ
1775031388.5559502,1512,0,ɔ
1775031388.559937,1376,0,ɔ
1775031388.5619001,1962,0,ɔ
1775031388.566008,2450,0,ɔ
1775031388.5682812,2438,0,ɔ
1775031388.570983,1926,0,ɔ
1775031388.573621,1375,0,ɔ
1775031388.57661,1653,0,ɔ
1775031388.581117,2120,0,ɔ
1775031388.5832078,2585,0,ɔ
1775031388.5872378,2360,0,ɔ
1775031388.589495,1621,0,ɔ
1775031388.5922291,1431,0,ɔ
1775031388.594789,1859,0,ɔ
1775031388.597619,2392,0,ɔ
1775031388.6028311,2595,0,ɔ
1775031388.6042051,2060,0,ɔ
1775031388.60715,1347,0,ɔ
1775031388.610292,1549,0,ɔ
1775031388.6130052,2171,0,ɔ
1775031388.615582,2558,0,ɔ
1775031388.6186051,2334,0,ɔ
1775031388.6225102,1692,0,ɔ
1775031388.625503,1388,0,ɔ
1775031388.628523,1817,0,ɔ
1775031388.6307368,2246,0,ɔ
1775031388.633579,2512,0,ɔ
1775031388.6366122,2171,0,ɔ
1775031388.6395898,1491,0,ɔ
1775031388.6433222,1541,0,ɔ
1775031388.646846,2149,0,ɔ
1775031388.649534,2502,0,ɔ
1775031388.651804,2345,0,ɔ
1775031388.654613,1736,0,ɔ
1775031388.657581,1392,0,ɔ
1775031388.660589,1815,0,ɔ
1775031388.6639402,2291,0,ɔ
1775031388.667566,2484,0,ɔ
1775031388.669921,2252,0,ɔ
1775031388.6733718,1539,0,ɔ
1775031388.675931,1547,0,ɔ
1775031388.678615,2046,0,ɔ
1775031388.68465,2427,0,ɔ
1775031388.684948,2370,0,ɔ
1775031388.688917,1830,0,ɔ
1775031388.6909618,1396,0,ɔ
1775031388.693632,1710,0,ɔ
1775031388.6965709,2179,0,ɔ
1775031388.699574,2445,0,ɔ
1775031388.705706,2285,0,ɔ
1775031388.7064152,1661,0,ɔ
1775031388.7094378,1532,0,ɔ
1775031388.712298,2021,0,ɔ
1775031388.714685,2343,0,ɔ
1775031388.717568,2424,0,ɔ
1775031388.720607,1951,0,ɔ
1775031388.723593,1421,0,ɔ
1775031388.727419,1659,0,ɔ
1775031388.730573,2106,0,ɔ
1775031388.735088,2456,0,ɔ
1775031388.7364612,2321,0,ɔ
1775031388.73902,1636,0,ɔ
1775031388.741627,1448,0,ɔ
1775031388.747744,1907,0,ɔ
1775031388.748362,2280,0,ɔ
1775031388.751352,2488,0,ɔ
1775031388.7538838,2100,0,ɔ
1775031388.757538,1480,0,ɔ
1775031388.760303,1547,0,ɔ
1775031388.762878,2154,0,ɔ
1775031388.765514,2450,0,ɔ
1775031388.772407,2465,0,ɔ
1775031388.774723,1774,0,ɔ
1775031388.775171,1370,0,ɔ
1775031388.780071,1883,0,ɔ
1775031388.78186,2189,0,ɔ
1775031388.783489,2555,0,ɔ
1775031388.786474,2216,0,ɔ
1775031388.789479,1420,0,ɔ
1775031388.795627,1581,0,ɔ
1775031388.7974222,2103,0,ɔ
1775031388.8019042,2513,0,ɔ
1775031388.804553,2199,0,ɔ
1775031388.804738,1852,0,ɔ
1775031388.807512,1334,0,ɔ
1775031388.810484,1927,0,ɔ
1775031388.814215,2429,0,ɔ
1775031388.821833,2361,0,ɔ
1775031388.8231628,1980,0,ɔ
1775031388.82478,1540,0,ɔ
1775031388.829511,1675,0,ɔ
1775031388.829692,2072,0,ɔ
1775031388.831467,2275,0,ɔ
1775031388.834465,2714,0,ɔ
1775031388.83747,1827,0,ɔ
1775031388.845579,1393,0,ɔ
1775031388.847831,1534,0,ɔ
1775031388.8483331,2189,0,ɔ
1775031388.853069,2511,0,ɔ
1775031388.8533819,2232,0,ɔ
1775031388.855463,1651,0,ɔ
1775031388.858464,1207,0,ɔ
1775031388.8614552,1948,0,ɔ
1775031388.8708491,2506,0,ɔ
1775031388.872382,2390,0,ɔ
1775031388.873584,1952,0,ɔ
1775031388.8750951,1509,0,ɔ
1775031388.8778062,1775,0,ɔ
1775031388.879626,2104,0,ɔ
1775031388.882457,2539,0,ɔ
1775031388.8854778,2354,0,ɔ
1775031388.89429,1485,0,ɔ
1775031388.894651,1330,0,ɔ
1775031388.896641,1678,0,ɔ
1775031388.899704,2651,0,ɔ
1775031388.902515,2609,0,ɔ
1775031388.904108,1771,0,ɔ
1775031388.906632,1442,0,ɔ
1775031388.9096441,1497,0,ɔ
1775031388.9156659,2167,0,ɔ
1775031388.917446,2747,0,ɔ
1775031388.919274,2243,0,ɔ
1775031388.925156,1688,0,ɔ
1775031388.925271,1263,0,ɔ
1775031388.927925,1796,0,ɔ
1775031388.93059,2209,0,ɔ
1775031388.9385128,2681,0,ɔ
1775031388.9416409,2059,0,ɔ
1775031388.94331,1404,0,ɔ
1775031388.9461708,1595,0,ɔ
1775031388.9463522,2135,0,ɔ
1775031388.948468,2400,0,ɔ
1775031388.951458,2404,0,ɔ
1775031388.95447,1721,0,ɔ
1775031388.960348,1191,0,ɔ
1775031388.961409,1737,0,ɔ
1775031388.964519,2170,0,ɔ
1775031388.966667,2655,0,ɔ
1775031388.9707332,2268,0,ɔ
1775031388.972448,1459,0,ɔ
1775031388.9754739,1435,0,ɔ
1775031388.978355,2127,0,ɔ
1775031388.982453,2484,0,ɔ
1775031388.985513,2237,0,ɔ
1775031388.988557,1879,0,ɔ
1775031388.991096,1417,0,ɔ
1775031388.993828,1585,0,ɔ
1775031388.996375,2090,0,ɔ
1775031388.99933,2551,0,ɔ
1775031389.004069,2413,0,ɔ
1775031389.0061598,1465,0,ɔ
1775031389.010197,1405,0,ɔ
1775031389.012686,2011,0,ɔ
1775031389.014359,2327,0,ɔ
1775031389.01739,2294,0,ɔ
1775031389.0203369,2079,0,ɔ
1775031389.0255098,1414,0,ɔ
1775031389.0276742,1505,0,ɔ
1775031389.029912,2099,0,ɔ
1775031389.034519,2874,0,ɔ
1775031389.036136,2409,0,ɔ
1775031389.0386848,1730,0,ɔ
1775031389.041334,1305,0,ɔ
1775031389.0444858,1742,0,ɔ
1775031389.048209,2416,0,ɔ
1775031389.0512168,2577,0,ɔ
1775031389.056545,1942,0,ɔ
1775031389.056739,1348,0,ɔ
1775031389.059577,1458,0,ɔ
1775031389.062359,1949,0,ɔ
1775031389.0653179,2447,0,ɔ
1775031389.069864,2411,0,ɔ
1775031389.071885,1808,0,ɔ
1775031389.074955,1336,0,ɔ
1775031389.0784729,1892,0,ɔ
1775031389.080401,2296,0,ɔ
1775031389.0833468,2631,0,ɔ
1775031389.086354,2163,0,ɔ
1775031389.091845,1516,0,ɔ
1775031389.092788,1466,0,ɔ
1775031389.0960839,2143,0,ɔ
1775031389.100912,2469,0,ɔ
1775031389.102785,2390,0,ɔ
1775031389.104369,1903,0,ɔ
1775031389.1073222,1277,0,ɔ
1775031389.1103349,1668,0,ɔ
1775031389.1159732,2184,0,ɔ
1775031389.116369,2588,0,ɔ
1775031389.1199832,2307,0,ɔ
1775031389.124348,1435,0,ɔ
1775031389.126077,1504,0,ɔ
1775031389.1286662,1987,0,ɔ
1775031389.131335,2299,0,ɔ
1775031389.134526,2403,0,ɔ
1775031389.1383,1997,0,ɔ
1775031389.140733,1499,0,ɔ
1775031389.14402,1677,0,ɔ
1775031389.1477802,2190,0,ɔ
1775031389.14972,2546,0,ɔ
1775031389.152364,2294,0,ɔ
1775031389.155349,1652,0,ɔ
1775031389.1583948,1429,0,ɔ
1775031389.163328,1887,0,ɔ
1775031389.166282,2282,0,ɔ
1775031389.168736,2544,0,ɔ
1775031389.1726139,2035,0,ɔ
1775031389.1742878,1301,0,ɔ
1775031389.176969,1595,0,ɔ
1775031389.179638,2212,0,ɔ
1775031389.182336,2525,0,ɔ
1775031389.188479,2282,0,ɔ
1775031389.188703,1786,0,ɔ
1775031389.1917179,1347,0,ɔ
1775031389.195473,1911,0,ɔ
1775031389.197239,2350,0,ɔ
1775031389.2002099,2549,0,ɔ
1775031389.203258,2066,0,ɔ
1775031389.21085,1471,0,ɔ
1775031389.212231,1567,0,ɔ
1775031389.212928,2167,0,ɔ
1775031389.2179399,2443,0,ɔ
1775031389.218425,2371,0,ɔ
1775031389.221327,1775,0,ɔ
1775031389.224225,1350,0,ɔ
1775031389.2272031,1736,0,ɔ
1775031389.231492,2273,0,ɔ
1775031389.23575,2587,0,ɔ
1775031389.236714,2165,0,ɔ
1775031389.241194,1506,0,ɔ
1775031389.2428539,1554,0,ɔ
1775031389.245297,2078,0,ɔ
1775031389.24821,2401,0,ɔ
1775031389.251416,2438,0,ɔ
1775031389.2554722,1988,0,ɔ
1775031389.2572422,1409,0,ɔ
1775031389.260281,1643,0,ɔ
1775031389.2636428,2140,0,ɔ
1775031389.2663748,2497,0,ɔ
1775031389.269241,2293,0,ɔ
1775031389.2722292,1577,0,ɔ
1775031389.276404,1448,0,ɔ
1775031389.2784839,1901,0,ɔ
1775031389.2814138,2346,0,ɔ
1775031389.284801,2627,0,ɔ
1775031389.287539,1859,0,ɔ
1775031389.29024,1497,0,ɔ
1775031389.293226,1738,0,ɔ
1775031389.297636,2225,0,ɔ
1775031389.299335,2432,0,ɔ
1775031389.303509,2287,0,ɔ
1775031389.305967,1649,0,ɔ
1775031389.30882,1369,0,ɔ
1775031389.311368,1970,0,ɔ
1775031389.314226,2255,0,ɔ
1775031389.318811,2540,0,ɔ
1775031389.320813,2045,0,ɔ
1775031389.3236759,1378,0,ɔ
1775031389.32707,1670,0,ɔ
1775031389.329813,2124,0,ɔ
1775031389.332342,2541,0,ɔ
1775031389.335221,2384,0,ɔ
1775031389.339736,1674,0,ɔ
1775031389.3417878,1328,0,ɔ
1775031389.345844,1820,0,ɔ
1775031389.3482082,2233,0,ɔ
1775031389.35022,2485,0,ɔ
1775031389.353224,2260,0,ɔ
1775031389.3562381,1529,0,ɔ
1775031389.361363,1550,0,ɔ
1775031389.363026,2062,0,ɔ
1775031389.365788,2442,0,ɔ
1775031389.36932,2388,0,ɔ
1775031389.371116,1831,0,ɔ
1775031389.374093,1385,0,ɔ
1775031389.377085,1726,0,ɔ
1775031389.3821461,2092,0,ɔ
1775031389.383847,2617,0,ɔ
1775031389.386682,2261,0,ɔ
1775031389.390103,1480,0,ɔ
1775031389.392803,1471,0,ɔ
1775031389.395361,2025,0,ɔ
1775031389.398088,2476,0,ɔ
1775031389.40303,2423,0,ɔ
1775031389.4050372,1931,0,ɔ
1775031389.407491,1400,0,ɔ
1775031389.411703,1653,0,ɔ
1775031389.4133298,2232,0,ɔ
1775031389.416118,2521,0,ɔ
1775031389.419067,2288,0,ɔ
1775031389.424799,1659,0,ɔ
1775031389.425185,1367,0,ɔ
1775031389.428813,1972,0,ɔ
1775031389.432663,2390,0,ɔ
1775031389.434186,2481,0,ɔ
1775031389.437118,1979,0,ɔ
1775031389.440097,1425,0,ɔ
1775031389.4454038,1592,0,ɔ
1775031389.447346,2171,0,ɔ
1775031389.4492722,2420,0,ɔ
1775031389.453959,2331,0,ɔ
1775031389.455557,1720,0,ɔ
1775031389.458103,1299,0,ɔ
1775031389.461099,1894,0,ɔ
1775031389.467236,2420,0,ɔ
1775031389.4678788,2620,0,ɔ
1775031389.471036,2107,0,ɔ
1775031389.475868,1453,0,ɔ
1775031389.476118,1628,0,ɔ
1775031389.479091,2062,0,ɔ
1775031389.482054,2400,0,ɔ
1775031389.485075,2463,0,ɔ
1775031389.488745,1767,0,ɔ
1775031389.4919832,1372,0,ɔ
1775031389.494942,1699,0,ɔ
1775031389.49739,2357,0,ɔ
1775031389.5001001,2495,0,ɔ
1775031389.5030699,2067,0,ɔ
1775031389.5060742,1511,0,ɔ
1775031389.509998,1613,0,ɔ
1775031389.513658,2115,0,ɔ
1775031389.516308,2340,0,ɔ
1775031389.5189152,2396,0,ɔ
1775031389.521586,1864,0,ɔ
1775031389.524215,1345,0,ɔ
1775031389.5270798,1691,0,ɔ
1775031389.531313,2296,0,ɔ
1775031389.533432,2541,0,ɔ
1775031389.537621,2252,0,ɔ
1775031389.5400882,1530,0,ɔ
1775031389.5420978,1525,0,ɔ
1775031389.5451,2042,0,ɔ
1775031389.548089,2308,0,ɔ
1775031389.5527139,2452,0,ɔ
1775031389.554707,2027,0,ɔ
1775031389.5577788,1433,0,ɔ
1775031389.561156,1544,0,ɔ
1775031389.563095,2098,0,ɔ
1775031389.566051,2519,0,ɔ
1775031389.568973,2364,0,ɔ
1775031389.573833,1648,0,ɔ
1775031389.575453,1439,0,ɔ
1775031389.579645,1914,0,ɔ
1775031389.5834749,2360,0,ɔ
1775031389.5847738,2542,0,ɔ
1775031389.587332,2006,0,ɔ
1775031389.589976,1356,0,ɔ
1775031389.5948858,1711,0,ɔ
1775031389.59674,2085,0,ɔ
1775031389.599574,2480,0,ɔ
1775031389.6031628,2346,0,ɔ
1775031389.60497,1675,0,ɔ
1775031389.6079402,1470,0,ɔ
1775031389.6109738,1971,0,ɔ
1775031389.616239,2281,0,ɔ
1775031389.617683,2461,0,ɔ
1775031389.621582,2159,0,ɔ
1775031389.624147,1452,0,ɔ
1775031389.625947,1515,0,ɔ
1775031389.6289668,2149,0,ɔ
1775031389.631925,2455,0,ɔ
1775031389.6365812,2342,0,ɔ
1775031389.638562,1760,0,ɔ
1775031389.642763,1381,0,ɔ
1775031389.6451468,1962,0,ɔ
1775031389.646971,2241,0,ɔ
1775031389.649973,2486,0,ɔ
1775031389.652972,2183,0,ɔ
1775031389.658168,1537,0,ɔ
1775031389.659939,1456,0,ɔ
1775031389.662952,2010,0,ɔ
1775031389.666542,2429,0,ɔ
1775031389.668139,2354,0,ɔ
1775031389.6709802,1966,0,ɔ
1775031389.673975,1373,0,ɔ
1775031389.678963,1744,0,ɔ
1775031389.6809962,2267,0,ɔ
1775031389.6829708,2488,0,ɔ
1775031389.687309,2258,0,ɔ
1775031389.688947,1537,0,ɔ
1775031389.691947,1601,0,ɔ
1775031389.694942,1907,0,ɔ
1775031389.69807,2353,0,ɔ
1775031389.704052,2482,0,ɔ
1775031389.705407,2009,0,ɔ
1775031389.712427,1443,0,ɔ
1775031389.714029,1624,0,ɔ
1775031389.714102,2174,0,ɔ
1775031389.720086,2409,0,ɔ
1775031389.7206101,2291,0,ɔ
1775031389.7356842,1712,0,ɔ
1775031389.740544,1432,0,ɔ
1775031389.741958,1787,0,ɔ
1775031389.7419891,2389,0,ɔ
1775031389.742013,2491,0,ɔ
1775031389.742034,1980,0,ɔ
1775031389.742093,1286,0,ɔ
1775031389.744035,1733,0,ɔ
1775031389.746111,2187,0,ɔ
1775031389.7719839,2489,0,ɔ
1775031389.773738,2354,0,ɔ
1775031389.773914,1680,0,ɔ
1775031389.773982,1415,0,ɔ
1775031389.774066,1927,0,ɔ
1775031389.774135,2341,0,ɔ
1775031389.7742069,2535,0,ɔ
1775031389.7742589,2138,0,ɔ
1775031389.774312,1306,0,ɔ
1775031389.775934,1590,0,ɔ
1775031389.781378,2125,0,ɔ
1775031389.7823281,2479,0,ɔ
1775031389.7850199,2401,0,ɔ
1775031389.7898781,1781,0,ɔ
1775031389.791578,1412,0,ɔ
1775031389.794142,1792,0,ɔ
1775031389.796963,2264,0,ɔ
1775031389.7998111,2462,0,ɔ
1775031389.804409,2235,0,ɔ
1775031389.806352,1548,0,ɔ
1775031389.8130188,1517,0,ɔ
1775031389.8131871,2017,0,ɔ
1775031389.8148742,2406,0,ɔ
1775031389.817832,2398,0,ɔ
1775031389.820847,1886,0,ɔ
1775031389.8275352,1361,0,ɔ
1775031389.828023,1679,0,ɔ
1775031389.8298812,2187,0,ɔ
1775031389.832941,2491,0,ɔ
1775031389.83636,2305,0,ɔ
1775031389.839118,1557,0,ɔ
1775031389.8418958,1453,0,ɔ
1775031389.844851,2010,0,ɔ
1775031389.8495328,2376,0,ɔ
1775031389.851784,2435,0,ɔ
1775031389.858454,1948,0,ɔ
1775031389.85864,1416,0,ɔ
1775031389.860262,1696,0,ɔ
1775031389.862845,2170,0,ɔ
1775031389.865797,2464,0,ɔ
1775031389.8735082,2310,0,ɔ
1775031389.8746722,1616,0,ɔ
1775031389.876238,1466,0,ɔ
1775031389.881393,1967,0,ɔ
1775031389.881554,2312,0,ɔ
1775031389.8844109,2427,0,ɔ
1775031389.8870752,1968,0,ɔ
1775031389.889877,1427,0,ɔ
1775031389.8958972,1699,0,ɔ
1775031389.8966131,2153,0,ɔ
1775031389.899293,2410,0,ɔ
1775031389.901979,2374,0,ɔ
1775031389.906166,1782,0,ɔ
1775031389.907812,1439,0,ɔ
1775031389.9108632,1930,0,ɔ
1775031389.9138172,2257,0,ɔ
1775031389.9177501,2438,0,ɔ
1775031389.9206872,2081,0,ɔ
1775031389.9237728,1532,0,ɔ
1775031389.926122,1559,0,ɔ
1775031389.928892,2023,0,ɔ
1775031389.931798,2403,0,ɔ
1775031389.934861,2367,0,ɔ
1775031389.938578,1857,0,ɔ
1775031389.959589,1500,0,ɔ
1775031389.962529,1846,0,ɔ
1775031389.962946,2255,0,ɔ
1775031389.9635892,2477,0,ɔ
1775031389.96397,2239,0,ɔ
1775031389.968158,1566,0,ɔ
1775031389.968288,1504,0,ɔ
1775031389.968548,1970,0,ɔ
1775031389.9687612,2265,0,ɔ
1775031389.969949,2343,0,ɔ
1775031389.971252,1952,0,ɔ
1775031389.974373,1422,0,ɔ
1775031389.9841988,1688,0,ɔ
1775031389.990604,2167,0,ɔ
1775031389.990805,2407,0,ɔ
1775031389.990937,2366,0,ɔ
1775031389.990977,1617,0,ɔ
1775031389.992141,1590,0,ɔ
1775031389.994847,2016,0,ɔ
1775031389.997833,2339,0,ɔ
1775031390.005087,2387,0,ɔ
1775031390.006788,2020,0,ɔ
1775031390.007755,1403,0,ɔ
1775031390.01215,1616,0,ɔ
1775031390.013922,2234,0,ɔ
1775031390.0158021,2470,0,ɔ
1775031390.018813,2218,0,ɔ
1775031390.021684,1639,0,ɔ
1775031390.026311,1478,0,ɔ
1775031390.029294,1955,0,ɔ
1775031390.031934,2331,0,ɔ
1775031390.034742,2431,0,ɔ
1775031390.037271,1956,0,ɔ
1775031390.0398238,1500,0,ɔ
1775031390.042686,1806,0,ɔ
1775031390.048216,2125,0,ɔ
1775031390.049931,2306,0,ɔ
1775031390.051747,2473,0,ɔ
1775031390.056443,1847,0,ɔ
1775031390.058083,1494,0,ɔ
1775031390.060713,1840,0,ɔ
1775031390.0637262,2157,0,ɔ
1775031390.0691872,2437,0,ɔ
1775031390.070167,2232,0,ɔ
1775031390.0732448,1478,0,ɔ
1775031390.075788,1492,0,ɔ
1775031390.0796318,2077,0,ɔ
1775031390.082178,2386,0,ɔ
1775031390.084738,2302,0,ɔ
1775031390.087685,1783,0,ɔ
1775031390.0929222,1432,0,ɔ
1775031390.094798,1839,0,ɔ
1775031390.097281,2194,0,ɔ
1775031390.099726,2492,0,ɔ
1775031390.1027179,2317,0,ɔ
1775031390.105688,1593,0,ɔ
1775031390.10868,1442,0,ɔ
1775031390.112756,1966,0,ɔ
1775031390.116031,2478,0,ɔ
1775031390.11856,2463,0,ɔ
1775031390.121066,1901,0,ɔ
1775031390.123888,1272,0,ɔ
1775031390.12671,1691,0,ɔ
1775031390.129719,2188,0,ɔ
1775031390.134667,2506,0,ɔ
1775031390.136837,2284,0,ɔ
1775031390.1391912,1549,0,ɔ
1775031390.143556,1429,0,ɔ
1775031390.145065,2096,0,ɔ
1775031390.1476722,2286,0,ɔ
1775031390.1506848,2459,0,ɔ
1775031390.1537158,1990,0,ɔ
1775031390.158463,1482,0,ɔ
1775031390.160179,1719,0,ɔ
1775031390.1630132,2178,0,ɔ
1775031390.166956,2433,0,ɔ
1775031390.168704,2325,0,ɔ
1775031390.1717079,1672,0,ɔ
1775031390.174685,1379,0,ɔ
1775031390.1896708,1823,0,ɔ
1775031390.1917078,2209,0,ɔ
1775031390.191823,2484,0,ɔ
1775031390.191881,2157,0,ɔ
1775031390.19211,1546,0,ɔ
1775031390.192687,1585,0,ɔ
1775031390.19571,2060,0,ɔ
1775031390.198699,2390,0,ɔ
1775031390.214473,2388,0,ɔ
1775031390.21453,1807,0,ɔ
1775031390.214735,1437,0,ɔ
1775031390.2148669,1873,0,ɔ
1775031390.214889,2176,0,ɔ
1775031390.216736,2485,0,ɔ
1775031390.219774,2221,0,ɔ
1775031390.2228868,1571,0,ɔ
1775031390.231779,1487,0,ɔ
1775031390.231943,2073,0,ɔ
1775031390.239383,2373,0,ɔ
1775031390.239786,2368,0,ɔ
1775031390.240059,1864,0,ɔ
1775031390.241374,1427,0,ɔ
1775031390.244173,1787,0,ɔ
1775031390.24677,2200,0,ɔ
1775031390.2538629,2438,0,ɔ
1775031390.255102,2248,0,ɔ
1775031390.257045,1609,0,ɔ
1775031390.260082,1526,0,ɔ
1775031390.2631412,1924,0,ɔ
1775031390.264996,2371,0,ɔ
1775031390.2676601,2398,0,ɔ
1775031390.2729669,1930,0,ɔ
1775031390.275211,1490,0,ɔ
1775031390.277577,1663,0,ɔ
1775031390.279996,2130,0,ɔ
1775031390.282845,2520,0,ɔ
1775031390.2855911,2324,0,ɔ
1775031390.288574,1595,0,ɔ
1775031390.2915661,1445,0,ɔ
1775031390.296771,1960,0,ɔ
1775031390.298822,2262,0,ɔ
1775031390.301396,2451,0,ɔ
1775031390.3058891,2080,0,ɔ
1775031390.307578,1398,0,ɔ
1775031390.310247,1605,0,ɔ
1775031390.3128252,2123,0,ɔ
1775031390.315728,2552,0,ɔ
1775031390.323808,2372,0,ɔ
1775031390.325058,1834,0,ɔ
1775031390.327109,1479,0,ɔ
1775031390.329708,1776,0,ɔ
1775031390.3316119,2271,0,ɔ
1775031390.334341,2527,0,ɔ
1775031390.337044,2102,0,ɔ
1775031390.3398972,1509,0,ɔ
1775031390.353801,1586,0,ɔ
1775031390.355843,2035,0,ɔ
1775031390.355906,2377,0,ɔ
1775031390.355937,2369,0,ɔ
1775031390.355982,1805,0,ɔ
1775031390.357569,1431,0,ɔ
1775031390.360564,1864,0,ɔ
1775031390.363557,2262,0,ɔ
1775031390.3683221,2402,0,ɔ
1775031390.3700302,2172,0,ɔ
1775031390.3745239,1486,0,ɔ
1775031390.376947,1543,0,ɔ
1775031390.37872,2002,0,ɔ
1775031390.381584,2317,0,ɔ
1775031390.384547,2458,0,ɔ
1775031390.39099,1984,0,ɔ
1775031390.3916008,1357,0,ɔ
1775031390.3942132,1843,0,ɔ
1775031390.399196,2227,0,ɔ
1775031390.3995678,2485,0,ɔ
1775031390.402613,2207,0,ɔ
1775031390.4055622,1638,0,ɔ
1775031390.408563,1446,0,ɔ
1775031390.413645,1915,0,ɔ
1775031390.415227,2289,0,ɔ
1775031390.4192362,2472,0,ɔ
1775031390.4218082,1991,0,ɔ
1775031390.42355,1481,0,ɔ
1775031390.426559,1668,0,ɔ
1775031390.4294841,2133,0,ɔ
1775031390.434468,2408,0,ɔ
1775031390.436744,2379,0,ɔ
1775031390.438499,1748,0,ɔ
1775031390.443291,1480,0,ɔ
1775031390.44485,1802,0,ɔ
1775031390.447449,2341,0,ɔ
1775031390.451273,2409,0,ɔ
1775031390.457095,2134,0,ɔ
1775031390.457841,1465,0,ɔ
1775031390.459712,1658,0,ɔ
1775031390.4629152,2049,0,ɔ
1775031390.465517,2419,0,ɔ
1775031390.468459,2284,0,ɔ
1775031390.471436,1736,0,ɔ
1775031390.474462,1486,0,ɔ
1775031390.4781592,1879,0,ɔ
1775031390.481386,2259,0,ɔ
1775031390.484324,2485,0,ɔ
1775031390.4868019,2213,0,ɔ
1775031390.489464,1489,0,ɔ
1775031390.4924648,1532,0,ɔ
1775031390.495422,1948,0,ɔ
1775031390.50034,2300,0,ɔ
1775031390.519114,2425,0,ɔ
1775031390.51924,1989,0,ɔ
1775031390.519507,1537,0,ɔ
1775031390.524257,1753,0,ɔ
1775031390.535509,2178,0,ɔ
1775031390.536465,2495,0,ɔ
1775031390.5364969,2267,0,ɔ
1775031390.5365188,1639,0,ɔ
1775031390.5365388,1573,0,ɔ
1775031390.536559,1931,0,ɔ
1775031390.537405,2296,0,ɔ
1775031390.537568,2328,0,ɔ
1775031390.537639,1917,0,ɔ
1775031390.5404632,1438,0,ɔ
1775031390.549736,1707,0,ɔ
1775031390.551161,2178,0,ɔ
1775031390.55135,2490,0,ɔ
1775031390.5534039,2331,0,ɔ
1775031390.556013,1638,0,ɔ
1775031390.558999,1408,0,ɔ
1775031390.561506,1844,0,ɔ
1775031390.564438,2371,0,ɔ
1775031390.5703402,2460,0,ɔ
1775031390.571063,2003,0,ɔ
1775031390.5749319,1503,0,ɔ
1775031390.57933,1640,0,ɔ
1775031390.579545,2091,0,ɔ
1775031390.5825422,2472,0,ɔ
1775031390.585443,2452,0,ɔ
1775031390.588442,1696,0,ɔ
1775031390.5938911,1453,0,ɔ
1775031390.5950751,1931,0,ɔ
1775031390.597586,2286,0,ɔ
1775031390.602109,2433,0,ɔ
1775031390.603729,2044,0,ɔ
1775031390.606422,1522,0,ɔ
1775031390.609317,1646,0,ɔ
1775031390.6162639,2103,0,ɔ
1775031390.6173818,2434,0,ɔ
1775031390.61936,2327,0,ɔ
1775031390.6242912,1802,0,ɔ
1775031390.624576,1413,0,ɔ
1775031390.627303,1780,0,ɔ
1775031390.6310022,2169,0,ɔ
1775031390.633555,2485,0,ɔ
1775031390.6413891,2244,0,ɔ
1775031390.643824,1517,0,ɔ
1775031390.6449122,1531,0,ɔ
1775031390.6488938,2073,0,ɔ
1775031390.649197,2427,0,ɔ
1775031390.651318,2378,0,ɔ
1775031390.654343,1923,0,ɔ
1775031390.657321,1497,0,ɔ
1775031390.6639528,1799,0,ɔ
1775031390.665379,2185,0,ɔ
1775031390.667592,2472,0,ɔ
1775031390.672296,2181,0,ɔ
1775031390.6725938,1523,0,ɔ
1775031390.675402,1480,0,ɔ
1775031390.6783109,1951,0,ɔ
1775031390.681304,2366,0,ɔ
1775031390.686738,2405,0,ɔ
1775031390.688322,1945,0,ɔ
1775031390.691007,1402,0,ɔ
1775031390.695067,1728,0,ɔ
1775031390.6966531,2178,0,ɔ
1775031390.69938,2519,0,ɔ
1775031390.702315,2269,0,ɔ
1775031390.7101839,1647,0,ɔ
1775031390.71201,1555,0,ɔ
1775031390.712726,1920,0,ɔ
1775031390.7174652,2278,0,ɔ
1775031390.717621,2415,0,ɔ
1775031390.720522,2149,0,ɔ
1775031390.723362,1367,0,ɔ
1775031390.726315,1653,0,ɔ
1775031390.732235,2162,0,ɔ
1775031390.7333791,2410,0,ɔ
1775031390.736216,2272,0,ɔ
1775031390.740442,1626,0,ɔ
1775031390.7421598,1488,0,ɔ
1775031390.744488,1968,0,ɔ
1775031390.747336,2300,0,ɔ
1775031390.754637,2527,0,ɔ
1775031390.7561228,2143,0,ɔ
1775031390.7580009,1510,0,ɔ
1775031390.760554,1629,0,ɔ
1775031390.763175,2088,0,ɔ
1775031390.765621,2360,0,ɔ
1775031390.768321,2283,0,ɔ
1775031390.771339,1773,0,ɔ
1775031390.777302,1476,0,ɔ
1775031390.7776608,1776,0,ɔ
1775031390.7805839,2245,0,ɔ
1775031390.785264,2394,0,ɔ
1775031390.786834,2189,0,ɔ
1775031390.789383,1552,0,ɔ
1775031390.7923572,1563,0,ɔ
1775031390.7981539,2079,0,ɔ
1775031390.7991319,2417,0,ɔ
1775031390.802112,2416,0,ɔ
1775031390.80478,1914,0,ɔ
1775031390.807334,1427,0,ɔ
1775031390.810218,1660,0,ɔ
1775031390.813856,2198,0,ɔ
1775031390.8165781,2597,0,ɔ
1775031390.8202481,2183,0,ɔ
1775031390.823273,1570,0,ɔ
1775031390.826348,1579,0,ɔ
1775031390.828745,1816,0,ɔ
1775031390.831415,2385,0,ɔ
1775031390.834201,2433,0,ɔ
1775031390.837177,2028,0,ɔ
1775031390.841696,1473,0,ɔ
1775031390.8432908,1545,0,ɔ
1775031390.847188,2123,0,ɔ
1775031390.8494148,2464,0,ɔ
1775031390.8522172,2339,0,ɔ
1775031390.855186,1684,0,ɔ
1775031390.858212,1658,0,ɔ
1775031390.862648,1803,0,ɔ
1775031390.865207,2323,0,ɔ
1775031390.868233,2592,0,ɔ
1775031390.870463,1977,0,ɔ
1775031390.8732102,1453,0,ɔ
1775031390.876214,1574,0,ɔ
1775031390.8792052,2063,0,ɔ
1775031390.884181,2407,0,ɔ
1775031390.8868532,2373,0,ɔ
1775031390.889668,1764,0,ɔ
1775031390.891886,1408,0,ɔ
1775031390.894526,1862,0,ɔ
1775031390.8971891,2211,0,ɔ
1775031390.900226,2520,0,ɔ
1775031390.905032,2221,0,ɔ
1775031390.907377,1482,0,ɔ
1775031390.909442,1548,0,ɔ
1775031390.912649,1876,0,ɔ
1775031390.915327,2544,0,ɔ
1775031390.918218,2415,0,ɔ
1775031390.921172,1928,0,ɔ
1775031390.926004,1529,0,ɔ
1775031390.927796,1684,0,ɔ
1775031390.9320152,2014,0,ɔ
1775031390.934287,2656,0,ɔ
1775031390.9362009,2297,0,ɔ
1775031390.9392068,1442,0,ɔ
1775031390.9421692,1688,0,ɔ
1775031390.9468338,2076,0,ɔ
1775031390.9487832,2315,0,ɔ
1775031390.951659,2325,0,ɔ
1775031390.955101,2037,0,ɔ
1775031390.9572082,1410,0,ɔ
1775031390.9601998,1477,0,ɔ
1775031390.963226,2158,0,ɔ
1775031390.9677582,2689,0,ɔ
1775031390.970025,2307,0,ɔ
1775031390.973002,1597,0,ɔ
1775031390.976439,1266,0,ɔ
1775031390.978206,1822,0,ɔ
1775031390.981211,2734,0,ɔ
1775031390.984791,2589,0,ɔ
1775031390.98911,1862,0,ɔ
1775031390.9912572,1141,0,ɔ
1775031390.993272,1702,0,ɔ
1775031390.997631,2153,0,ɔ
1775031390.999184,2608,0,ɔ
1775031391.002195,2379,0,ɔ
1775031391.0052018,1535,0,ɔ
1775031391.010734,1417,0,ɔ
1775031391.011459,1888,0,ɔ
1775031391.0146,2286,0,ɔ
1775031391.019427,2458,0,ɔ
1775031391.020965,1836,0,ɔ
1775031391.023521,1383,0,ɔ
1775031391.026088,1699,0,ɔ
1775031391.031757,2235,0,ɔ
1775031391.0321689,2529,0,ɔ
1775031391.0352168,2319,0,ɔ
1775031391.039822,1645,0,ɔ
1775031391.0414531,1502,0,ɔ
1775031391.044093,2038,0,ɔ
1775031391.04708,2213,0,ɔ
1775031391.052572,2342,0,ɔ
1775031391.053581,2110,0,ɔ
1775031391.056685,1460,0,ɔ
1775031391.061147,1583,0,ɔ
1775031391.062762,2105,0,ɔ
1775031391.065349,2451,0,ɔ
1775031391.0680661,2379,0,ɔ
1775031391.071199,2001,0,ɔ
1775031391.0748029,1364,0,ɔ
1775031391.077775,1644,0,ɔ
1775031391.08255,2176,0,ɔ
1775031391.0839272,2664,0,ɔ
1775031391.086323,2239,0,ɔ
1775031391.089074,1475,0,ɔ
1775031391.095695,1540,0,ɔ
1775031391.0966542,2060,0,ɔ
1775031391.098861,2461,0,ɔ
1775031391.1038961,2387,0,ɔ
1775031391.104065,1867,0,ɔ
1775031391.107094,1322,0,ɔ
1775031391.110052,1657,0,ɔ
1775031391.113141,2129,0,ɔ
1775031391.1163719,2236,0,ɔ
1775031391.119623,2434,0,ɔ
1775031391.1246688,1434,0,ɔ
1775031391.125056,1516,0,ɔ
1775031391.128076,2022,0,ɔ
1775031391.131048,2361,0,ɔ
1775031391.13793,2466,0,ɔ
1775031391.1388311,1993,0,ɔ
1775031391.141383,1600,0,ɔ
1775031391.146554,1609,0,ɔ
1775031391.146816,2103,0,ɔ
1775031391.149363,2358,0,ɔ
1775031391.152052,2269,0,ɔ
1775031391.15504,1752,0,ɔ
1775031391.1595168,1333,0,ɔ
1775031391.161552,1908,0,ɔ
1775031391.165657,2359,0,ɔ
1775031391.168253,2396,0,ɔ
1775031391.1700659,2092,0,ɔ
1775031391.173075,1670,0,ɔ
1775031391.1760771,1615,0,ɔ
1775031391.182969,1988,0,ɔ
1775031391.1833322,2366,0,ɔ
1775031391.185799,2520,0,ɔ
1775031391.190517,1741,0,ɔ
1775031391.1922,1313,0,ɔ
1775031391.194054,1799,0,ɔ
1775031391.19704,2234,0,ɔ
1775031391.203251,2499,0,ɔ
1775031391.2036061,2224,0,ɔ
1775031391.207229,1501,0,ɔ
1775031391.2115872,1655,0,ɔ
1775031391.212935,2052,0,ɔ
1775031391.215042,2354,0,ɔ
1775031391.2180312,2321,0,ɔ
1775031391.22113,1908,0,ɔ
1775031391.225344,1364,0,ɔ
1775031391.2281091,1776,0,ɔ
1775031391.231116,2164,0,ɔ
1775031391.233398,2461,0,ɔ
1775031391.23615,2340,0,ɔ
1775031391.238954,1556,0,ɔ
1775031391.242743,1448,0,ɔ
1775031391.2461782,2009,0,ɔ
1775031391.248501,2289,0,ɔ
1775031391.252759,2351,0,ɔ
1775031391.2550871,2071,0,ɔ
1775031391.256959,1464,0,ɔ
1775031391.259917,1807,0,ɔ
1775031391.2629492,2110,0,ɔ
1775031391.267539,2389,0,ɔ
1775031391.269532,2226,0,ɔ
1775031391.27217,1836,0,ɔ
1775031391.275635,1394,0,ɔ
1775031391.2783191,1936,0,ɔ
1775031391.2809238,2289,0,ɔ
1775031391.283961,2224,0,ɔ
1775031391.288814,2100,0,ɔ
1775031391.291211,1652,0,ɔ
1775031391.2929971,1609,0,ɔ
1775031391.296224,2206,0,ɔ
1775031391.298965,2343,0,ɔ
1775031391.301933,2447,0,ɔ
1775031391.304928,1720,0,ɔ
1775031391.308974,1450,0,ɔ
1775031391.3109272,1838,0,ɔ
1775031391.3149781,2247,0,ɔ
1775031391.317259,2442,0,ɔ
1775031391.319954,2138,0,ɔ
1775031391.322918,1427,0,ɔ
1775031391.3259132,1661,0,ɔ
1775031391.330672,2005,0,ɔ
1775031391.332635,2386,0,ɔ
1775031391.336617,2420,0,ɔ
1775031391.3389618,1835,0,ɔ
1775031391.34095,1305,0,ɔ
1775031391.343916,1741,0,ɔ
1775031391.3469498,2331,0,ɔ
1775031391.352056,2671,0,ɔ
1775031391.3539588,2151,0,ɔ
1775031391.358024,1526,0,ɔ
1775031391.360353,1426,0,ɔ
1775031391.3619561,2063,0,ɔ
1775031391.3649468,2353,0,ɔ
1775031391.3685498,2415,0,ɔ
1775031391.373939,1890,0,ɔ
1775031391.374291,1447,0,ɔ
1775031391.377492,1688,0,ɔ
1775031391.3823402,2029,0,ɔ
1775031391.384108,2434,0,ɔ
1775031391.385952,2524,0,ɔ
1775031391.38892,1624,0,ɔ
1775031391.3919842,1493,0,ɔ
1775031391.395766,2042,0,ɔ
1775031391.398792,2267,0,ɔ
1775031391.404286,2343,0,ɔ
1775031391.404484,1957,0,ɔ
1775031391.407188,1559,0,ɔ
1775031391.409951,1596,0,ɔ
1775031391.4129448,2044,0,ɔ
1775031391.4174788,2433,0,ɔ
1775031391.419429,2224,0,ɔ
1775031391.4225569,1695,0,ɔ
1775031391.425854,1457,0,ɔ
1775031391.428569,1997,0,ɔ
1775031391.43112,2374,0,ɔ
1775031391.4339032,2246,0,ɔ
1775031391.438432,2122,0,ɔ
1775031391.440149,1599,0,ɔ
1775031391.443103,1506,0,ɔ
1775031391.44635,2248,0,ɔ
1775031391.44904,2283,0,ɔ
1775031391.451909,2412,0,ɔ
1775031391.4549398,1827,0,ɔ
1775031391.459299,1447,0,ɔ
1775031391.4609852,1710,0,ɔ
1775031391.465098,2170,0,ɔ
1775031391.467316,2533,0,ɔ
1775031391.4700632,2045,0,ɔ
1775031391.472826,1603,0,ɔ
1775031391.475827,1577,0,ɔ
1775031391.4799628,2103,0,ɔ
1775031391.48209,2237,0,ɔ
1775031391.484937,2688,0,ɔ
1775031391.488405,1948,0,ɔ
1775031391.491093,1533,0,ɔ
1775031391.493901,1719,0,ɔ
1775031391.496831,2185,0,ɔ
1775031391.501517,2366,0,ɔ
1775031391.504162,2077,0,ɔ
1775031391.505918,1602,0,ɔ
1775031391.510968,1468,0,ɔ
1775031391.512823,2167,0,ɔ
1775031391.515383,2400,0,ɔ
1775031391.5178711,2288,0,ɔ
1775031391.520788,2044,0,ɔ
1775031391.525857,1389,0,ɔ
1775031391.528321,1772,0,ɔ
1775031391.535351,2198,0,ɔ
1775031391.5356202,2336,0,ɔ
1775031391.535807,2490,0,ɔ
1775031391.538922,1480,0,ɔ
1775031391.541874,1414,0,ɔ
1775031391.5448508,1937,0,ɔ
1775031391.5505438,2341,0,ɔ
1775031391.552017,2455,0,ɔ
1775031391.554653,2017,0,ɔ
1775031391.559458,1535,0,ɔ
1775031391.5610912,1621,0,ɔ
1775031391.562825,2018,0,ɔ
1775031391.565792,2357,0,ɔ
1775031391.56879,2341,0,ɔ
1775031391.572444,1897,0,ɔ
1775031391.576114,1458,0,ɔ
1775031391.5790489,1844,0,ɔ
1775031391.581432,2230,0,ɔ
1775031391.584335,2294,0,ɔ
1775031391.5873432,1996,0,ɔ
1775031391.589926,1576,0,ɔ
1775031391.5973492,1559,0,ɔ
1775031391.597692,2104,0,ɔ
1775031391.604874,2433,0,ɔ
1775031391.6050491,2365,0,ɔ
1775031391.605322,1815,0,ɔ
1775031391.60806,1463,0,ɔ
1775031391.610802,1903,0,ɔ
1775031391.6138098,2238,0,ɔ
1775031391.621263,2416,0,ɔ
1775031391.622522,2050,0,ɔ
1775031391.624318,1572,0,ɔ
1775031391.628552,1709,0,ɔ
1775031391.628999,2042,0,ɔ
1775031391.631851,2299,0,ɔ
1775031391.63486,2364,0,ɔ
1775031391.637804,1938,0,ɔ
1775031391.64509,1495,0,ɔ
1775031391.6453261,1711,0,ɔ
1775031391.647213,2184,0,ɔ
1775031391.652173,2324,0,ɔ
1775031391.654148,2403,0,ɔ
1775031391.655808,1683,0,ɔ
1775031391.658807,1532,0,ɔ
1775031391.66179,1954,0,ɔ
1775031391.666603,2320,0,ɔ
1775031391.669857,2360,0,ɔ
1775031391.672918,2078,0,ɔ
1775031391.677042,1526,0,ɔ
1775031391.677102,1671,0,ɔ
1775031391.679811,2120,0,ɔ
1775031391.682802,2275,0,ɔ
1775031391.6906009,2297,0,ɔ
1775031391.6917639,1758,0,ɔ
1775031391.691987,1559,0,ɔ
1775031391.694863,1943,0,ɔ
1775031391.6985831,2263,0,ɔ
1775031391.701362,2293,0,ɔ
1775031391.703917,2114,0,ɔ
1775031391.706666,1612,0,ɔ
1775031391.7126741,1650,0,ɔ
1775031391.714663,2006,0,ɔ
1775031391.716245,2324,0,ɔ
1775031391.71892,2358,0,ɔ
1775031391.7228532,1894,0,ɔ
1775031391.724685,1535,0,ɔ
1775031391.7277272,1810,0,ɔ
1775031391.731474,2132,0,ɔ
1775031391.734625,2375,0,ɔ
1775031391.738668,2177,0,ɔ
1775031391.740959,1628,0,ɔ
1775031391.7433631,1616,0,ɔ
1775031391.746079,2023,0,ɔ
1775031391.7486532,2299,0,ɔ
1775031391.7516649,2304,0,ɔ
1775031391.756573,1930,0,ɔ
1775031391.758338,1592,0,ɔ
1775031391.761048,1799,0,ɔ
1775031391.764961,2163,0,ɔ
1775031391.766693,2383,0,ɔ
1775031391.769672,2161,0,ɔ
1775031391.772696,1617,0,ɔ
1775031391.77755,1652,0,ɔ
1775031391.77987,1934,0,ɔ
1775031391.781974,2277,0,ɔ
1775031391.7863948,2317,0,ɔ
1775031391.787997,2022,0,ɔ
1775031391.7906969,1546,0,ɔ
1775031391.793668,1750,0,ɔ
1775031391.799755,2126,0,ɔ
1775031391.800416,2300,0,ɔ
1775031391.803452,2329,0,ɔ
1775031391.8062441,1741,0,ɔ
1775031391.808693,1567,0,ɔ
1775031391.811656,1899,0,ɔ
1775031391.814688,2271,0,ɔ
1775031391.8176472,2297,0,ɔ
1775031391.82351,2073,0,ɔ
1775031391.82398,1578,0,ɔ
1775031391.827182,1636,0,ɔ
1775031391.8306959,2132,0,ɔ
1775031391.832684,2250,0,ɔ
1775031391.835659,2436,0,ɔ
1775031391.838659,1846,0,ɔ
1775031391.843849,1533,0,ɔ
1775031391.845887,1758,0,ɔ
1775031391.847785,2297,0,ɔ
1775031391.85216,2365,0,ɔ
1775031391.853793,2112,0,ɔ
1775031391.856694,1514,0,ɔ
1775031391.859661,1698,0,ɔ
1775031391.865846,2068,0,ɔ
1775031391.867394,2308,0,ɔ
1775031391.869311,2343,0,ɔ
1775031391.8739321,1866,0,ɔ
1775031391.875652,1551,0,ɔ
1775031391.878316,1861,0,ɔ
1775031391.880944,2223,0,ɔ
1775031391.883685,2307,0,ɔ
1775031391.8900092,2167,0,ɔ
1775031391.891951,1731,0,ɔ
1775031391.8948228,1641,0,ɔ
1775031391.897196,1987,0,ɔ
1775031391.898848,2319,0,ɔ
1775031391.901574,2319,0,ɔ
1775031391.904556,1980,0,ɔ
1775031391.912205,1504,0,ɔ
1775031391.9133599,1635,0,ɔ
1775031391.914746,2144,0,ɔ
1775031391.916586,2388,0,ɔ
1775031391.920865,2270,0,ɔ
1775031391.92256,1514,0,ɔ
1775031391.9255428,1633,0,ɔ
1775031391.92855,2051,0,ɔ
1775031391.936964,2303,0,ɔ
1775031391.9372811,2277,0,ɔ
1775031391.939532,1991,0,ɔ
1775031391.944046,1596,0,ɔ
1775031391.944387,1740,0,ɔ
1775031391.946568,2114,0,ɔ
1775031391.949562,2453,0,ɔ
1775031391.952559,2230,0,ɔ
1775031391.95831,1779,0,ɔ
1775031391.960282,1439,0,ɔ
1775031391.962373,1916,0,ɔ
1775031391.965011,2313,0,ɔ
1775031391.967624,2359,0,ɔ
1775031391.970551,2002,0,ɔ
1775031391.973571,1503,0,ɔ
1775031391.976553,1716,0,ɔ
1775031391.983524,2096,0,ɔ
1775031391.98496,2343,0,ɔ
1775031391.986371,2291,0,ɔ
1775031391.990783,1804,0,ɔ
1775031391.992432,1622,0,ɔ
1775031391.995085,1894,0,ɔ
1775031391.9977531,2200,0,ɔ
1775031392.005986,2277,0,ɔ
1775031392.006187,2080,0,ɔ
1775031392.008144,1683,0,ɔ
1775031392.012905,1667,0,ɔ
1775031392.0130591,2044,0,ɔ
1775031392.01599,2322,0,ɔ
1775031392.0186749,2317,0,ɔ
1775031392.021549,1880,0,ɔ
1775031392.028651,1534,0,ɔ
1775031392.030241,1744,0,ɔ
1775031392.0306811,2172,0,ɔ
1775031392.035815,2397,0,ɔ
1775031392.037472,2222,0,ɔ
1775031392.040134,1662,0,ɔ
1775031392.042757,1576,0,ɔ
1775031392.045558,2015,0,ɔ
1775031392.050316,2262,0,ɔ
1775031392.0517492,2352,0,ɔ
1775031392.054711,1978,0,ɔ
1775031392.057951,1562,0,ɔ
1775031392.060719,1755,0,ɔ
1775031392.063547,2132,0,ɔ
1775031392.066567,2352,0,ɔ
1775031392.070661,2252,0,ɔ
1775031392.0726242,1682,0,ɔ
1775031392.0756311,1587,0,ɔ
1775031392.078829,1997,0,ɔ
1775031392.0815659,2295,0,ɔ
1775031392.084564,2304,0,ɔ
1775031392.088177,2029,0,ɔ
1775031392.0919611,1537,0,ɔ
1775031392.093806,1726,0,ɔ
1775031392.096809,2130,0,ɔ
1775031392.099911,2386,0,ɔ
1775031392.102619,2318,0,ɔ
1775031392.105537,1734,0,ɔ
1775031392.1085281,1530,0,ɔ
1775031392.112867,1916,0,ɔ
1775031392.114892,2341,0,ɔ
1775031392.117818,2217,0,ɔ
1775031392.121021,1990,0,ɔ
1775031392.123751,1576,0,ɔ
1775031392.126566,1721,0,ɔ
1775031392.1295638,2126,0,ɔ
1775031392.133198,2307,0,ɔ
1775031392.136518,2238,0,ɔ
1775031392.1414368,1838,0,ɔ
1775031392.14163,1616,0,ɔ
1775031392.14456,1886,0,ɔ
1775031392.147546,2208,0,ɔ
1775031392.15057,2392,0,ɔ
1775031392.1550632,2094,0,ɔ
1775031392.1573892,1520,0,ɔ
1775031392.1614988,1604,0,ɔ
1775031392.163688,2045,0,ɔ
1775031392.165548,2340,0,ɔ
1775031392.1685498,2365,0,ɔ
1775031392.171563,1793,0,ɔ
1775031392.1768699,1486,0,ɔ
1775031392.17856,1790,0,ɔ
1775031392.180782,2133,0,ɔ
1775031392.1850188,2483,0,ɔ
1775031392.186506,2159,0,ɔ
1775031392.18944,1610,0,ɔ
1775031392.1924212,1646,0,ɔ
1775031392.1984751,1980,0,ɔ
1775031392.198886,2281,0,ɔ
1775031392.201663,2382,0,ɔ
1775031392.2064462,1982,0,ɔ
1775031392.207941,1513,0,ɔ
1775031392.210502,1739,0,ɔ
1775031392.214071,2191,0,ɔ
1775031392.219827,2422,0,ɔ
1775031392.219917,2235,0,ɔ
1775031392.223243,1717,0,ɔ
1775031392.22778,1579,0,ɔ
1775031392.2294059,1841,0,ɔ
1775031392.2319539,2323,0,ɔ
1775031392.234508,2387,0,ɔ
1775031392.237462,1951,0,ɔ
1775031392.2415411,1483,0,ɔ
1775031392.243928,1639,0,ɔ
1775031392.24788,2074,0,ɔ
1775031392.2501702,2417,0,ɔ
1775031392.252838,2352,0,ɔ
1775031392.255413,1787,0,ɔ
1775031392.2584078,1559,0,ɔ
1775031392.2667782,1936,0,ɔ
1775031392.2673368,2248,0,ɔ
1775031392.267453,2290,0,ɔ
1775031392.270436,2036,0,ɔ
1775031392.274357,1548,0,ɔ
1775031392.276408,1648,0,ɔ
1775031392.27941,1923,0,ɔ
1775031392.28241,2427,0,ɔ
1775031392.287827,2357,0,ɔ
1775031392.2888699,1751,0,ɔ
1775031392.292195,1594,0,ɔ
1775031392.2964768,1766,0,ɔ
1775031392.298075,2364,0,ɔ
1775031392.3006258,2486,0,ɔ
1775031392.303456,2110,0,ɔ
1775031392.30641,1489,0,ɔ
1775031392.3108711,1585,0,ɔ
1775031392.312908,2002,0,ɔ
1775031392.315653,2459,0,ɔ
1775031392.318979,2358,0,ɔ
1775031392.3216782,1814,0,ɔ
1775031392.324437,1446,0,ɔ
1775031392.327445,1809,0,ɔ
1775031392.331394,2250,0,ɔ
1775031392.33443,2443,0,ɔ
1775031392.3364851,2192,0,ɔ
1775031392.339591,1617,0,ɔ
1775031392.342447,1690,0,ɔ
1775031392.345402,2032,0,ɔ
1775031392.3484359,2229,0,ɔ
1775031392.35334,2344,0,ɔ
1775031392.3555598,1825,0,ɔ
1775031392.357514,1407,0,ɔ
1775031392.361523,1839,0,ɔ
1775031392.363435,2249,0,ɔ
1775031392.3664472,2384,0,ɔ
1775031392.369426,2122,0,ɔ
1775031392.374431,1663,0,ɔ
1775031392.376242,1683,0,ɔ
1775031392.380237,1980,0,ɔ
1775031392.382547,2290,0,ɔ
1775031392.3843892,2317,0,ɔ
1775031392.3874502,1868,0,ɔ
1775031392.390442,1471,0,ɔ
1775031392.396251,1729,0,ɔ
1775031392.396887,2232,0,ɔ
1775031392.3996449,2404,0,ɔ
1775031392.404199,2264,0,ɔ
1775031392.4057448,1715,0,ɔ
1775031392.408443,1608,0,ɔ
1775031392.4114199,1889,0,ɔ
1775031392.417634,2175,0,ɔ
1775031392.419014,2316,0,ɔ
1775031392.420796,2104,0,ɔ
1775031392.425368,1484,0,ɔ
1775031392.426861,1729,0,ɔ
1775031392.42944,2156,0,ɔ
1775031392.432399,2368,0,ɔ
1775031392.438209,2305,0,ɔ
1775031392.438881,1874,0,ɔ
1775031392.4422169,1547,0,ɔ
1775031392.444596,1879,0,ɔ
1775031392.4482,2169,0,ɔ
1775031392.4507499,2308,0,ɔ
1775031392.45344,2122,0,ɔ
1775031392.4599402,1630,0,ɔ
1775031392.460601,1596,0,ɔ
1775031392.46308,2007,0,ɔ
1775031392.467716,2447,0,ɔ
1775031392.4692988,2379,0,ɔ
1775031392.4718552,1744,0,ɔ
1775031392.474397,1446,0,ɔ
1775031392.477313,1783,0,ɔ
1775031392.4809458,2255,0,ɔ
1775031392.484621,2330,0,ɔ
1775031392.4873888,2159,0,ɔ
1775031392.48958,1608,0,ɔ
1775031392.492328,1632,0,ɔ
1775031392.495309,1977,0,ɔ
1775031392.4982772,2337,0,ɔ
1775031392.501939,2419,0,ɔ
1775031392.505412,1919,0,ɔ
1775031392.5083861,1476,0,ɔ
1775031392.510696,1750,0,ɔ
1775031392.513373,2247,0,ɔ
1775031392.516276,2432,0,ɔ
1775031392.519281,2225,0,ɔ
1775031392.5231261,1588,0,ɔ
1775031392.5272949,1566,0,ɔ
1775031392.5295758,1977,0,ɔ
1775031392.5316842,2386,0,ɔ
1775031392.534511,2418,0,ɔ
1775031392.537278,1891,0,ɔ
1775031392.540309,1431,0,ɔ
1775031392.5455601,1631,0,ɔ
1775031392.546992,2148,0,ɔ
1775031392.550984,2400,0,ɔ
1775031392.553057,2309,0,ɔ
1775031392.5557911,1773,0,ɔ
1775031392.558316,1591,0,ɔ
1775031392.561308,1835,0,ɔ
1775031392.565633,2196,0,ɔ
1775031392.5676758,2261,0,ɔ
1775031392.570509,2196,0,ɔ
1775031392.573996,1690,0,ɔ
1775031392.576638,1717,0,ɔ
1775031392.579328,1973,0,ɔ
1775031392.582311,2337,0,ɔ
1775031392.586894,2369,0,ɔ
1775031392.588585,1900,0,ɔ
1775031392.59274,1561,0,ɔ
1775031392.594927,1851,0,ɔ
1775031392.597676,2099,0,ɔ
1775031392.600278,2422,0,ɔ
1775031392.603303,2105,0,ɔ
1775031392.6078641,1617,0,ɔ
1775031392.609788,1714,0,ɔ
1775031392.614043,1868,0,ɔ
1775031392.616194,2333,0,ɔ
1775031392.619015,2458,0,ɔ
1775031392.6215649,1962,0,ɔ
1775031392.624303,1491,0,ɔ
1775031392.628896,1716,0,ɔ
1775031392.630846,2144,0,ɔ
1775031392.6369789,2421,0,ɔ
1775031392.63712,2151,0,ɔ
1775031392.6398,1593,0,ɔ
1775031392.64236,1716,0,ɔ
1775031392.6453068,2002,0,ɔ
1775031392.6503732,2242,0,ɔ
1775031392.651962,2292,0,ɔ
1775031392.658175,1949,0,ɔ
1775031392.6584342,1536,0,ɔ
1775031392.66031,1831,0,ɔ
1775031392.663323,2147,0,ɔ
1775031392.666305,2400,0,ɔ
1775031392.671753,2235,0,ɔ
1775031392.673066,1669,0,ɔ
1775031392.675791,1535,0,ɔ
1775031392.679044,1992,0,ɔ
1775031392.68153,2281,0,ɔ
1775031392.684308,2361,0,ɔ
1775031392.6873229,1962,0,ɔ
1775031392.691674,1511,0,ɔ
1775031392.693658,1647,0,ɔ
1775031392.696694,2090,0,ɔ
1775031392.6996942,2446,0,ɔ
1775031392.702419,2344,0,ɔ
1775031392.705271,1717,0,ɔ
1775031392.708273,1497,0,ɔ
1775031392.711781,1910,0,ɔ
1775031392.71514,2274,0,ɔ
1775031392.7197251,2397,0,ɔ
1775031392.7211242,2084,0,ɔ
1775031392.723527,1488,0,ɔ
1775031392.7262762,1629,0,ɔ
1775031392.72929,2084,0,ɔ
1775031392.732969,2403,0,ɔ
1775031392.736732,2338,0,ɔ
1775031392.739392,1818,0,ɔ
1775031392.7415192,1538,0,ɔ
1775031392.744301,1816,0,ɔ
1775031392.747294,2194,0,ɔ
1775031392.750295,2469,0,ɔ
1775031392.7567842,2146,0,ɔ
1775031392.757758,1559,0,ɔ
1775031392.760502,1637,0,ɔ
1775031392.7633212,2024,0,ɔ
1775031392.765562,2422,0,ɔ
1775031392.768415,2333,0,ɔ
1775031392.7713048,1879,0,ɔ
1775031392.7742689,1465,0,ɔ
1775031392.78037,1768,0,ɔ
1775031392.781504,2051,0,ɔ
1775031392.783565,2410,0,ɔ
1775031392.7878258,2345,0,ɔ
1775031392.78939,1711,0,ɔ
1775031392.792309,1592,0,ɔ
1775031392.795307,1895,0,ɔ
1775031392.801269,2315,0,ɔ
1775031392.8016179,2408,0,ɔ
1775031392.8045619,1888,0,ɔ
1775031392.809411,1508,0,ɔ
1775031392.8109162,1709,0,ɔ
1775031392.813322,2030,0,ɔ
1775031392.816842,2419,0,ɔ
1775031392.8236532,2336,0,ɔ
1775031392.8237681,1735,0,ɔ
1775031392.825836,1615,0,ɔ
1775031392.8291461,1895,0,ɔ
1775031392.832413,2259,0,ɔ
1775031392.8342268,2420,0,ɔ
1775031392.837194,2024,0,ɔ
1775031392.8402078,1504,0,ɔ
1775031392.844262,1651,0,ɔ
1775031392.846771,2032,0,ɔ
1775031392.8503418,2371,0,ɔ
1775031392.852397,2362,0,ɔ
1775031392.855813,1769,0,ɔ
1775031392.858426,1522,0,ɔ
1775031392.861183,1871,0,ɔ
1775031392.864147,2219,0,ɔ
1775031392.8691819,2330,0,ɔ
1775031392.871477,2044,0,ɔ
1775031392.874232,1628,0,ɔ
1775031392.877995,1771,0,ɔ
1775031392.879603,2030,0,ɔ
1775031392.882177,2310,0,ɔ
1775031392.8851311,2383,0,ɔ
1775031392.890529,1864,0,ɔ
1775031392.891233,1509,0,ɔ
1775031392.894856,1812,0,ɔ
1775031392.899385,2209,0,ɔ
1775031392.901002,2376,0,ɔ
1775031392.9035609,2088,0,ɔ
1775031392.9061918,1579,0,ɔ
1775031392.9092128,1681,0,ɔ
1775031392.9130108,2047,0,ɔ
1775031392.9177332,2361,0,ɔ
1775031392.9217951,2349,0,ɔ
1775031392.9222,1929,0,ɔ
1775031392.924172,1504,0,ɔ
1775031392.9271512,1727,0,ɔ
1775031392.9302862,2161,0,ɔ
1775031392.933155,2403,0,ɔ
1775031392.940157,2244,0,ɔ
1775031392.94052,1664,0,ɔ
1775031392.942188,1523,0,ɔ
1775031392.947277,1963,0,ɔ
1775031392.94911,2337,0,ɔ
1775031392.9517581,2393,0,ɔ
1775031392.954404,1981,0,ɔ
1775031392.960535,1494,0,ɔ
1775031392.960968,1654,0,ɔ
1775031392.9647481,2151,0,ɔ
1775031392.969698,2446,0,ɔ
1775031392.969903,2231,0,ɔ
1775031392.972167,1600,0,ɔ
1775031392.9751732,1599,0,ɔ
1775031392.978173,1995,0,ɔ
1775031392.984187,2298,0,ɔ
1775031392.9865541,2348,0,ɔ
1775031392.988599,1929,0,ɔ
1775031392.9913101,1502,0,ɔ
1775031392.993917,1692,0,ɔ
1775031392.9968462,2119,0,ɔ
1775031392.99932,2407,0,ɔ
1775031393.00217,2358,0,ɔ
1775031393.007822,1827,0,ɔ
1775031393.010062,1544,0,ɔ
1775031393.0121012,1851,0,ɔ
1775031393.016784,2217,0,ɔ
1775031393.0182679,2379,0,ɔ
1775031393.020177,2147,0,ɔ
1775031393.023145,1473,0,ɔ
1775031393.0261729,1584,0,ɔ
1775031393.0307,2196,0,ɔ
1775031393.032842,2348,0,ɔ
1775031393.03692,2255,0,ɔ
1775031393.039146,1894,0,ɔ
1775031393.041146,1553,0,ɔ
1775031393.044179,1790,0,ɔ
1775031393.047174,2241,0,ɔ
1775031393.053578,2410,0,ɔ
1775031393.0541718,2206,0,ɔ
1775031393.0569541,1535,0,ɔ
1775031393.06148,1557,0,ɔ
1775031393.063275,2153,0,ɔ
1775031393.065845,2258,0,ɔ
1775031393.068398,2392,0,ɔ
1775031393.071279,2031,0,ɔ
1775031393.074903,1530,0,ɔ
1775031393.0782442,1628,0,ɔ
1775031393.0810392,2022,0,ɔ
1775031393.083235,2427,0,ɔ
1775031393.086154,2338,0,ɔ
1775031393.0891662,1543,0,ɔ
1775031393.092269,1474,0,ɔ
1775031393.101572,2071,0,ɔ
1775031393.101717,2442,0,ɔ
1775031393.102089,2369,0,ɔ
1775031393.106389,1953,0,ɔ
1775031393.1082098,1579,0,ɔ
1775031393.1101792,1780,0,ɔ
1775031393.113068,2043,0,ɔ
1775031393.11605,2276,0,ɔ
1775031393.1203258,2370,0,ɔ
1775031393.122504,1682,0,ɔ
1775031393.125153,1611,0,ɔ
1775031393.129208,1913,0,ɔ
1775031393.131018,2241,0,ɔ
1775031393.1340039,2416,0,ɔ
1775031393.137016,2035,0,ɔ
1775031393.14183,1522,0,ɔ
1775031393.144285,1574,0,ɔ
1775031393.1460748,2141,0,ɔ
1775031393.150522,2257,0,ɔ
1775031393.152143,2149,0,ɔ
1775031393.15506,2093,0,ɔ
1775031393.1580422,1498,0,ɔ
1775031393.161016,1914,0,ɔ
1775031393.166017,2295,0,ɔ
1775031393.1675038,2450,0,ɔ
1775031393.1735759,2254,0,ɔ
1775031393.1736588,1457,0,ɔ
1775031393.176435,1615,0,ɔ
1775031393.17908,1925,0,ɔ
1775031393.182081,2409,0,ɔ
1775031393.1873689,1980,0,ɔ
1775031393.189771,1887,0,ɔ
1775031393.191957,1816,0,ɔ
1775031393.1947389,1756,0,ɔ
1775031393.1970859,2310,0,ɔ
1775031393.200042,2596,0,ɔ
1775031393.2030442,2082,0,ɔ
1775031393.206062,1436,0,ɔ
1775031393.212833,1775,0,ɔ
1775031393.2131379,1954,0,ɔ
1775031393.2159822,2181,0,ɔ
1775031393.219858,2235,0,ɔ
1775031393.221668,1892,0,ɔ
1775031393.2242172,1500,0,ɔ
1775031393.227034,1656,0,ɔ
1775031393.230129,2288,0,ɔ
1775031393.233898,2474,0,ɔ
1775031393.236937,2195,0,ɔ
1775031393.2398562,1527,0,ɔ
1775031393.242354,1830,0,ɔ
1775031393.245111,2020,0,ɔ
1775031393.248079,2272,0,ɔ
1775031393.251046,2216,0,ɔ
1775031393.261736,2118,0,ɔ
1775031393.263366,1425,0,ɔ
1775031393.263552,1650,0,ɔ
1775031393.265862,2190,0,ɔ
1775031393.266326,2531,0,ɔ
1775031393.2690518,2134,0,ɔ
1775031393.272037,1534,0,ɔ
1775031393.275042,1545,0,ɔ
1775031393.281125,2071,0,ɔ
1775031393.281615,1971,0,ɔ
1775031393.284566,2642,0,ɔ
1775031393.2894511,1798,0,ɔ
1775031393.291231,1444,0,ɔ
1775031393.293039,1799,0,ɔ
1775031393.296045,1992,0,ɔ
1775031393.2990358,2489,0,ɔ
1775031393.303571,2087,0,ɔ
1775031393.306668,1754,0,ɔ
1775031393.3119528,1509,0,ɔ
1775031393.312208,2102,0,ɔ
1775031393.3140218,2246,0,ɔ
1775031393.3170822,1809,0,ɔ
1775031393.3200278,2707,0,ɔ
1775031393.3276649,1736,0,ɔ
1775031393.32783,1652,0,ɔ
1775031393.329776,1998,0,ɔ
1775031393.334613,2438,0,ɔ
1775031393.335098,2265,0,ɔ
1775031393.3379252,1922,0,ɔ
1775031393.3412402,1668,0,ɔ
1775031393.344054,1749,0,ɔ
1775031393.35103,1975,0,ɔ
1775031393.351347,2276,0,ɔ
1775031393.354439,2519,0,ɔ
1775031393.3594408,1547,0,ɔ
1775031393.359947,1587,0,ɔ
1775031393.3625789,2230,0,ɔ
1775031393.3654442,2253,0,ɔ
1775031393.371747,2433,0,ɔ
1775031393.3739011,2009,0,ɔ
1775031393.374143,1375,0,ɔ
1775031393.377184,1676,0,ɔ
1775031393.3824031,2102,0,ɔ
1775031393.38291,2434,0,ɔ
1775031393.385943,2327,0,ɔ
1775031393.388896,1749,0,ɔ
1775031393.394382,1517,0,ɔ
1775031393.3953679,1983,0,ɔ
1775031393.3980758,2225,0,ɔ
1775031393.402673,2397,0,ɔ
1775031393.4042182,2079,0,ɔ
1775031393.40693,1627,0,ɔ
1775031393.409895,1826,0,ɔ
1775031393.4156868,2153,0,ɔ
1775031393.416666,2190,0,ɔ
1775031393.4193642,2090,0,ɔ
1775031393.423884,1832,0,ɔ
1775031393.425636,1564,0,ɔ
1775031393.428384,1907,0,ɔ
1775031393.430977,2182,0,ɔ
1775031393.4339578,2381,0,ɔ
1775031393.439161,2099,0,ɔ
1775031393.441845,1653,0,ɔ
1775031393.444511,1666,0,ɔ
1775031393.446709,2071,0,ɔ
1775031393.4493172,2396,0,ɔ
1775031393.451932,2383,0,ɔ
1775031393.4548879,1814,0,ɔ
1775031393.461129,1527,0,ɔ
1775031393.461466,1839,0,ɔ
1775031393.464187,2159,0,ɔ
1775031393.4692109,2385,0,ɔ
1775031393.4706292,2195,0,ɔ
1775031393.4730308,1745,0,ɔ
1775031393.475932,1771,0,ɔ
1775031393.4789171,1919,0,ɔ
1775031393.48222,2253,0,ɔ
1775031393.4857469,2289,0,ɔ
1775031393.488868,2004,0,ɔ
1775031393.490943,1532,0,ɔ
1775031393.493907,1805,0,ɔ
1775031393.4969049,2146,0,ɔ
1775031393.503304,2415,0,ɔ
1775031393.503666,2114,0,ɔ
1775031393.5068421,1592,0,ɔ
1775031393.5089312,1642,0,ɔ
1775031393.511929,1987,0,ɔ
1775031393.514913,2359,0,ɔ
1775031393.517909,2358,0,ɔ
1775031393.520891,1926,0,ɔ
1775031393.5254312,1470,0,ɔ
1775031393.5271418,1759,0,ɔ
1775031393.529959,2227,0,ɔ
1775031393.533084,2328,0,ɔ
1775031393.535938,2296,0,ɔ
1775031393.538899,1748,0,ɔ
1775031393.541903,1565,0,ɔ
1775031393.545527,1910,0,ɔ
1775031393.54904,2249,0,ɔ
1775031393.551876,2306,0,ɔ
1775031393.554015,2101,0,ɔ
1775031393.556917,1558,0,ɔ
1775031393.559925,1713,0,ɔ
1775031393.562905,2092,0,ɔ
1775031393.566625,2259,0,ɔ
1775031393.5699892,2216,0,ɔ
1775031393.573132,1771,0,ɔ
1775031393.575249,1676,0,ɔ
1775031393.57793,1835,0,ɔ
1775031393.580777,2241,0,ɔ
1775031393.5843542,2412,0,ɔ
1775031393.588147,2068,0,ɔ
1775031393.590154,1674,0,ɔ
1775031393.593106,1647,0,ɔ
1775031393.596191,2034,0,ɔ
1775031393.598967,2201,0,ɔ
1775031393.60177,2413,0,ɔ
1775031393.6047769,1900,0,ɔ
1775031393.609146,1523,0,ɔ
1775031393.611016,1819,0,ɔ
1775031393.6139672,2160,0,ɔ
1775031393.616979,2273,0,ɔ
1775031393.619786,2209,0,ɔ
1775031393.622762,1743,0,ɔ
1775031393.625785,1780,0,ɔ
1775031393.6296902,1943,0,ɔ
1775031393.632981,2253,0,ɔ
1775031393.634838,2367,0,ɔ
1775031393.637974,2006,0,ɔ
1775031393.640796,1494,0,ɔ
1775031393.6437702,1814,0,ɔ
1775031393.646782,2174,0,ɔ
1775031393.6504488,2213,0,ɔ
1775031393.653769,2154,0,ɔ
1775031393.656739,1670,0,ɔ
1775031393.658894,1626,0,ɔ
1775031393.661798,2173,0,ɔ
1775031393.664814,2211,0,ɔ
1775031393.6677802,2219,0,ɔ
1775031393.672298,1857,0,ɔ
1775031393.674331,1563,0,ɔ
1775031393.678412,1807,0,ɔ
1775031393.680491,2113,0,ɔ
1775031393.6832159,2243,0,ɔ
1775031393.6857972,2255,0,ɔ
1775031393.6887648,1668,0,ɔ
1775031393.6933491,1761,0,ɔ
1775031393.6955929,2015,0,ɔ
1775031393.699539,2236,0,ɔ
1775031393.7016928,2293,0,ɔ
1775031393.704282,1990,0,ɔ
1775031393.7068312,1475,0,ɔ
1775031393.709758,1712,0,ɔ
1775031393.714,2009,0,ɔ
1775031393.716023,2073,0,ɔ
1775031393.7188962,2357,0,ɔ
1775031393.7221482,1859,0,ɔ
1775031393.724782,1615,0,ɔ
1775031393.7277749,1890,0,ɔ
1775031393.730794,2392,0,ɔ
1775031393.734328,2283,0,ɔ
1775031393.7379708,2138,0,ɔ
1775031393.739878,1693,0,ɔ
1775031393.743168,1600,0,ɔ
1775031393.745856,2082,0,ɔ
1775031393.748749,2327,0,ɔ
1775031393.751758,2372,0,ɔ
1775031393.755866,1856,0,ɔ
1775031393.7579572,1438,0,ɔ
1775031393.7609549,1669,0,ɔ
1775031393.7639942,2239,0,ɔ
1775031393.76679,2361,0,ɔ
1775031393.769763,2180,0,ɔ
1775031393.772809,1678,0,ɔ
1775031393.77635,1538,0,ɔ
1775031393.7799392,2005,0,ɔ
1775031393.781793,2374,0,ɔ
1775031393.784859,2286,0,ɔ
1775031393.787758,2047,0,ɔ
1775031393.791469,1596,0,ɔ
1775031393.793946,1712,0,ɔ
1775031393.797601,2129,0,ɔ
1775031393.800927,2356,0,ɔ
1775031393.805283,2236,0,ɔ
1775031393.806689,1604,0,ɔ
1775031393.8092601,1534,0,ɔ
1775031393.81179,1904,0,ɔ
1775031393.814764,2268,0,ɔ
1775031393.818658,2295,0,ɔ
1775031393.8215702,2047,0,ɔ
1775031393.8260171,1603,0,ɔ
1775031393.827614,1807,0,ɔ
1775031393.830166,2080,0,ɔ
1775031393.832788,2285,0,ɔ
1775031393.8390741,2323,0,ɔ
1775031393.839421,1717,0,ɔ
1775031393.842127,1543,0,ɔ
1775031393.846831,1859,0,ɔ
1775031393.848515,2244,0,ɔ
1775031393.851063,2259,0,ɔ
1775031393.853792,2128,0,ɔ
1775031393.859524,1519,0,ɔ
1775031393.860207,1659,0,ɔ
1775031393.863507,2127,0,ɔ
1775031393.8676622,2292,0,ɔ
1775031393.8692522,2216,0,ɔ
1775031393.8718028,1859,0,ɔ
1775031393.8748028,1547,0,ɔ
1775031393.880728,1958,0,ɔ
1775031393.8813329,2208,0,ɔ
1775031393.8844428,2308,0,ɔ
1775031393.88906,2039,0,ɔ
1775031393.890623,1755,0,ɔ
1775031393.893166,1569,0,ɔ
1775031393.8958,2012,0,ɔ
1775031393.901551,2279,0,ɔ
1775031393.9019258,2228,0,ɔ
1775031393.905369,2134,0,ɔ
1775031393.9097059,1492,0,ɔ
1775031393.911291,1823,0,ɔ
1775031393.91384,2216,0,ɔ
1775031393.916673,2331,0,ɔ
1775031393.922928,2333,0,ɔ
1775031393.922996,1651,0,ɔ
1775031393.925826,1601,0,ɔ
1775031393.930361,1987,0,ɔ
1775031393.931905,2246,0,ɔ
1775031393.934658,2260,0,ɔ
1775031393.937663,1951,0,ɔ
1775031393.9434931,1623,0,ɔ
1775031393.944151,1715,0,ɔ
1775031393.946909,2059,0,ɔ
1775031393.9496791,2156,0,ɔ
1775031393.953293,2382,0,ɔ
1775031393.955837,1806,0,ɔ
1775031393.9586701,1572,0,ɔ
1775031393.964572,1860,0,ɔ
1775031393.964936,2254,0,ɔ
1775031393.967781,2332,0,ɔ
1775031393.972417,2104,0,ɔ
1775031393.9740741,1633,0,ɔ
1775031393.97667,1693,0,ɔ
1775031393.97967,2002,0,ɔ
1775031393.9859478,2259,0,ɔ
1775031393.9863071,2315,0,ɔ
1775031393.989378,1830,0,ɔ
1775031393.993778,1596,0,ɔ
1775031393.99538,1905,0,ɔ
1775031393.9979231,2255,0,ɔ
1775031394.0006258,2299,0,ɔ
1775031394.004352,2071,0,ɔ
1775031394.007348,1608,0,ɔ
1775031394.010418,1705,0,ɔ
1775031394.01483,2023,0,ɔ
1775031394.016352,2264,0,ɔ
1775031394.0189,2413,0,ɔ
1775031394.0216808,1871,0,ɔ
1775031394.02769,1563,0,ɔ
1775031394.028061,1803,0,ɔ
1775031394.0315719,2172,0,ɔ
1775031394.033795,2411,0,ɔ
1775031394.0372732,2168,0,ɔ
1775031394.039828,1657,0,ɔ
1775031394.042662,1613,0,ɔ
1775031394.048651,1963,0,ɔ
1775031394.0490398,2280,0,ɔ
1775031394.05188,2323,0,ɔ
1775031394.05637,1841,0,ɔ
1775031394.0579462,1552,0,ɔ
1775031394.0606668,1804,0,ɔ
1775031394.063668,2088,0,ɔ
1775031394.069055,2272,0,ɔ
1775031394.0700622,2261,0,ɔ
1775031394.0728178,1665,0,ɔ
1775031394.0774772,1617,0,ɔ
1775031394.0791318,1929,0,ɔ
1775031394.0816782,2260,0,ɔ
1775031394.084652,2318,0,ɔ
1775031394.0905979,2039,0,ɔ
1775031394.0912771,1663,0,ɔ
1775031394.094249,1763,0,ɔ
1775031394.098719,2082,0,ɔ
1775031394.100332,2257,0,ɔ
1775031394.1028879,2325,0,ɔ
1775031394.105673,1783,0,ɔ
1775031394.111718,1542,0,ɔ
1775031394.1120682,1893,0,ɔ
1775031394.115233,2198,0,ɔ
1775031394.1178439,2307,0,ɔ
1775031394.121537,2082,0,ɔ
1775031394.124094,1591,0,ɔ
1775031394.126776,1644,0,ɔ
1775031394.1296551,2129,0,ɔ
1775031394.1329951,2326,0,ɔ
1775031394.141403,2312,0,ɔ
1775031394.141768,1804,0,ɔ
1775031394.142037,1547,0,ɔ
1775031394.144758,1876,0,ɔ
1775031394.147667,2231,0,ɔ
1775031394.150648,2279,0,ɔ
1775031394.155595,2070,0,ɔ
1775031394.157823,1657,0,ɔ
1775031394.159925,1673,0,ɔ
1775031394.164333,2029,0,ɔ
1775031394.1659389,2347,0,ɔ
1775031394.1686609,2339,0,ɔ
1775031394.171633,1914,0,ɔ
1775031394.1747332,1561,0,ɔ
1775031394.178266,1792,0,ɔ
1775031394.181731,2131,0,ɔ
1775031394.184719,2268,0,ɔ
1775031394.1869152,2298,0,ɔ
1775031394.189576,1750,0,ɔ
1775031394.192548,1654,0,ɔ
1775031394.195539,1829,0,ɔ
1775031394.199861,2247,0,ɔ
1775031394.201776,2437,0,ɔ
1775031394.206075,2009,0,ɔ
1775031394.208127,1528,0,ɔ
1775031394.210851,1762,0,ɔ
1775031394.213533,2117,0,ɔ
1775031394.2165482,2335,0,ɔ
1775031394.22099,2180,0,ɔ
1775031394.223186,1753,0,ɔ
1775031394.2274518,1698,0,ɔ
1775031394.2296362,1823,0,ɔ
1775031394.231518,2217,0,ɔ
1775031394.234553,2312,0,ɔ
1775031394.237535,2080,0,ɔ
1775031394.244478,1640,0,ɔ
1775031394.249184,1760,0,ɔ
1775031394.2517061,2126,0,ɔ
1775031394.2541592,2311,0,ɔ
1775031394.25441,2261,0,ɔ
1775031394.25616,1779,0,ɔ
1775031394.25881,1557,0,ɔ
1775031394.261527,1932,0,ɔ
1775031394.2680562,2104,0,ɔ
1775031394.269566,2329,0,ɔ
1775031394.2732391,2178,0,ɔ
1775031394.275604,1662,0,ɔ
1775031394.2778912,1706,0,ɔ
1775031394.279713,2100,0,ɔ
1775031394.282509,2180,0,ɔ
1775031394.286247,2320,0,ɔ
1775031394.292223,1935,0,ɔ
1775031394.293895,1495,0,ɔ
1775031394.295956,1786,0,ɔ
1775031394.302454,2152,0,ɔ
1775031394.3025558,2312,0,ɔ
1775031394.3038988,2183,0,ɔ
1775031394.3065228,1646,0,ɔ
1775031394.309524,1652,0,ɔ
1775031394.314938,2112,0,ɔ
1775031394.317119,2276,0,ɔ
1775031394.319077,2245,0,ɔ
1775031394.324129,1846,0,ɔ
1775031394.32595,1593,0,ɔ
1775031394.327523,1838,0,ɔ
1775031394.330518,2200,0,ɔ
1775031394.333567,2348,0,ɔ
1775031394.338469,2179,0,ɔ
1775031394.341959,1698,0,ɔ
1775031394.3432581,1609,0,ɔ
1775031394.346782,2007,0,ɔ
1775031394.3486788,2225,0,ɔ
1775031394.351527,2296,0,ɔ
1775031394.3545291,1993,0,ɔ
1775031394.360702,1588,0,ɔ
1775031394.3621,1817,0,ɔ
1775031394.3655019,2006,0,ɔ
1775031394.367798,2326,0,ɔ
1775031394.369888,2285,0,ɔ
1775031394.372648,1698,0,ɔ
1775031394.375543,1597,0,ɔ
1775031394.378539,1948,0,ɔ
1775031394.3831801,2292,0,ɔ
1775031394.384928,2312,0,ɔ
1775031394.391059,2003,0,ɔ
1775031394.391208,1578,0,ɔ
1775031394.3939998,1745,0,ɔ
1775031394.396523,2108,0,ɔ
1775031394.400183,2321,0,ɔ
1775031394.404903,2290,0,ɔ
1775031394.40552,1753,0,ɔ
1775031394.4090939,1557,0,ɔ
1775031394.413383,1910,0,ɔ
1775031394.414999,2291,0,ɔ
1775031394.4175591,2313,0,ɔ
1775031394.4205408,2040,0,ɔ
1775031394.426641,1572,0,ɔ
1775031394.4276931,1714,0,ɔ
1775031394.430088,2099,0,ɔ
1775031394.433001,2274,0,ɔ
1775031394.43667,2313,0,ɔ
1775031394.4385011,1809,0,ɔ
1775031394.4415271,1582,0,ɔ
1775031394.4443789,1873,0,ɔ
1775031394.448929,2222,0,ɔ
1775031394.450803,2323,0,ɔ
1775031394.454855,2117,0,ɔ
1775031394.456892,1653,0,ɔ
1775031394.459677,1714,0,ɔ
1775031394.462379,2015,0,ɔ
1775031394.465392,2274,0,ɔ
1775031394.470947,2289,0,ɔ
1775031394.4722502,1870,0,ɔ
1775031394.475308,1626,0,ɔ
1775031394.4784179,1805,0,ɔ
1775031394.480412,2165,0,ɔ
1775031394.483388,2334,0,ɔ
1775031394.486372,2223,0,ɔ
1775031394.4916701,1708,0,ɔ
1775031394.493267,1652,0,ɔ
1775031394.49742,1999,0,ɔ
1775031394.499546,2251,0,ɔ
1775031394.501397,2252,0,ɔ
1775031394.504467,1945,0,ɔ
1775031394.507379,1541,0,ɔ
1775031394.5127308,1832,0,ɔ
1775031394.514706,2135,0,ɔ
1775031394.516452,2280,0,ɔ
1775031394.520777,2233,0,ɔ
1775031394.52247,1758,0,ɔ
1775031394.5253718,1556,0,ɔ
1775031394.528376,1966,0,ɔ
1775031394.534351,2343,0,ɔ
1775031394.534699,2296,0,ɔ
1775031394.537972,2018,0,ɔ
1775031394.54041,1555,0,ɔ
1775031394.543988,1752,0,ɔ
1775031394.546544,2062,0,ɔ
1775031394.5494049,2299,0,ɔ
1775031394.5526788,2301,0,ɔ
1775031394.556541,1796,0,ɔ
1775031394.5590599,1581,0,ɔ
1775031394.562405,1868,0,ɔ
1775031394.56583,2194,0,ɔ
1775031394.5673869,2354,0,ɔ
1775031394.570397,2035,0,ɔ
1775031394.573389,1546,0,ɔ
1775031394.580845,1766,0,ɔ
1775031394.582019,2158,0,ɔ
1775031394.5849211,2288,0,ɔ
1775031394.586854,2222,0,ɔ
1775031394.589233,1686,0,ɔ
1775031394.5913842,1646,0,ɔ
1775031394.594384,1906,0,ɔ
1775031394.597381,2107,0,ɔ
1775031394.603925,2463,0,ɔ
1775031394.605053,2140,0,ɔ
1775031394.607635,1657,0,ɔ
1775031394.611799,1686,0,ɔ
1775031394.613494,2037,0,ɔ
1775031394.615382,2174,0,ɔ
1775031394.618398,2375,0,ɔ
1775031394.621384,1844,0,ɔ
1775031394.6277618,1512,0,ɔ
1775031394.6280031,1958,0,ɔ
1775031394.6323981,2123,0,ɔ
1775031394.6349719,2216,0,ɔ
1775031394.636641,2059,0,ɔ
1775031394.6394,1825,0,ɔ
1775031394.642386,1792,0,ɔ
1775031394.648929,2015,0,ɔ
1775031394.6513338,2260,0,ɔ
1775031394.651458,2358,0,ɔ
1775031394.655814,1917,0,ɔ
1775031394.65805,1351,0,ɔ
1775031394.66095,1741,0,ɔ
1775031394.663557,2299,0,ɔ
1775031394.666398,2521,0,ɔ
1775031394.6725261,2271,0,ɔ
1775031394.673949,1606,0,ɔ
1775031394.6762922,1568,0,ɔ
1775031394.678515,1868,0,ɔ
1775031394.6822982,2314,0,ɔ
1775031394.684852,2347,0,ɔ
1775031394.687479,1871,0,ɔ
1775031394.690262,1405,0,ɔ
1775031394.694391,1786,0,ɔ
1775031394.696623,2051,0,ɔ
1775031394.6999621,2425,0,ɔ
1775031394.7030551,2274,0,ɔ
1775031394.705914,1656,0,ɔ
1775031394.708477,1479,0,ɔ
1775031394.711259,1959,0,ɔ
1775031394.716209,2338,0,ɔ
1775031394.717966,2360,0,ɔ
1775031394.7221582,1997,0,ɔ
1775031394.724187,1477,0,ɔ
1775031394.72685,1567,0,ɔ
1775031394.729296,2129,0,ɔ
1775031394.7322822,2478,0,ɔ
1775031394.736817,2423,0,ɔ
1775031394.738847,1757,0,ɔ
1775031394.741716,1447,0,ɔ
1775031394.74487,1810,0,ɔ
1775031394.7476091,2246,0,ɔ
1775031394.750514,2546,0,ɔ
1775031394.753249,2056,0,ɔ
1775031394.7584372,1490,0,ɔ
1775031394.760009,1659,0,ɔ
1775031394.762903,2172,0,ɔ
1775031394.766016,2463,0,ɔ
1775031394.768617,2232,0,ɔ
1775031394.771279,1710,0,ɔ
1775031394.774282,1530,0,ɔ
1775031394.778642,1886,0,ɔ
1775031394.7806652,2189,0,ɔ
1775031394.783617,2400,0,ɔ
1775031394.786548,2102,0,ɔ
1775031394.7892768,1573,0,ɔ
1775031394.7922502,1516,0,ɔ
1775031394.795316,1925,0,ɔ
1775031394.7985651,2448,0,ɔ
1775031394.801835,2480,0,ɔ
1775031394.806255,1889,0,ɔ
1775031394.807787,1484,0,ɔ
1775031394.8102882,1779,0,ɔ
1775031394.813292,2315,0,ɔ
1775031394.8187761,2328,0,ɔ
1775031394.819648,2284,0,ɔ
1775031394.8225348,1551,0,ɔ
1775031394.826845,1594,0,ɔ
1775031394.828445,1948,0,ɔ
1775031394.8312619,2362,0,ɔ
1775031394.83425,2356,0,ɔ
1775031394.839424,1826,0,ɔ
1775031394.841613,1494,0,ɔ
1775031394.844359,1787,0,ɔ
1775031394.847626,2153,0,ɔ
1775031394.8492632,2351,0,ɔ
1775031394.852264,2225,0,ɔ
1775031394.8552709,1757,0,ɔ
1775031394.860096,1553,0,ɔ
1775031394.862286,1999,0,ɔ
1775031394.8663092,2335,0,ɔ
1775031394.868294,2386,0,ɔ
1775031394.870275,2091,0,ɔ
1775031394.8732831,1574,0,ɔ
1775031394.8762739,1628,0,ɔ
1775031394.880655,2060,0,ɔ
1775031394.882884,2461,0,ɔ
1775031394.885847,2200,0,ɔ
1775031394.889133,1714,0,ɔ
1775031394.8917198,1540,0,ɔ
1775031394.89428,1947,0,ɔ
1775031394.8971531,2269,0,ɔ
1775031394.9022021,2412,0,ɔ
1775031394.903626,2101,0,ɔ
1775031394.907773,1575,0,ɔ
1775031394.90973,1663,0,ɔ
1775031394.9124339,2086,0,ɔ
1775031394.9151518,2325,0,ɔ
1775031394.918139,2235,0,ɔ
1775031394.922528,1868,0,ɔ
1775031394.924232,1553,0,ɔ
1775031394.927186,1748,0,ɔ
1775031394.930223,2102,0,ɔ
1775031394.9331672,2413,0,ɔ
1775031394.936345,2264,0,ɔ
1775031394.9391239,1703,0,ɔ
1775031394.943809,1591,0,ɔ
1775031394.945848,2091,0,ɔ
1775031394.950012,2285,0,ɔ
1775031394.9520798,2283,0,ɔ
1775031394.954734,1867,0,ɔ
1775031394.957279,1520,0,ɔ
1775031394.960135,1770,0,ɔ
1775031394.964649,2239,0,ɔ
1775031394.96687,2469,0,ɔ
1775031394.96969,2033,0,ɔ
1775031394.972666,1579,0,ɔ
1775031394.975413,1778,0,ɔ
1775031394.978148,2145,0,ɔ
1775031394.981157,2319,0,ɔ
1775031394.985188,2294,0,ɔ
1775031394.987196,1869,0,ɔ
1775031394.9930089,1494,0,ɔ
1775031394.993147,1747,0,ɔ
1775031394.99615,2088,0,ɔ
1775031394.9995542,2345,0,ɔ
1775031395.002132,2191,0,ɔ
1775031395.0058649,1661,0,ɔ
1775031395.009642,1526,0,ɔ
1775031395.012308,1942,0,ɔ
1775031395.014393,2265,0,ɔ
1775031395.01712,2440,0,ɔ
1775031395.0201468,2115,0,ɔ
1775031395.023152,1560,0,ɔ
1775031395.027019,1748,0,ɔ
1775031395.030438,2084,0,ɔ
1775031395.032296,2345,0,ɔ
1775031395.03528,2307,0,ɔ
1775031395.0381172,1841,0,ɔ
1775031395.04112,1490,0,ɔ
1775031395.0751832,1813,0,ɔ
1775031395.080266,2168,0,ɔ
1775031395.080387,2317,0,ɔ
1775031395.080418,2172,0,ɔ
1775031395.080519,1605,0,ɔ
1775031395.080619,1703,0,ɔ
1775031395.080642,2080,0,ɔ
1775031395.0806642,2285,0,ɔ
1775031395.080686,2235,0,ɔ
1775031395.0807061,1850,0,ɔ
1775031395.0807722,1540,0,ɔ
1775031395.080885,1829,0,ɔ
1775031395.080981,2274,0,ɔ
1775031395.083533,2466,0,ɔ
1775031395.086543,2165,0,ɔ
1775031395.0892632,1612,0,ɔ
1775031395.094368,1616,0,ɔ
1775031395.096647,2007,0,ɔ
1775031395.0981262,2302,0,ɔ
1775031395.102628,2352,0,ɔ
1775031395.104239,1945,0,ɔ
1775031395.1070569,1443,0,ɔ
1775031395.1100302,1590,0,ɔ
1775031395.116292,2148,0,ɔ
1775031395.116971,2479,0,ɔ
1775031395.11971,2295,0,ɔ
1775031395.124171,1745,0,ɔ
1775031395.125634,1623,0,ɔ
1775031395.128174,1891,0,ɔ
1775031395.131053,2173,0,ɔ
1775031395.137012,2344,0,ɔ
1775031395.137722,1975,0,ɔ
1775031395.140788,1530,0,ɔ
1775031395.145293,1782,0,ɔ
1775031395.146964,2118,0,ɔ
1775031395.14951,2368,0,ɔ
1775031395.152063,2298,0,ɔ
1775031395.158195,1789,0,ɔ
1775031395.159136,1582,0,ɔ
1775031395.161128,1882,0,ɔ
1775031395.1641998,2226,0,ɔ
1775031395.167688,2395,0,ɔ
1775031395.1702342,2051,0,ɔ
1775031395.173026,1475,0,ɔ
1775031395.178572,1670,0,ɔ
1775031395.1792169,2154,0,ɔ
1775031395.18227,2412,0,ɔ
1775031395.1868281,2252,0,ɔ
1775031395.188365,1809,0,ɔ
1775031395.191006,1504,0,ɔ
1775031395.194027,1885,0,ɔ
1775031395.199102,2276,0,ɔ
1775031395.20135,2344,0,ɔ
1775031395.2031,2095,0,ɔ
1775031395.2075672,1541,0,ɔ
1775031395.209035,1633,0,ɔ
1775031395.212,2098,0,ɔ
1775031395.2150028,2371,0,ɔ
1775031395.220317,2278,0,ɔ
1775031395.22773,1829,0,ɔ
1775031395.227875,1565,0,ɔ
1775031395.2301629,1842,0,ɔ
1775031395.230297,2150,0,ɔ
1775031395.2330549,2349,0,ɔ
1775031395.2360342,2193,0,ɔ
1775031395.2390258,1699,0,ɔ
1775031395.2434611,1593,0,ɔ
1775031395.2455392,1979,0,ɔ
1775031395.2496362,2309,0,ɔ
1775031395.251761,2397,0,ɔ
1775031395.254497,1894,0,ɔ
1775031395.2570329,1469,0,ɔ
1775031395.260022,1700,0,ɔ
1775031395.265217,2145,0,ɔ
1775031395.2666938,2454,0,ɔ
1775031395.269762,2310,0,ɔ
1775031395.2729568,1688,0,ɔ
1775031395.275671,1545,0,ɔ
1775031395.278383,1887,0,ɔ
1775031395.2810361,2329,0,ɔ
1775031395.285839,2406,0,ɔ
1775031395.288055,1976,0,ɔ
1775031395.290177,1465,0,ɔ
1775031395.294264,1554,0,ɔ
1775031395.296028,2122,0,ɔ
1775031395.299011,2462,0,ɔ
1775031395.302027,2244,0,ɔ
1775031395.307117,1831,0,ɔ
1775031395.308526,1705,0,ɔ
1775031395.311596,1866,0,ɔ
1775031395.3157918,2254,0,ɔ
1775031395.317332,2412,0,ɔ
1775031395.320035,2058,0,ɔ
1775031395.323055,1439,0,ɔ
1775031395.328934,1771,0,ɔ
1775031395.3290198,2093,0,ɔ
1775031395.3323488,2242,0,ɔ
1775031395.336512,2257,0,ɔ
1775031395.338142,1821,0,ɔ
1775031395.341008,1633,0,ɔ
1775031395.344022,1853,0,ɔ
1775031395.349637,2231,0,ɔ
1775031395.350522,2313,0,ɔ
1775031395.353031,2087,0,ɔ
1775031395.357408,1651,0,ɔ
1775031395.3590322,1655,0,ɔ
1775031395.3620238,2033,0,ɔ
1775031395.365024,2307,0,ɔ
1775031395.370892,2340,0,ɔ
1775031395.37127,1886,0,ɔ
1775031395.373965,1441,0,ɔ
1775031395.378429,1657,0,ɔ
1775031395.379932,2261,0,ɔ
1775031395.3829062,2462,0,ɔ
1775031395.385908,2213,0,ɔ
1775031395.3912058,1710,0,ɔ
1775031395.393343,1501,0,ɔ
1775031395.395201,2000,0,ɔ
1775031395.399607,2429,0,ɔ
1775031395.401242,2405,0,ɔ
1775031395.4039118,1919,0,ɔ
1775031395.406898,1397,0,ɔ
1775031395.41278,1778,0,ɔ
1775031395.413437,2215,0,ɔ
1775031395.416558,2443,0,ɔ
1775031395.420932,2183,0,ɔ
1775031395.422626,1590,0,ɔ
1775031395.4251819,1543,0,ɔ
1775031395.4279108,1933,0,ɔ
1775031395.433995,2393,0,ɔ
1775031395.434381,2380,0,ɔ
1775031395.437477,1921,0,ɔ
1775031395.442044,1456,0,ɔ
1775031395.443605,1781,0,ɔ
1775031395.446232,2185,0,ɔ
1775031395.4489,2377,0,ɔ
1775031395.454865,2262,0,ɔ
1775031395.4559202,1744,0,ɔ
1775031395.458372,1545,0,ɔ
1775031395.463203,1865,0,ɔ
1775031395.464812,2230,0,ɔ
1775031395.467356,2450,0,ɔ
1775031395.469902,2052,0,ɔ
1775031395.476036,1531,0,ɔ
1775031395.476392,1697,0,ɔ
1775031395.480084,2146,0,ɔ
1775031395.482836,2384,0,ɔ
1775031395.4849012,2319,0,ɔ
1775031395.487891,1685,0,ɔ
1775031395.490866,1461,0,ɔ
1775031395.493899,1901,0,ɔ
1775031395.4982662,2199,0,ɔ
1775031395.5004659,2317,0,ɔ
1775031395.5034099,2003,0,ɔ
1775031395.506623,1521,0,ɔ
1775031395.509387,1694,0,ɔ
1775031395.5144162,2149,0,ɔ
1775031395.5148768,2410,0,ɔ
1775031395.521454,2398,0,ɔ
1775031395.523114,1877,0,ɔ
1775031395.525049,1499,0,ɔ
1775031395.52756,1863,0,ɔ
1775031395.531053,2214,0,ɔ
1775031395.532901,2369,0,ɔ
1775031395.5358999,2154,0,ɔ
1775031395.538908,1550,0,ɔ
1775031395.543365,1574,0,ɔ
1775031395.5454762,2024,0,ɔ
1775031395.548657,2437,0,ɔ
1775031395.5517461,2367,0,ɔ
1775031395.5543108,1820,0,ɔ
1775031395.5568619,1501,0,ɔ
1775031395.559892,1867,0,ɔ
1775031395.565529,2098,0,ɔ
1775031395.566402,2358,0,ɔ
1775031395.5690172,2160,0,ɔ
1775031395.573694,1677,0,ɔ
1775031395.575265,1512,0,ɔ
1775031395.577895,1975,0,ɔ
1775031395.580898,2302,0,ɔ
1775031395.586672,2386,0,ɔ
1775031395.587084,1987,0,ɔ
1775031395.59111,1472,0,ɔ
1775031395.595295,1593,0,ɔ
1775031395.5970612,2276,0,ɔ
1775031395.598848,2405,0,ɔ
1775031395.601891,2240,0,ɔ
1775031395.6048908,1605,0,ɔ
1775031395.609556,1431,0,ɔ
1775031395.611493,1685,0,ɔ
1775031395.614717,2587,0,ɔ
1775031395.618486,2546,0,ɔ
1775031395.6203,2134,0,ɔ
1775031395.622905,1531,0,ɔ
1775031395.62589,1471,0,ɔ
1775031395.628893,2176,0,ɔ
1775031395.633174,2454,0,ɔ
1775031395.635047,2331,0,ɔ
1775031395.6381812,1616,0,ɔ
1775031395.642072,1341,0,ɔ
1775031395.643905,1919,0,ɔ
1775031395.646894,2082,0,ɔ
1775031395.6499012,2617,0,ɔ
1775031395.656579,2183,0,ɔ
1775031395.657023,1777,0,ɔ
1775031395.6589298,1640,0,ɔ
1775031395.663558,2002,0,ɔ
1775031395.6657631,2292,0,ɔ
1775031395.6685529,2160,0,ɔ
1775031395.671154,1843,0,ɔ
1775031395.673912,1461,0,ɔ
1775031395.6788192,1583,0,ɔ
1775031395.6812348,2185,0,ɔ
1775031395.682912,2739,0,ɔ
1775031395.6876018,2250,0,ɔ
1775031395.6893241,1557,0,ɔ
1775031395.691901,1655,0,ɔ
1775031395.6948879,2023,0,ɔ
1775031395.697876,2372,0,ɔ
1775031395.701503,2491,0,ɔ
1775031395.704878,1724,0,ɔ
1775031395.708308,1472,0,ɔ
1775031395.7104971,1652,0,ɔ
1775031395.713131,2290,0,ɔ
1775031395.71586,2322,0,ɔ
1775031395.718743,2246,0,ɔ
1775031395.723989,1710,0,ɔ
1775031395.725751,1679,0,ɔ
1775031395.729952,1706,0,ɔ
1775031395.7320309,2264,0,ɔ
1775031395.7337348,2552,0,ɔ
1775031395.736755,2040,0,ɔ
1775031395.739771,1453,0,ɔ
1775031395.744204,1815,0,ɔ
1775031395.746138,2180,0,ɔ
1775031395.7491999,2280,0,ɔ
1775031395.752316,2366,0,ɔ
1775031395.755061,1670,0,ɔ
1775031395.7577689,1406,0,ɔ
1775031395.760777,1835,0,ɔ
1775031395.764862,2353,0,ɔ
1775031395.766829,2468,0,ɔ
1775031395.7708669,2089,0,ɔ
1775031395.7731168,1427,0,ɔ
1775031395.775765,1670,0,ɔ
1775031395.7787719,2139,0,ɔ
1775031395.781756,2496,0,ɔ
1775031395.785449,2357,0,ɔ
1775031395.788585,1731,0,ɔ
1775031395.791352,1487,0,ɔ
1775031395.7946339,1830,0,ɔ
1775031395.7971368,2233,0,ɔ
1775031395.7997792,2406,0,ɔ
1775031395.8061152,2099,0,ɔ
1775031395.806497,1584,0,ɔ
1775031395.809506,1571,0,ɔ
1775031395.814244,1999,0,ɔ
1775031395.815886,2403,0,ɔ
1775031395.817726,2278,0,ɔ
1775031395.821339,1935,0,ɔ
1775031395.82409,1465,0,ɔ
1775031395.827717,1804,0,ɔ
1775031395.830691,2279,0,ɔ
1775031395.8353112,2399,0,ɔ
1775031395.8366468,2218,0,ɔ
1775031395.839204,1504,0,ɔ
1775031395.841774,1758,0,ɔ
1775031395.847847,2065,0,ɔ
1775031395.8485901,2320,0,ɔ
1775031395.852093,2463,0,ɔ
1775031395.855137,1943,0,ɔ
1775031395.8575208,1430,0,ɔ
1775031395.860118,1642,0,ɔ
1775031395.862785,2135,0,ɔ
1775031395.865767,2345,0,ɔ
1775031395.870464,2198,0,ɔ
1775031395.872434,1666,0,ɔ
1775031395.875136,1503,0,ɔ
1775031395.878764,1901,0,ɔ
1775031395.881356,2354,0,ɔ
1775031395.883911,2472,0,ɔ
1775031395.886772,2060,0,ɔ
1775031395.892575,1609,0,ɔ
1775031395.893348,1739,0,ɔ
1775031395.8960059,2040,0,ɔ
1775031395.899023,2339,0,ɔ
1775031395.902736,2303,0,ɔ
1775031395.905309,1728,0,ɔ
1775031395.907999,1465,0,ɔ
1775031395.910788,1852,0,ɔ
1775031395.9173,2209,0,ɔ
1775031395.9175198,2432,0,ɔ
1775031395.920223,2046,0,ɔ
1775031395.92476,1503,0,ɔ
1775031395.926462,1547,0,ɔ
1775031395.9290938,2140,0,ɔ
1775031395.931759,2492,0,ɔ
1775031395.9394848,2369,0,ɔ
1775031395.94066,1753,0,ɔ
1775031395.940935,1417,0,ɔ
1775031395.9440691,1797,0,ɔ
1775031395.947839,2390,0,ɔ
1775031395.949759,2431,0,ɔ
1775031395.9527628,2191,0,ɔ
1775031395.9557528,1548,0,ɔ
1775031395.962522,1546,0,ɔ
1775031395.963565,2157,0,ɔ
1775031395.965322,2380,0,ɔ
1775031395.970539,2315,0,ɔ
1775031395.970878,1813,0,ɔ
1775031395.9736462,1444,0,ɔ
1775031395.977362,1848,0,ɔ
1775031395.980034,2166,0,ɔ
1775031395.985012,2471,0,ɔ
1775031395.988117,2202,0,ɔ
1775031395.989119,1616,0,ɔ
1775031395.992976,1597,0,ɔ
1775031395.994642,1936,0,ɔ
1775031395.997625,2299,0,ɔ
1775031396.000621,2316,0,ɔ
1775031396.006507,2101,0,ɔ
1775031396.0069592,1471,0,ɔ
1775031396.011035,1724,0,ɔ
1775031396.012959,2112,0,ɔ
1775031396.0169642,2406,0,ɔ
1775031396.018626,2269,0,ɔ
1775031396.021634,1725,0,ɔ
1775031396.024641,1507,0,ɔ
1775031396.029103,1882,0,ɔ
1775031396.0314722,2210,0,ɔ
1775031396.03569,2415,0,ɔ
1775031396.038116,2108,0,ɔ
1775031396.039804,1503,0,ɔ
1775031396.042628,1710,0,ɔ
1775031396.045631,2151,0,ɔ
1775031396.0535538,2378,0,ɔ
1775031396.0553129,2307,0,ɔ
1775031396.056594,1662,0,ɔ
1775031396.0605938,1485,0,ɔ
1775031396.060808,1844,0,ɔ
1775031396.0637171,2237,0,ɔ
1775031396.066688,2469,0,ɔ
1775031396.069632,2100,0,ɔ
1775031396.076857,1571,0,ɔ
1775031396.0782259,1675,0,ɔ
1775031396.078968,2146,0,ɔ
1775031396.083543,2347,0,ɔ
1775031396.08534,2267,0,ɔ
1775031396.0881011,1838,0,ɔ
1775031396.090821,1461,0,ɔ
1775031396.0969741,1845,0,ɔ
1775031396.097785,2207,0,ɔ
1775031396.101588,2362,0,ɔ
1775031396.106098,2231,0,ɔ
1775031396.1065788,1555,0,ɔ
1775031396.10862,1606,0,ɔ
1775031396.111617,2020,0,ɔ
1775031396.114621,2353,0,ɔ
1775031396.1202161,2349,0,ɔ
1775031396.1220841,1905,0,ɔ
1775031396.125083,1452,0,ɔ
1775031396.128909,1842,0,ɔ
1775031396.130608,2203,0,ɔ
1775031396.133337,2457,0,ɔ
1775031396.136,2252,0,ɔ
1775031396.14203,1621,0,ɔ
1775031396.1430132,1531,0,ɔ
1775031396.1464052,1946,0,ɔ
1775031396.150947,2308,0,ɔ
1775031396.151111,2373,0,ɔ
1775031396.1541219,1997,0,ɔ
1775031396.156857,1445,0,ɔ
1775031396.159637,1683,0,ɔ
1775031396.1651359,2118,0,ɔ
1775031396.1668968,2423,0,ɔ
1775031396.1698492,2311,0,ɔ
1775031396.173672,1651,0,ɔ
1775031396.175286,1499,0,ɔ
1775031396.177939,1923,0,ɔ
1775031396.180613,2354,0,ɔ
1775031396.18697,2395,0,ɔ
1775031396.189423,2022,0,ɔ
1775031396.191354,1554,0,ɔ
1775031396.193965,1671,0,ɔ
1775031396.1962602,2149,0,ɔ
1775031396.19924,2327,0,ɔ
1775031396.2016928,2308,0,ɔ
1775031396.204624,1773,0,ɔ
1775031396.213692,1508,0,ɔ
1775031396.214165,1885,0,ɔ
1775031396.215456,2259,0,ɔ
1775031396.218815,2447,0,ɔ
1775031396.220426,2107,0,ɔ
1775031396.2229881,1485,0,ɔ
1775031396.225631,1650,0,ɔ
1775031396.2285178,2031,0,ɔ
1775031396.2338402,2382,0,ɔ
1775031396.235313,2332,0,ɔ
1775031396.24207,1879,0,ɔ
1775031396.242545,1479,0,ɔ
1775031396.244329,1814,0,ɔ
1775031396.2469969,2244,0,ɔ
1775031396.249716,2461,0,ɔ
1775031396.2562392,2207,0,ɔ
1775031396.2582579,1567,0,ɔ
1775031396.260888,1522,0,ɔ
1775031396.261733,1920,0,ɔ
1775031396.265593,2378,0,ɔ
1775031396.2682052,2372,0,ɔ
1775031396.270881,1877,0,ɔ
1775031396.2735202,1502,0,ɔ
1775031396.279101,1752,0,ɔ
1775031396.2813818,2207,0,ɔ
1775031396.283138,2398,0,ɔ
1775031396.285789,2224,0,ɔ
1775031396.2885408,1661,0,ɔ
1775031396.291509,1534,0,ɔ
1775031396.294493,1931,0,ɔ
1775031396.297489,2375,0,ɔ
1775031396.304367,2417,0,ɔ
1775031396.3065028,2030,0,ɔ
1775031396.3069131,1441,0,ɔ
1775031396.311392,1761,0,ɔ
1775031396.3131552,2147,0,ɔ
1775031396.31586,2397,0,ɔ
1775031396.3186738,2265,0,ɔ
1775031396.321553,1639,0,ɔ
1775031396.327299,1508,0,ɔ
1775031396.328917,1895,0,ɔ
1775031396.3307872,2284,0,ɔ
1775031396.334191,2334,0,ɔ
1775031396.3370612,2030,0,ɔ
1775031396.339711,1485,0,ɔ
1775031396.342479,1771,0,ɔ
1775031396.347589,2186,0,ɔ
1775031396.350854,2370,0,ɔ
1775031396.352382,2290,0,ɔ
1775031396.356694,1793,0,ɔ
1775031396.358419,1556,0,ɔ
1775031396.361143,1927,0,ɔ
1775031396.363792,2247,0,ɔ
1775031396.3667681,2339,0,ɔ
1775031396.370446,2158,0,ɔ
1775031396.372579,1492,0,ɔ
1775031396.376832,1624,0,ɔ
1775031396.379044,1984,0,ɔ
1775031396.381794,2376,0,ɔ
1775031396.384515,2400,0,ɔ
1775031396.3875148,1848,0,ɔ
1775031396.391905,1440,0,ɔ
1775031396.3935418,1783,0,ɔ
1775031396.397622,2294,0,ɔ
1775031396.399711,2408,0,ɔ
1775031396.402473,2137,0,ɔ
1775031396.405486,1580,0,ɔ
1775031396.4084768,1534,0,ɔ
1775031396.412717,2059,0,ɔ
1775031396.415541,2468,0,ɔ
1775031396.417666,2326,0,ɔ
1775031396.42084,1968,0,ɔ
1775031396.4235141,1503,0,ɔ
1775031396.4265091,1747,0,ɔ
1775031396.4295082,2208,0,ɔ
1775031396.4337862,2414,0,ɔ
1775031396.435912,2244,0,ɔ
1775031396.43991,1588,0,ɔ
1775031396.4421692,1526,0,ɔ
1775031396.444962,2019,0,ɔ
1775031396.447523,2359,0,ɔ
1775031396.450497,2407,0,ɔ
1775031396.455633,1983,0,ɔ
1775031396.457952,1460,0,ɔ
1775031396.459641,1736,0,ɔ
1775031396.4630668,2107,0,ɔ
1775031396.4657001,2448,0,ɔ
1775031396.4684649,2212,0,ɔ
1775031396.4713862,1654,0,ɔ
1775031396.475997,1466,0,ɔ
1775031396.477918,1967,0,ɔ
1775031396.48211,2314,0,ɔ
1775031396.484268,2385,0,ɔ
1775031396.486957,2083,0,ɔ
1775031396.489512,1584,0,ɔ
1775031396.492393,1721,0,ɔ
1775031396.497621,2044,0,ɔ
1775031396.499048,2329,0,ɔ
1775031396.505218,2268,0,ɔ
1775031396.50528,1756,0,ɔ
1775031396.5073578,1530,0,ɔ
1775031396.510348,1888,0,ɔ
1775031396.5133529,2228,0,ɔ
1775031396.518086,2363,0,ɔ
1775031396.521728,2104,0,ɔ
1775031396.5232158,1587,0,ɔ
1775031396.5274932,1686,0,ɔ
1775031396.5291579,2121,0,ɔ
1775031396.5317671,2310,0,ɔ
1775031396.534494,2263,0,ɔ
1775031396.537353,1865,0,ɔ
1775031396.5417511,1526,0,ɔ
1775031396.5452101,1792,0,ɔ
1775031396.548196,2210,0,ɔ
1775031396.550404,2409,0,ɔ
1775031396.5523798,2130,0,ɔ
1775031396.555383,1578,0,ɔ
1775031396.558392,1640,0,ɔ
1775031396.5632179,1999,0,ɔ
1775031396.565204,2333,0,ɔ
1775031396.568044,2324,0,ɔ
1775031396.571316,1936,0,ɔ
1775031396.574064,1495,0,ɔ
1775031396.576502,1755,0,ɔ
1775031396.579377,2158,0,ɔ
1775031396.5842922,2387,0,ɔ
1775031396.5860229,2268,0,ɔ
1775031396.589074,1639,0,ɔ
1775031396.59393,1562,0,ɔ
1775031396.594356,1957,0,ɔ
1775031396.597368,2292,0,ɔ
1775031396.6009831,2346,0,ɔ
1775031396.605817,2010,0,ɔ
1775031396.606498,1532,0,ɔ
1775031396.6105542,1763,0,ɔ
1775031396.614031,2106,0,ɔ
1775031396.615547,2330,0,ɔ
1775031396.6184,2277,0,ɔ
1775031396.621419,1771,0,ɔ
1775031396.627352,1577,0,ɔ
1775031396.6274052,1933,0,ɔ
1775031396.630718,2247,0,ɔ
1775031396.633406,2341,0,ɔ
1775031396.6370182,2011,0,ɔ
1775031396.6395688,1518,0,ɔ
1775031396.642381,1743,0,ɔ
1775031396.647984,2221,0,ɔ
1775031396.648387,2339,0,ɔ
1775031396.651654,2308,0,ɔ
1775031396.65629,1731,0,ɔ
1775031396.657804,1489,0,ɔ
1775031396.660442,1903,0,ɔ
1775031396.663383,2245,0,ɔ
1775031396.6693819,2330,0,ɔ
1775031396.670357,2016,0,ɔ
1775031396.67245,1602,0,ɔ
1775031396.6754072,1689,0,ɔ
1775031396.678981,2104,0,ɔ
1775031396.681505,2375,0,ɔ
1775031396.6843672,2203,0,ɔ
1775031396.6905332,1855,0,ɔ
1775031396.690608,1562,0,ɔ
1775031396.694125,1910,0,ɔ
1775031396.698538,2081,0,ɔ
1775031396.700044,2236,0,ɔ
1775031396.702594,2228,0,ɔ
1775031396.7052648,1517,0,ɔ
1775031396.7120728,1765,0,ɔ
1775031396.712152,2069,0,ɔ
1775031396.714359,2313,0,ɔ
1775031396.7175272,2428,0,ɔ
1775031396.72117,2009,0,ɔ
1775031396.723732,1581,0,ɔ
1775031396.726301,1665,0,ɔ
1775031396.7322838,2067,0,ɔ
1775031396.732987,2407,0,ɔ
1775031396.736052,2300,0,ɔ
1775031396.7387269,1693,0,ɔ
1775031396.742423,1545,0,ɔ
1775031396.744256,1905,0,ɔ
1775031396.747232,2232,0,ɔ
1775031396.753695,2427,0,ɔ
1775031396.754396,2059,0,ɔ
1775031396.7574642,1476,0,ɔ
1775031396.76025,1867,0,ɔ
1775031396.762356,2114,0,ɔ
1775031396.765274,2337,0,ɔ
1775031396.7682528,2199,0,ɔ
1775031396.771313,1617,0,ɔ
1775031396.774681,1643,0,ɔ
1775031396.778275,1997,0,ɔ
1775031396.780797,2413,0,ɔ
1775031396.78435,2338,0,ɔ
1775031396.786921,2019,0,ɔ
1775031396.789461,1571,0,ɔ
1775031396.7922518,1702,0,ɔ
1775031396.796385,1964,0,ɔ
1775031396.798439,2200,0,ɔ
1775031396.801412,2433,0,ɔ
1775031396.8044631,1712,0,ɔ
1775031396.8072371,1387,0,ɔ
1775031396.810257,1747,0,ɔ
1775031396.8132238,2328,0,ɔ
1775031396.8165,2433,0,ɔ
1775031396.8198621,2135,0,ɔ
1775031396.822586,1680,0,ɔ
1775031396.826263,1710,0,ɔ
1775031396.828827,2096,0,ɔ
1775031396.8313909,2298,0,ɔ
1775031396.834257,2243,0,ɔ
1775031396.838122,1774,0,ɔ
1775031396.8418581,1491,0,ɔ
1775031396.8437219,1734,0,ɔ
1775031396.8470762,2136,0,ɔ
1775031396.84967,2445,0,ɔ
1775031396.852271,2214,0,ɔ
1775031396.855256,1528,0,ɔ
1775031396.8611991,1577,0,ɔ
1775031396.861551,2037,0,ɔ
1775031396.865226,2370,0,ɔ
1775031396.869473,2317,0,ɔ
1775031396.8713431,1819,0,ɔ
1775031396.873939,1429,0,ɔ
1775031396.8765922,1734,0,ɔ
1775031396.8792572,2211,0,ɔ
1775031396.8838148,2473,0,ɔ
1775031396.885529,2239,0,ɔ
1775031396.889635,1598,0,ɔ
1775031396.891915,1586,0,ɔ
1775031396.894637,2166,0,ɔ
1775031396.897391,2371,0,ɔ
1775031396.900251,2323,0,ɔ
1775031396.9050088,1917,0,ɔ
1775031396.9071739,1539,0,ɔ
1775031396.9095318,1640,0,ɔ
1775031396.913389,2016,0,ɔ
1775031396.915251,2393,0,ɔ
1775031396.9182332,2312,0,ɔ
1775031396.92126,1617,0,ɔ
1775031396.927377,1480,0,ɔ
1775031396.927798,1903,0,ɔ
1775031396.931395,2338,0,ɔ
1775031396.93394,2619,0,ɔ
1775031396.936157,2089,0,ɔ
1775031396.939137,1517,0,ɔ
1775031396.9421282,1570,0,ɔ
1775031396.945771,2033,0,ɔ
1775031396.949805,2494,0,ɔ
1775031396.951639,2308,0,ɔ
1775031396.954456,1604,0,ɔ
1775031396.958199,1532,0,ɔ
1775031396.960154,1862,0,ɔ
1775031396.963134,2283,0,ɔ
1775031396.9661481,2487,0,ɔ
1775031396.972068,2109,0,ɔ
1775031396.9725199,1533,0,ɔ
1775031396.975903,1561,0,ɔ
1775031396.978901,2014,0,ɔ
1775031396.981228,2509,0,ɔ
1775031396.984134,2300,0,ɔ
1775031396.9870982,1763,0,ɔ
1775031396.990141,1498,0,ɔ
1775031396.994977,1954,0,ɔ
1775031396.996671,2253,0,ɔ
1775031396.999458,2419,0,ɔ
1775031397.0032032,2169,0,ɔ
1775031397.005121,1523,0,ɔ
1775031397.008798,1506,0,ɔ
1775031397.011338,2006,0,ɔ
1775031397.0166788,2420,0,ɔ
1775031397.017805,2353,0,ɔ
1775031397.020513,1918,0,ɔ
1775031397.023304,1442,0,ɔ
1775031397.026973,1721,0,ɔ
1775031397.029539,2069,0,ɔ
1775031397.032116,2446,0,ɔ
1775031397.035181,2422,0,ɔ
1775031397.038448,1610,0,ɔ
1775031397.0422,1442,0,ɔ
1775031397.044547,1909,0,ɔ
1775031397.048331,2361,0,ɔ
1775031397.050127,2453,0,ɔ
1775031397.053128,2053,0,ɔ
1775031397.0592809,1426,0,ɔ
1775031397.059392,1699,0,ɔ
1775031397.062796,2146,0,ɔ
1775031397.0673,2368,0,ɔ
1775031397.0689049,2254,0,ɔ
1775031397.07145,1633,0,ɔ
1775031397.074108,1468,0,ɔ
1775031397.0797791,1995,0,ɔ
1775031397.080229,2366,0,ɔ
1775031397.083345,2470,0,ɔ
1775031397.087979,2091,0,ɔ
1775031397.089492,1420,0,ɔ
1775031397.092132,1635,0,ɔ
1775031397.0951161,2044,0,ɔ
1775031397.099972,2440,0,ɔ
1775031397.1023092,2365,0,ɔ
1775031397.1044621,1751,0,ɔ
1775031397.108733,1379,0,ɔ
1775031397.110367,1836,0,ɔ
1775031397.11312,2271,0,ɔ
1775031397.116127,2495,0,ɔ
1775031397.121491,2095,0,ɔ
1775031397.1221719,1549,0,ɔ
1775031397.125365,1672,0,ɔ
1775031397.129998,2053,0,ɔ
1775031397.131657,2399,0,ɔ
1775031397.134206,2315,0,ɔ
1775031397.137129,1804,0,ɔ
1775031397.143857,1468,0,ɔ
1775031397.143971,1850,0,ɔ
1775031397.14676,2277,0,ɔ
1775031397.1512918,2426,0,ɔ
1775031397.152823,2085,0,ɔ
1775031397.155392,1639,0,ɔ
1775031397.15813,1581,0,ɔ
1775031397.163624,1972,0,ɔ
1775031397.1642601,2355,0,ɔ
1775031397.167559,2344,0,ɔ
1775031397.171861,1989,0,ɔ
1775031397.1734269,1447,0,ɔ
1775031397.175999,1717,0,ɔ
1775031397.179649,2260,0,ɔ
1775031397.1841521,2468,0,ɔ
1775031397.1860569,2141,0,ɔ
1775031397.1900852,1652,0,ɔ
1775031397.192308,1582,0,ɔ
1775031397.194001,1971,0,ɔ
1775031397.197011,2279,0,ɔ
1775031397.199996,2335,0,ɔ
1775031397.205765,1903,0,ɔ
1775031397.206149,1500,0,ɔ
1775031397.2099898,1743,0,ɔ
1775031397.214439,2044,0,ɔ
1775031397.216148,2318,0,ɔ
1775031397.218706,2379,0,ɔ
1775031397.2212522,1780,0,ɔ
1775031397.22402,1547,0,ɔ
1775031397.227245,1939,0,ɔ
1775031397.230433,2338,0,ɔ
1775031397.235382,2420,0,ɔ
1775031397.2370079,1963,0,ɔ
1775031397.2395608,1446,0,ɔ
1775031397.242113,1654,0,ɔ
1775031397.244965,2108,0,ɔ
1775031397.248759,2422,0,ɔ
1775031397.2519429,2367,0,ɔ
1775031397.25399,1764,0,ɔ
1775031397.257547,1419,0,ɔ
1775031397.2603362,1868,0,ɔ
1775031397.2629938,2308,0,ɔ
1775031397.27005,2487,0,ɔ
1775031397.271569,2198,0,ɔ
1775031397.273161,1442,0,ɔ
1775031397.2763588,1460,0,ɔ
1775031397.278672,2031,0,ɔ
1775031397.281441,2410,0,ɔ
1775031397.284106,2444,0,ɔ
1775031397.286964,1891,0,ɔ
1775031397.293764,1491,0,ɔ
1775031397.2944682,1736,0,ɔ
1775031397.297638,2165,0,ɔ
1775031397.302606,2514,0,ɔ
1775031397.3027961,2282,0,ɔ
1775031397.3053691,1587,0,ɔ
1775031397.308016,1510,0,ɔ
1775031397.313498,1959,0,ɔ
1775031397.314503,2427,0,ɔ
1775031397.317086,2362,0,ɔ
1775031397.321833,1880,0,ɔ
1775031397.323529,1365,0,ɔ
1775031397.326078,1721,0,ɔ
1775031397.3289962,2161,0,ɔ
1775031397.332053,2513,0,ɔ
1775031397.335962,2296,0,ɔ
1775031397.339654,1642,0,ɔ
1775031397.3412359,1528,0,ɔ
1775031397.344396,2031,0,ɔ
1775031397.3471591,2305,0,ɔ
1775031397.350005,2430,0,ɔ
1775031397.3556669,1899,0,ɔ
1775031397.356024,1427,0,ɔ
1775031397.359433,1646,0,ɔ
1775031397.364199,2113,0,ɔ
1775031397.36608,2395,0,ɔ
1775031397.368345,2372,0,ɔ
1775031397.371059,1627,0,ɔ
1775031397.3739672,1497,0,ɔ
1775031397.378708,2027,0,ɔ
1775031397.380329,2370,0,ɔ
1775031397.383445,2393,0,ɔ
1775031397.387084,2036,0,ɔ
1775031397.388968,1477,0,ɔ
1775031397.3919969,1601,0,ɔ
1775031397.394963,2061,0,ɔ
1775031397.401443,2362,0,ɔ
1775031397.4030972,2347,0,ɔ
1775031397.4052448,1790,0,ɔ
1775031397.4076438,1488,0,ɔ
1775031397.409986,1826,0,ɔ
1775031397.412999,2217,0,ɔ
1775031397.415976,2459,0,ɔ
1775031397.418964,2177,0,ɔ
1775031397.4243898,1564,0,ɔ
1775031397.425088,1489,0,ɔ
1775031397.428824,1972,0,ɔ
1775031397.432425,2587,0,ɔ
1775031397.433978,2527,0,ɔ
1775031397.436912,1769,0,ɔ
1775031397.439876,1427,0,ɔ
1775031397.446343,1741,0,ɔ
1775031397.4467242,2132,0,ɔ
1775031397.450407,2534,0,ɔ
1775031397.4529479,2178,0,ɔ
1775031397.4552362,1636,0,ɔ
1775031397.45787,1473,0,ɔ
1775031397.460854,1979,0,ɔ
1775031397.46383,2461,0,ɔ
1775031397.4705842,2421,0,ɔ
1775031397.47135,1924,0,ɔ
1775031397.4743419,1462,0,ɔ
1775031397.476183,1673,0,ɔ
1775031397.4794712,2152,0,ɔ
1775031397.4820852,2330,0,ɔ
1775031397.484839,2244,0,ɔ
1775031397.4878678,1588,0,ɔ
1775031397.493591,1507,0,ɔ
1775031397.494953,1967,0,ɔ
1775031397.4978912,2453,0,ɔ
1775031397.50052,2431,0,ɔ
1775031397.50434,2019,0,ɔ
1775031397.505846,1591,0,ɔ
1775031397.508876,1645,0,ɔ
1775031397.5118358,2114,0,ɔ
1775031397.519122,2354,0,ɔ
1775031397.5203998,2216,0,ɔ
1775031397.521132,1814,0,ɔ
1775031397.526247,1471,0,ɔ
1775031397.527581,1819,0,ɔ
1775031397.530154,2258,0,ɔ
1775031397.532861,2462,0,ɔ
1775031397.535926,2106,0,ɔ
1775031397.5398889,1466,0,ɔ
1775031397.5421581,1687,0,ɔ
1775031397.545408,2144,0,ɔ
1775031397.550857,2432,0,ɔ
1775031397.551122,2309,0,ɔ
1775031397.553942,1836,0,ɔ
1775031397.556848,1380,0,ɔ
1775031397.563814,1736,0,ɔ
1775031397.564168,2354,0,ɔ
1775031397.566744,2350,0,ɔ
1775031397.571765,2220,0,ɔ
1775031397.5719838,1543,0,ɔ
1775031397.574843,1525,0,ɔ
1775031397.577846,2102,0,ɔ
1775031397.580836,2339,0,ɔ
1775031397.586234,2461,0,ɔ
1775031397.586922,1864,0,ɔ
1775031397.590764,1547,0,ɔ
1775031397.5942621,1839,0,ɔ
1775031397.596103,2131,0,ɔ
1775031397.59894,2361,0,ɔ
1775031397.601853,2310,0,ɔ
1775031397.608425,1515,0,ɔ
1775031397.60929,1677,0,ɔ
1775031397.612502,1937,0,ɔ
1775031397.617779,2348,0,ɔ
1775031397.619169,2503,0,ɔ
1775031397.620482,2007,0,ɔ
1775031397.6230521,1414,0,ɔ
1775031397.625893,1623,0,ɔ
1775031397.632388,2192,0,ɔ
1775031397.6361349,2436,0,ɔ
1775031397.63621,2333,0,ɔ
1775031397.6382341,1504,0,ɔ
1775031397.641431,1442,0,ɔ
1775031397.6442208,2002,0,ɔ
1775031397.646904,2211,0,ɔ
1775031397.649835,2481,0,ɔ
1775031397.654666,2156,0,ɔ
1775031397.656647,1475,0,ɔ
1775031397.66084,1650,0,ɔ
1775031397.663079,2040,0,ɔ
1775031397.6648698,2625,0,ɔ
1775031397.667825,2297,0,ɔ
1775031397.6708689,1497,0,ɔ
1775031397.6774552,1547,0,ɔ
1775031397.6777961,1943,0,ɔ
1775031397.680286,2252,0,ɔ
1775031397.683094,2510,0,ɔ
1775031397.686684,2110,0,ɔ
1775031397.689229,1572,0,ɔ
1775031397.6917691,1632,0,ɔ
1775031397.69806,1957,0,ɔ
1775031397.698448,2411,0,ɔ
1775031397.7017941,2652,0,ɔ
1775031397.704167,1587,0,ɔ
1775031397.7077131,1587,0,ɔ
1775031397.710347,1778,0,ɔ
1775031397.7128918,2257,0,ɔ
1775031397.719163,2500,0,ɔ
1775031397.719559,2221,0,ɔ
1775031397.722469,1486,0,ɔ
1775031397.726969,1502,0,ɔ
1775031397.7287118,2079,0,ɔ
1775031397.731255,2295,0,ɔ
1775031397.733797,2409,0,ɔ
1775031397.739912,1783,0,ɔ
1775031397.740322,1288,0,ɔ
1775031397.743758,1862,0,ɔ
1775031397.748126,2313,0,ɔ
1775031397.749952,2661,0,ɔ
1775031397.751713,2291,0,ɔ
1775031397.755296,1494,0,ɔ
1775031397.7611232,1423,0,ɔ
1775031397.761792,2040,0,ɔ
1775031397.76491,2479,0,ɔ
1775031397.767336,2266,0,ɔ
1775031397.7697768,1905,0,ɔ
1775031397.772704,1310,0,ɔ
1775031397.775747,1581,0,ɔ
1775031397.781932,2550,0,ɔ
1775031397.7823539,2499,0,ɔ
1775031397.785581,2179,0,ɔ
1775031397.7888708,1641,0,ɔ
1775031397.791074,1640,0,ɔ
1775031397.7937841,1984,0,ɔ
1775031397.7967691,2306,0,ɔ
1775031397.799721,2262,0,ɔ
1775031397.805038,2019,0,ɔ
1775031397.8068302,1346,0,ɔ
1775031397.8088682,1739,0,ɔ
1775031397.813209,2186,0,ɔ
1775031397.814823,2483,0,ɔ
1775031397.8177211,2422,0,ɔ
1775031397.820739,1555,0,ɔ
1775031397.8265102,1604,0,ɔ
1775031397.8268511,1936,0,ɔ
1775031397.829816,2197,0,ɔ
1775031397.834642,2446,0,ɔ
1775031397.836243,2108,0,ɔ
1775031397.838784,1480,0,ɔ
1775031397.841742,1672,0,ɔ
1775031397.847615,2061,0,ɔ
1775031397.8479948,2355,0,ɔ
1775031397.8510249,2405,0,ɔ
1775031397.855707,1759,0,ɔ
1775031397.857333,1468,0,ɔ
1775031397.85988,1841,0,ɔ
1775031397.8627388,2169,0,ɔ
1775031397.868521,2415,0,ɔ
1775031397.8693912,2168,0,ɔ
1775031397.872372,1553,0,ɔ
1775031397.8747861,1689,0,ɔ
1775031397.8785138,2030,0,ɔ
1775031397.881075,2399,0,ɔ
1775031397.883701,2384,0,ɔ
1775031397.889712,1776,0,ɔ
1775031397.890378,1459,0,ɔ
1775031397.894021,1716,0,ɔ
1775031397.898357,2232,0,ɔ
1775031397.899945,2487,0,ɔ
1775031397.901698,2290,0,ɔ
1775031397.904733,1551,0,ɔ
1775031397.907739,1498,0,ɔ
1775031397.910971,1966,0,ɔ
1775031397.914643,2395,0,ɔ
1775031397.917038,2353,0,ɔ
1775031397.9207711,1972,0,ɔ
1775031397.923327,1466,0,ɔ
1775031397.92588,1633,0,ɔ
1775031397.932023,2249,0,ɔ
1775031397.932707,2481,0,ɔ
1775031397.936049,2263,0,ɔ
1775031397.938474,1648,0,ɔ
1775031397.940773,1560,0,ɔ
1775031397.943713,1895,0,ɔ
1775031397.946733,2332,0,ɔ
1775031397.949704,2372,0,ɔ
1775031397.954357,1953,0,ɔ
1775031397.955989,1509,0,ɔ
1775031397.9591181,1744,0,ɔ
1775031397.962324,2160,0,ɔ
1775031397.965072,2375,0,ɔ
1775031397.967743,2339,0,ɔ
1775031397.970748,1762,0,ɔ
1775031397.9754019,1477,0,ɔ
1775031397.977204,1884,0,ɔ
1775031397.980054,2274,0,ɔ
1775031397.983392,2396,0,ɔ
1775031397.986109,2119,0,ɔ
1775031397.988658,1415,0,ɔ
1775031397.9915872,1606,0,ɔ
1775031397.9964879,2095,0,ɔ
1775031397.998261,2483,0,ɔ
1775031398.0024161,2375,0,ɔ
1775031398.0045812,1777,0,ɔ
1775031398.007168,1478,0,ɔ
1775031398.009722,1802,0,ɔ
1775031398.012589,2264,0,ɔ
1775031398.016864,2480,0,ɔ
1775031398.0189729,2119,0,ɔ
1775031398.021811,1652,0,ɔ
1775031398.025237,1571,0,ɔ
1775031398.027966,1971,0,ɔ
1775031398.0306098,2378,0,ɔ
1775031398.0336099,2399,0,ɔ
1775031398.038275,1836,0,ɔ
1775031398.040396,1445,0,ɔ
1775031398.044566,1736,0,ɔ
1775031398.0467572,2271,0,ɔ
1775031398.0486028,2447,0,ɔ
1775031398.0516212,2172,0,ɔ
1775031398.054595,1526,0,ɔ
1775031398.059823,1552,0,ɔ
1775031398.061383,2062,0,ɔ
1775031398.0642612,2366,0,ɔ
1775031398.067449,2489,0,ɔ
1775031398.070198,1891,0,ɔ
1775031398.072747,1450,0,ɔ
1775031398.07558,1768,0,ɔ
1775031398.080183,2158,0,ɔ
1775031398.086774,2379,0,ɔ
1775031398.089385,2308,0,ɔ
1775031398.089653,1687,0,ɔ
1775031398.09123,1456,0,ɔ
1775031398.0939362,1891,0,ɔ
1775031398.096596,2271,0,ɔ
1775031398.103034,2421,0,ɔ
1775031398.10373,2058,0,ɔ
1775031398.106771,1470,0,ɔ
1775031398.110038,1721,0,ɔ
1775031398.11251,2113,0,ɔ
1775031398.1145952,2432,0,ɔ
1775031398.1175911,2317,0,ɔ
1775031398.1205919,1657,0,ɔ
1775031398.125473,1441,0,ɔ
1775031398.127636,1951,0,ɔ
1775031398.129771,2325,0,ɔ
1775031398.1341271,2403,0,ɔ
1775031398.135715,2085,0,ɔ
1775031398.1385899,1532,0,ɔ
1775031398.141589,1598,0,ɔ
1775031398.147378,2153,0,ɔ
1775031398.150296,2358,0,ɔ
1775031398.1535301,2325,0,ɔ
1775031398.155087,1734,0,ɔ
1775031398.158124,1511,0,ɔ
1775031398.1596942,1897,0,ɔ
1775031398.162591,2178,0,ɔ
1775031398.1655831,2402,0,ɔ
1775031398.1723819,2185,0,ɔ
1775031398.172572,1508,0,ɔ
1775031398.174793,1584,0,ɔ
1775031398.179553,2119,0,ɔ
1775031398.1822772,2417,0,ɔ
1775031398.1839318,2326,0,ɔ
1775031398.186608,1873,0,ɔ
1775031398.1896188,1452,0,ɔ
1775031398.192634,1828,0,ɔ
1775031398.196639,2208,0,ɔ
1775031398.2007098,2347,0,ɔ
1775031398.2036989,2102,0,ɔ
1775031398.2061079,1573,0,ɔ
1775031398.207934,1589,0,ɔ
1775031398.210582,1966,0,ɔ
1775031398.213591,2453,0,ɔ
1775031398.22063,2376,0,ɔ
1775031398.2226582,1992,0,ɔ
1775031398.222827,1431,0,ɔ
1775031398.227299,1731,0,ɔ
1775031398.2298932,2215,0,ɔ
1775031398.231613,2391,0,ɔ
1775031398.2344809,2248,0,ɔ
1775031398.238234,1568,0,ɔ
1775031398.24466,1521,0,ɔ
1775031398.2462678,1952,0,ɔ
1775031398.248596,2390,0,ɔ
1775031398.251348,2401,0,ɔ
1775031398.254171,2077,0,ɔ
1775031398.25578,1482,0,ɔ
1775031398.258475,1592,0,ɔ
1775031398.261465,2091,0,ɔ
1775031398.268366,2381,0,ɔ
1775031398.270725,2354,0,ɔ
1775031398.271001,1610,0,ɔ
1775031398.2754261,1425,0,ɔ
1775031398.278244,2025,0,ɔ
1775031398.2801778,2245,0,ɔ
1775031398.282816,2436,0,ɔ
1775031398.289839,2111,0,ɔ
1775031398.292564,1529,0,ɔ
1775031398.2935512,1674,0,ɔ
1775031398.298178,2078,0,ɔ
1775031398.298838,2380,0,ɔ
1775031398.300471,2424,0,ɔ
1775031398.303475,1747,0,ɔ
1775031398.3064718,1503,0,ɔ
1775031398.3142662,1728,0,ɔ
1775031398.3144162,2243,0,ɔ
1775031398.3167622,2398,0,ɔ
1775031398.3191419,2136,0,ɔ
1775031398.321694,1620,0,ɔ
1775031398.324573,1594,0,ɔ
1775031398.3274581,2038,0,ɔ
1775031398.3304791,2373,0,ɔ
1775031398.33534,2428,0,ɔ
1775031398.337535,1895,0,ɔ
1775031398.3399758,1425,0,ɔ
1775031398.344079,1766,0,ɔ
1775031398.3457532,2239,0,ɔ
1775031398.348487,2399,0,ɔ
1775031398.351437,2215,0,ɔ
1775031398.35686,1595,0,ɔ
1775031398.3575091,1517,0,ɔ
1775031398.360748,2044,0,ɔ
1775031398.365613,2376,0,ɔ
1775031398.366966,2385,0,ɔ
1775031398.369521,1942,0,ɔ
1775031398.3724868,1491,0,ɔ
1775031398.3787572,1726,0,ɔ
1775031398.378914,2110,0,ɔ
1775031398.382829,2355,0,ɔ
1775031398.3849652,2379,0,ɔ
1775031398.387491,1668,0,ɔ
1775031398.390477,1470,0,ɔ
1775031398.393458,1922,0,ɔ
1775031398.396456,2342,0,ɔ
1775031398.400984,2387,0,ɔ
1775031398.4030578,2039,0,ɔ
1775031398.406152,1511,0,ɔ
1775031398.4095402,1698,0,ɔ
1775031398.4114492,2085,0,ɔ
1775031398.414446,2406,0,ɔ
1775031398.41747,2299,0,ɔ
1775031398.423809,1727,0,ɔ
1775031398.425173,1335,0,ɔ
1775031398.4282508,1999,0,ɔ
1775031398.431015,2293,0,ɔ
1775031398.4334269,2466,0,ɔ
1775031398.435471,2026,0,ɔ
1775031398.438468,1423,0,ɔ
1775031398.441462,1549,0,ɔ
1775031398.447281,2282,0,ɔ
1775031398.448375,2368,0,ɔ
1775031398.451357,2386,0,ɔ
1775031398.456587,1823,0,ɔ
1775031398.456931,1420,0,ɔ
1775031398.459842,1843,0,ɔ
1775031398.462442,2182,0,ɔ
1775031398.4654589,2451,0,ɔ
1775031398.470693,2256,0,ɔ
1775031398.4729888,1511,0,ɔ
1775031398.476088,1548,0,ɔ
1775031398.480143,2006,0,ɔ
1775031398.4807968,2371,0,ɔ
1775031398.483545,2341,0,ɔ
1775031398.48638,1888,0,ɔ
1775031398.4893599,1542,0,ɔ
1775031398.495272,1755,0,ɔ
1775031398.495718,2182,0,ɔ
1775031398.498417,2322,0,ɔ
1775031398.5033119,2223,0,ɔ
1775031398.5049548,1707,0,ɔ
1775031398.5075881,1525,0,ɔ
1775031398.510352,1905,0,ɔ
1775031398.516973,2410,0,ɔ
1775031398.518309,2405,0,ɔ
1775031398.521431,1989,0,ɔ
1775031398.5265222,1457,0,ɔ
1775031398.526721,1689,0,ɔ
1775031398.5284219,2181,0,ɔ
1775031398.531349,2358,0,ɔ
1775031398.534341,2318,0,ɔ
1775031398.541323,1768,0,ɔ
1775031398.5422761,1367,0,ɔ
1775031398.544885,1945,0,ɔ
1775031398.5500412,2334,0,ɔ
1775031398.550336,2441,0,ɔ
1775031398.552347,2121,0,ɔ
1775031398.5553348,1449,0,ɔ
1775031398.5588381,1644,0,ɔ
1775031398.563318,2109,0,ɔ
1775031398.565664,2368,0,ɔ
1775031398.569141,2218,0,ɔ
1775031398.572702,1793,0,ɔ
1775031398.574388,1527,0,ɔ
1775031398.577117,1885,0,ɔ
1775031398.5796502,2231,0,ɔ
1775031398.582328,2390,0,ɔ
1775031398.5882711,2104,0,ɔ
1775031398.5885131,1522,0,ɔ
1775031398.592895,1738,0,ɔ
1775031398.5970309,2024,0,ɔ
1775031398.597325,2298,0,ɔ
1775031398.600352,2297,0,ɔ
1775031398.6033359,1862,0,ɔ
1775031398.609659,1513,0,ɔ
1775031398.610386,1791,0,ɔ
1775031398.614173,2221,0,ɔ
1775031398.6161768,2438,0,ɔ
1775031398.618688,2215,0,ɔ
1775031398.621516,1563,0,ɔ
1775031398.624344,1570,0,ɔ
1775031398.627331,2045,0,ɔ
1775031398.632336,2290,0,ɔ
1775031398.633835,2387,0,ɔ
1775031398.637824,1916,0,ɔ
1775031398.6401322,1459,0,ɔ
1775031398.64286,1781,0,ɔ
1775031398.6454122,2182,0,ɔ
1775031398.64835,2528,0,ɔ
1775031398.653287,2288,0,ɔ
1775031398.6549919,1556,0,ɔ
1775031398.6589608,1520,0,ɔ
1775031398.661194,1991,0,ɔ
1775031398.663884,2319,0,ɔ
1775031398.666425,2359,0,ɔ
1775031398.669356,2006,0,ɔ
1775031398.673567,1445,0,ɔ
1775031398.67556,1633,0,ɔ
1775031398.6796842,2182,0,ɔ
1775031398.6819441,2456,0,ɔ
1775031398.6847181,2238,0,ɔ
1775031398.687386,1724,0,ɔ
1775031398.690322,1618,0,ɔ
1775031398.694895,1926,0,ɔ
1775031398.697021,2302,0,ɔ
1775031398.7009542,2381,0,ɔ
1775031398.703397,1960,0,ɔ
1775031398.705343,1424,0,ɔ
1775031398.7083352,1636,0,ɔ
1775031398.711352,2095,0,ɔ
1775031398.71606,2447,0,ɔ
1775031398.717918,2359,0,ɔ
1775031398.721911,1804,0,ɔ
1775031398.724117,1573,0,ɔ
1775031398.7268522,1886,0,ɔ
1775031398.729407,2246,0,ɔ
1775031398.7324748,2408,0,ɔ
1775031398.737034,2097,0,ɔ
1775031398.739419,1454,0,ɔ
1775031398.741589,1549,0,ɔ
1775031398.74584,2028,0,ɔ
1775031398.747413,2420,0,ɔ
1775031398.750206,2361,0,ɔ
1775031398.753234,1801,0,ɔ
1775031398.758401,1580,0,ɔ
1775031398.760458,1975,0,ɔ
1775031398.763171,2217,0,ɔ
1775031398.767057,2406,0,ɔ
1775031398.768611,2088,0,ɔ
1775031398.771225,1641,0,ɔ
1775031398.774243,1589,0,ɔ
1775031398.780482,1982,0,ɔ
1775031398.780904,2290,0,ɔ
1775031398.783746,2363,0,ɔ
1775031398.7864692,1866,0,ɔ
1775031398.7901618,1346,0,ɔ
1775031398.7927098,1752,0,ɔ
1775031398.795244,2318,0,ɔ
1775031398.801415,2457,0,ɔ
1775031398.8023849,2306,0,ɔ
1775031398.804827,1700,0,ɔ
1775031398.807991,1585,0,ɔ
1775031398.81031,2016,0,ɔ
1775031398.813227,2326,0,ɔ
1775031398.8161962,2273,0,ɔ
1775031398.8192031,1914,0,ɔ
1775031398.823613,1438,0,ɔ
1775031398.82538,1572,0,ɔ
1775031398.829689,2072,0,ɔ
1775031398.832008,2456,0,ɔ
1775031398.834753,2401,0,ɔ
1775031398.837306,1711,0,ɔ
1775031398.840229,1529,0,ɔ
1775031398.8447511,2012,0,ɔ
1775031398.8467112,2333,0,ɔ
1775031398.8497422,2264,0,ɔ
1775031398.852913,1974,0,ɔ
1775031398.855619,1530,0,ɔ
1775031398.858273,1642,0,ɔ
1775031398.861229,2115,0,ɔ
1775031398.865665,2412,0,ɔ
1775031398.8680162,2394,0,ɔ
1775031398.872088,1823,0,ɔ
1775031398.874505,1496,0,ɔ
1775031398.87622,1803,0,ɔ
1775031398.879231,2276,0,ɔ
1775031398.8822138,2363,0,ɔ
1775031398.887004,2019,0,ɔ
1775031398.889128,1515,0,ɔ
1775031398.892131,1623,0,ɔ
1775031398.8956501,2133,0,ɔ
1775031398.897184,2423,0,ɔ
1775031398.9002292,2361,0,ɔ
1775031398.903192,1851,0,ɔ
1775031398.908289,1515,0,ɔ
1775031398.910332,1821,0,ɔ
1775031398.913277,2228,0,ɔ
1775031398.916408,2325,0,ɔ
1775031398.918228,2089,0,ɔ
1775031398.921232,1525,0,ɔ
1775031398.924223,1612,0,ɔ
1775031398.929201,2123,0,ɔ
1775031398.931071,2373,0,ɔ
1775031398.934011,2370,0,ɔ
1775031398.937088,1893,0,ɔ
