timestamp,sensor_value,label
1770627091.536913,3141,a
1770627091.552788,3147,a
1770627091.557695,3145,a
1770627091.557854,3146,a
1770627091.557881,3147,a
1770627091.5579178,3146,a
1770627091.558072,3140,a
1770627091.5581708,3146,a
1770627091.558323,3146,a
1770627091.5583942,3149,a
1770627091.558481,3145,a
1770627091.5585222,3149,a
1770627091.558663,3140,a
1770627091.5588312,3142,a
1770627091.559146,3145,a
1770627091.559286,3148,a
1770627091.559971,3142,a
1770627091.5600169,3144,a
1770627091.560042,3143,a
1770627091.560113,3143,a
1770627091.56017,3143,a
1770627091.560323,3144,a
1770627091.560405,3143,a
1770627091.560427,3143,a
1770627091.560549,3149,a
1770627091.560617,3147,a
1770627091.5606458,3147,a
1770627091.56067,3145,a
1770627091.560693,3140,a
1770627091.560715,3144,a
1770627091.5607371,3144,a
1770627091.56079,3139,a
1770627091.560962,3144,a
1770627091.561016,3147,a
1770627091.561125,3142,a
1770627091.561149,3146,a
1770627091.561171,3153,a
1770627091.561193,3147,a
1770627091.561214,3145,a
1770627091.561235,3154,a
1770627091.5612988,3144,a
1770627091.561323,3146,a
1770627091.561384,3153,a
1770627091.561408,3147,a
1770627091.56143,3152,a
1770627091.561453,3145,a
1770627091.561474,3143,a
1770627091.561601,3144,a
1770627091.561677,3144,a
1770627091.561737,3145,a
1770627091.5618072,3147,a
1770627091.561835,3146,a
1770627091.561856,3141,a
1770627091.561878,3144,a
1770627091.561899,3146,a
1770627091.56192,3142,a
1770627091.5619998,3144,a
1770627091.562077,3151,a
1770627091.56213,3143,a
1770627091.562156,3144,a
1770627091.5622551,3147,a
1770627091.562336,3146,a
1770627091.5623958,3141,a
1770627091.56245,3141,a
1770627091.562502,3142,a
1770627091.5625558,3147,a
1770627091.5626082,3144,a
1770627091.562767,3144,a
1770627091.562809,3148,a
1770627091.562836,3140,a
1770627091.5628622,3149,a
1770627091.5628831,3149,a
1770627091.562906,3143,a
1770627091.562998,3145,a
1770627091.563087,3150,a
1770627091.563133,3139,a
1770627091.563155,3145,a
1770627091.563179,3152,a
1770627091.563201,3140,a
1770627091.563266,3149,a
1770627091.563308,3149,a
1770627091.56333,3142,a
1770627091.563371,3149,a
1770627091.563393,3146,a
1770627091.563415,3141,a
1770627091.563437,3144,a
1770627091.563461,3149,a
1770627091.5634828,3145,a
1770627091.563506,3144,a
1770627091.56353,3149,a
1770627091.563552,3146,a
1770627091.563585,3144,a
1770627091.563648,3148,a
1770627091.5636742,3143,a
1770627091.5636969,3149,a
1770627091.5637279,3148,a
1770627091.563769,3142,a
1770627091.563793,3143,a
1770627091.5638149,3148,a
1770627091.563838,3147,a
1770627091.56386,3143,a
1770627091.56388,3147,a
1770627091.564021,3145,a
1770627091.564117,3141,a
1770627091.564239,3143,a
1770627091.5643032,3144,a
1770627091.5643678,3146,a
1770627091.56447,3148,a
1770627091.5644958,3144,a
1770627091.564519,3148,a
1770627091.564626,3147,a
1770627091.564715,3146,a
1770627091.5647418,3145,a
1770627091.564791,3148,a
1770627091.564815,3141,a
1770627091.564836,3146,a
1770627091.564857,3144,a
1770627091.564878,3147,a
1770627091.564912,3147,a
1770627091.564935,3141,a
1770627091.564956,3145,a
1770627091.564977,3144,a
1770627091.5649972,3144,a
1770627091.565017,3147,a
1770627091.5650408,3146,a
1770627091.5650718,3140,a
1770627091.5650969,3143,a
1770627091.565117,3146,a
1770627091.565145,3137,a
1770627091.565205,3141,a
1770627091.565229,3146,a
1770627091.565263,31403139,a
1770627091.5652852,3141,a
1770627091.565307,3146,a
1770627091.5653272,3148,a
1770627091.565349,3147,a
1770627091.5653892,3146,a
1770627091.565425,3143,a
1770627091.5654678,3138,a
1770627091.565491,3147,a
1770627091.565512,3139,a
1770627091.565532,3142,a
1770627091.5655758,3143,a
1770627091.568081,3143,a
1770627091.580766,3140,a
1770627091.589987,3148,a
1770627091.600949,3146,a
1770627091.611949,3142,a
1770627091.622943,3144,a
1770627091.633909,3145,a
1770627091.645041,3139,a
1770627091.655933,3145,a
1770627091.666878,3141,a
1770627091.6778939,3139,a
1770627091.693951,3146,a
1770627091.700414,3141,a
1770627091.711021,3142,a
1770627091.721859,3145,a
1770627091.732851,3143,a
1770627091.743875,3142,a
1770627091.754839,3140,a
1770627091.765974,3140,a
1770627091.7768261,3139,a
1770627091.7878149,3146,a
1770627091.798857,3141,a
1770627091.80983,3143,a
1770627091.820804,3139,a
1770627091.831789,3146,a
1770627091.843536,3141,a
1770627091.8537998,3140,a
1770627091.86477,3142,a
1770627091.875796,3142,a
1770627091.8873951,3137,a
1770627091.8977962,3141,a
1770627091.9087338,3145,a
1770627091.919733,3140,a
1770627091.930731,3140,a
1770627091.941761,3142,a
1770627091.952702,3142,a
1770627091.963737,3140,a
1770627091.974566,3144,a
1770627091.985583,3140,a
1770627091.996701,3147,a
1770627092.0075421,3145,a
1770627092.027334,3146,a
1770627092.029857,3142,a
1770627092.0405319,3144,a
1770627092.051591,3140,a
1770627092.062552,3142,a
1770627092.0735319,3146,a
1770627092.0844958,3137,a
1770627092.0955331,3140,a
1770627092.10653,3147,a
1770627092.1175208,3139,a
1770627092.128489,3142,a
1770627092.139476,3148,a
1770627092.1504588,3141,a
1770627092.161495,3143,a
1770627092.172483,3142,a
1770627092.183486,3139,a
1770627092.1944509,3140,a
1770627092.247997,3146,a
1770627092.248193,3145,a
1770627092.248231,3143,a
1770627092.248256,3142,a
1770627092.253897,3142,a
1770627092.261346,3138,a
1770627092.27933,3143,a
1770627092.285547,3144,a
1770627092.298762,3143,a
1770627092.3058949,3140,a
1770627092.31542,3142,a
1770627092.3263412,3143,a
1770627092.33735,3138,a
1770627092.348334,3140,a
1770627092.359339,3143,a
1770627092.370233,3139,a
1770627092.381217,3140,a
1770627092.392229,3140,a
1770627092.403237,3141,a
1770627092.414216,3142,a
1770627092.425227,3144,a
1770627092.4361868,3135,a
1770627092.4471638,3143,a
1770627092.458168,3144,a
1770627092.469174,3143,a
1770627092.4801412,3140,a
1770627092.491167,3147,a
1770627092.5025222,3145,a
1770627092.513102,3137,a
1770627092.524081,3145,a
1770627092.5351381,3147,a
1770627092.546062,3143,a
1770627092.5571048,3145,a
1770627092.568139,3143,a
1770627092.5791,3138,a
1770627092.590063,3147,a
1770627092.601821,3141,a
1770627092.612025,3147,a
1770627092.6230478,3145,a
1770627092.634021,3142,a
1770627092.6450508,3140,a
1770627092.6560068,3142,a
1770627092.6669812,3140,a
1770627092.677973,3144,a
1770627092.6888802,3141,a
1770627092.6998742,3142,a
1770627092.710918,3137,a
1770627092.722532,3143,a
1770627092.732856,3137,a
1770627092.743825,3142,a
1770627092.7548852,3144,a
1770627092.7658591,3146,a
1770627092.776854,3143,a
1770627092.787839,3138,a
1770627092.798831,3146,a
1770627092.809796,3144,a
1770627092.8207748,3140,a
1770627092.831813,3144,a
1770627092.842795,3147,a
1770627092.853798,3138,a
1770627092.86482,3144,a
1770627092.875735,3146,a
1770627092.886764,3136,a
1770627092.897728,3139,a
1770627092.90871,3144,a
1770627092.9197109,3141,a
1770627092.9307039,3143,a
1770627092.942326,3143,a
1770627092.952697,3139,a
1770627092.963694,3145,a
1770627092.974713,3140,a
1770627092.985687,3140,a
1770627092.996706,3140,a
1770627093.007701,3146,a
1770627093.018659,3143,a
1770627093.029644,3146,a
1770627093.040674,3148,a
1770627093.0516381,3148,a
1770627093.062529,3138,a
1770627093.0734878,3142,a
1770627093.084494,3144,a
1770627093.095495,3145,a
1770627093.1064901,3147,a
1770627093.117486,3140,a
1770627093.128503,3143,a
1770627093.1395001,3146,a
1770627093.1504571,3144,a
1770627093.16231,3140,a
1770627093.172483,3139,a
1770627093.183434,3138,a
1770627093.194407,3143,a
1770627093.20544,3144,a
1770627093.216406,3144,a
1770627093.227396,3144,a
1770627093.2384279,3145,a
1770627093.2493818,3139,a
1770627093.260403,3137,a
1770627093.2713778,3139,a
1770627093.282527,3139,a
1770627093.293383,3141,a
1770627093.304396,3138,a
1770627093.315365,3139,a
1770627093.3263402,3143,a
1770627093.337373,3141,a
1770627093.348365,3144,a
1770627093.359359,3144,a
1770627093.370332,3141,a
1770627093.381442,3144,a
1770627093.392334,3143,a
1770627093.403168,3140,a
1770627093.4141738,3145,a
1770627093.4252071,3144,a
1770627093.436189,3137,a
1770627093.4471931,3143,a
1770627093.458187,3142,a
1770627093.469172,3140,a
1770627093.480126,3144,a
1770627093.491155,3146,a
1770627093.502142,3138,a
1770627093.5131571,3138,a
1770627093.524111,3139,a
1770627093.535101,3146,a
1770627093.54611,3141,a
1770627093.5570939,3146,a
1770627093.5680819,3144,a
1770627093.579093,3138,a
1770627093.5900931,3145,a
1770627093.601196,3142,a
1770627093.612048,3144,a
1770627093.6230268,3143,a
1770627093.634063,3140,a
1770627093.645057,3143,a
1770627093.656043,3147,a
1770627093.667007,3139,a
1770627093.678006,3142,a
1770627093.689027,3143,a
1770627093.700018,3137,a
1770627093.7108622,3142,a
1770627093.7218628,3147,a
1770627093.7328691,3141,a
1770627093.7438421,3135,a
1770627093.7548459,3141,a
1770627093.7658749,3144,a
1770627093.776834,3140,a
1770627093.788642,3145,a
1770627093.7989519,3142,a
1770627093.809796,3143,a
1770627093.821654,3139,a
1770627093.831823,3138,a
1770627093.842786,3142,a
1770627093.853804,3138,a
1770627093.864838,3144,a
1770627093.875764,3138,a
1770627093.886754,3140,a
1770627093.89779,3142,a
1770627093.908736,3139,a
1770627093.919779,3138,a
1770627093.930751,3141,a
1770627093.941777,3144,a
1770627093.952731,3137,a
1770627093.963707,3142,a
1770627093.974734,3141,a
1770627093.9857259,3136,a
1770627093.996744,3143,a
1770627094.007689,3142,a
1770627094.018728,3140,a
1770627094.029678,3139,a
1770627094.040561,3143,a
1770627094.0515368,3139,a
1770627094.0625439,3142,a
1770627094.073527,3142,a
1770627094.084542,3143,a
1770627094.095511,3141,a
1770627094.1065469,3143,a
1770627094.1175392,3144,a
1770627094.128545,3143,a
1770627094.13952,3140,a
1770627094.150487,3143,a
1770627094.161988,3148,a
1770627094.172468,3148,a
1770627094.183488,3142,a
1770627094.1944551,3142,a
1770627094.2054908,3147,a
1770627094.216487,3138,a
1770627094.2274508,3146,a
1770627094.238474,3142,a
1770627094.249463,3143,a
1770627094.260918,3136,a
1770627094.271452,3146,a
1770627094.282441,3138,a
1770627094.2934039,3140,a
1770627094.304415,3141,a
1770627094.315426,3138,a
1770627094.326381,3143,a
1770627094.337397,3143,a
1770627094.348373,3142,a
1770627094.359361,3144,a
1770627094.3703601,3142,a
1770627094.381376,3145,a
1770627094.392364,3137,a
1770627094.403327,3139,a
1770627094.414356,3143,a
1770627094.4253561,3145,a
1770627094.436362,3136,a
1770627094.447335,3143,a
1770627094.458328,3143,a
1770627094.469302,3137,a
1770627094.480335,3136,a
1770627094.491283,3145,a
1770627094.502153,3138,a
1770627094.513767,3143,a
1770627094.5241652,3140,a
1770627094.5351539,3138,a
1770627094.546158,3144,a
1770627094.557169,3147,a
1770627094.568117,3147,a
1770627094.579135,3142,a
1770627094.590147,3149,a
1770627094.6011221,3138,a
1770627094.612226,3142,a
1770627094.623091,3150,a
1770627094.634084,3146,a
1770627094.6450791,3143,a
1770627094.656058,3142,a
1770627094.667073,3146,a
1770627094.678061,3139,a
1770627094.689163,3144,a
1770627094.7000792,3141,a
1770627094.7110488,3141,a
1770627094.7220569,3145,a
1770627094.733075,3138,a
1770627094.744045,3135,a
1770627094.755071,3140,a
1770627094.766031,3142,a
1770627094.777,3139,a
1770627094.788016,3145,a
1770627094.79903,3138,a
1770627094.8100119,3142,a
1770627094.821426,3146,a
1770627094.831983,3144,a
1770627094.8429801,3140,a
1770627094.854007,3143,a
1770627094.865043,3141,a
1770627094.875825,3140,a
1770627094.8868842,3143,a
1770627094.897872,3144,a
1770627094.908813,3144,a
1770627094.919851,3137,a
1770627094.9308338,3146,a
1770627094.941801,3144,a
1770627094.952839,3139,a
1770627094.963819,3138,a
1770627094.974771,3145,a
1770627094.985825,3142,a
1770627094.996806,3143,a
1770627095.007786,3143,a
1770627095.018792,3136,a
1770627095.0297852,3144,a
1770627095.041164,3146,a
1770627095.051764,3139,a
1770627095.062759,3141,a
1770627095.073715,3148,a
1770627095.084717,3138,a
1770627095.095755,3145,a
1770627095.1067488,3141,a
1770627095.1176991,3141,a
1770627095.128698,3140,a
1770627095.139732,3147,a
1770627095.15071,3141,a
1770627095.1616871,3150,a
1770627095.172711,3144,a
1770627095.1836522,3139,a
1770627095.19467,3146,a
1770627095.205694,3147,a
1770627095.216644,3143,a
1770627095.227524,3143,a
1770627095.2385652,3143,a
1770627095.249536,3137,a
1770627095.2606661,3138,a
1770627095.271491,3138,a
1770627095.2825239,3137,a
1770627095.2934961,3134,a
1770627095.304499,3140,a
1770627095.315478,3142,a
1770627095.326459,3143,a
1770627095.337558,3140,a
1770627095.348447,3147,a
1770627095.36029,3138,a
1770627095.370495,3142,a
1770627095.381433,3142,a
1770627095.392451,3144,a
1770627095.403454,3141,a
1770627095.4144409,3145,a
1770627095.425445,3145,a
1770627095.436448,3137,a
1770627095.447435,3142,a
1770627095.4584472,3142,a
1770627095.4694211,3144,a
1770627095.4804502,3145,a
1770627095.4913762,3139,a
1770627095.502408,3135,a
1770627095.513237,3144,a
1770627095.524255,3146,a
1770627095.535271,3140,a
1770627095.546238,3137,a
1770627095.557235,3146,a
1770627095.568248,3141,a
1770627095.580123,3141,a
1770627095.5902221,3143,a
1770627095.6011899,3143,a
1770627095.612187,3141,a
1770627095.623185,3148,a
1770627095.63418,3140,a
1770627095.6452138,3143,a
1770627095.656223,3146,a
1770627095.667202,3144,a
1770627095.678165,3145,a
1770627095.689148,3148,a
1770627095.700788,3145,a
1770627095.711162,3144,a
1770627095.7221482,3143,a
1770627095.733135,3139,a
1770627095.744135,3140,a
1770627095.7551181,3144,a
1770627095.766112,3139,a
1770627095.7771058,3141,a
1770627095.788107,3145,a
1770627095.7989671,3146,a
1770627095.80996,3139,a
1770627095.820961,3141,a
1770627095.831939,3141,a
1770627095.8429499,3136,a
1770627095.8539882,3145,a
1770627095.864931,3139,a
1770627095.875953,3140,a
1770627095.886941,3141,a
1770627095.8979142,3144,a
1770627095.908907,3140,a
1770627095.920819,3136,a
1770627095.930912,3140,a
1770627095.9419038,3139,a
1770627095.9529269,3139,a
1770627095.963885,3137,a
1770627095.974905,3141,a
1770627095.985866,3136,a
1770627095.996873,3143,a
1770627096.007884,3147,a
1770627096.018889,3137,a
1770627096.029867,3144,a
1770627096.040849,3141,a
1770627096.051875,3134,a
1770627096.062827,3143,a
1770627096.073859,3142,a
1770627096.084861,3139,a
1770627096.0958238,3145,a
1770627096.1068559,3147,a
1770627096.1177258,3137,a
1770627096.128719,3137,a
1770627096.140623,3145,a
1770627096.150707,3143,a
1770627096.161713,3144,a
1770627096.172694,3145,a
1770627096.183703,3145,a
1770627096.194635,3142,a
1770627096.2056599,3146,a
1770627096.216678,3144,a
1770627096.2276192,3142,a
1770627096.2386382,3149,a
1770627096.2496588,3139,a
1770627096.260601,3139,a
1770627096.27163,3145,a
1770627096.28259,3139,a
1770627096.293597,3140,a
1770627096.3045828,3146,a
1770627096.3156102,3141,a
1770627096.326585,3138,a
1770627096.337562,3147,a
1770627096.3485959,3147,a
1770627096.3607,3142,a
1770627096.370593,3143,a
1770627096.381569,3141,a
1770627096.392541,3143,a
1770627096.403853,3136,a
1770627096.414531,3147,a
1770627096.425524,3138,a
1770627096.43654,3134,a
1770627096.447544,3142,a
1770627096.458514,3146,a
1770627096.469512,3139,a
1770627096.480553,3144,a
1770627096.491482,3140,a
1770627096.50253,3139,a
1770627096.513521,3140,a
1770627096.524466,3146,a
1770627096.535512,3137,a
1770627096.546416,3141,a
1770627096.557371,3151,a
1770627096.568377,3136,a
1770627096.579359,3142,a
1770627096.590357,3143,a
1770627096.6013272,3137,a
1770627096.6123462,3146,a
1770627096.623322,3149,a
1770627096.634326,3141,a
1770627096.645324,3143,a
1770627096.656321,3146,a
1770627096.667287,3140,a
1770627096.678276,3140,a
1770627096.6893198,3143,a
1770627096.700309,3147,a
1770627096.7112901,3148,a
1770627096.722293,3139,a
1770627096.7332852,3143,a
1770627096.74429,3144,a
1770627096.755278,3146,a
1770627096.766249,3136,a
1770627096.777262,3140,a
1770627096.788227,3141,a
1770627096.7997718,3139,a
1770627096.810247,3138,a
1770627096.821221,3145,a
1770627096.832222,3138,a
1770627096.843246,3139,a
1770627096.854192,3143,a
1770627096.865195,3141,a
1770627096.876182,3142,a
1770627096.88718,3144,a
1770627096.8982139,3142,a
1770627096.90925,3142,a
1770627096.920162,3142,a
1770627096.931168,3141,a
1770627096.942179,3138,a
1770627096.953033,3144,a
1770627096.964042,3144,a
1770627096.975044,3143,a
1770627096.9860501,3136,a
1770627096.9970188,3143,a
1770627097.00803,3139,a
1770627097.019011,3137,a
1770627097.030005,3145,a
1770627097.0410151,3145,a
1770627097.052005,3139,a
1770627097.062973,3144,a
1770627097.073975,3146,a
1770627097.084957,3139,a
1770627097.095946,3138,a
1770627097.106965,3147,a
1770627097.1179788,3132,a
1770627097.128991,3143,a
1770627097.140192,3144,a
1770627097.150953,3144,a
1770627097.161957,3137,a
1770627097.172958,3148,a
1770627097.1839402,3143,a
1770627097.194901,3139,a
1770627097.2059,3147,a
1770627097.216934,3142,a
1770627097.2279282,3143,a
1770627097.238925,3148,a
1770627097.249881,3138,a
1770627097.2608929,3145,a
1770627097.2719119,3143,a
1770627097.282892,3138,a
1770627097.2938502,3146,a
1770627097.3048918,3145,a
1770627097.3158898,3139,a
1770627097.326844,3144,a
1770627097.33775,3140,a
1770627097.3487601,3138,a
1770627097.360414,3140,a
1770627097.3707469,3145,a
1770627097.381737,3142,a
1770627097.392737,3142,a
1770627097.40371,3139,a
1770627097.414716,3141,a
1770627097.425719,3142,a
1770627097.4366841,3143,a
1770627097.447712,3137,a
1770627097.459413,3144,a
1770627097.469673,3136,a
1770627097.480654,3136,a
1770627097.491679,3139,a
1770627097.502655,3135,a
1770627097.513678,3140,a
1770627097.52465,3145,a
1770627097.5356202,3138,a
1770627097.546653,3145,a
1770627097.557639,3141,a
1770627097.568604,3138,a
1770627097.579602,3145,a
1770627097.590626,3139,a
1770627097.601621,3139,a
1770627097.612586,3140,a
1770627097.623583,3141,a
1770627097.634568,3138,a
1770627097.645602,3143,a
1770627097.6565702,3141,a
1770627097.667577,3136,a
1770627097.679636,3143,a
1770627097.689557,3148,a
1770627097.700545,3144,a
1770627097.711561,3140,a
1770627097.722559,3148,a
1770627097.733543,3143,a
1770627097.74457,3146,a
1770627097.75557,3143,a
1770627097.766444,3140,a
1770627097.777399,3147,a
1770627097.788429,3144,a
1770627097.79992,3139,a
1770627097.810393,3143,a
1770627097.821391,3143,a
1770627097.832383,3143,a
1770627097.8433778,3142,a
1770627097.85439,3137,a
1770627097.86537,3144,a
1770627097.8763509,3142,a
1770627097.8873842,3148,a
1770627097.898379,3142,a
1770627097.909334,3143,a
1770627097.920328,3139,a
1770627097.9313579,3139,a
1770627097.942343,3145,a
1770627097.953324,3144,a
1770627097.964331,3143,a
1770627097.975335,3145,a
1770627097.9862988,3138,a
1770627097.9973261,3142,a
1770627098.008281,3142,a
1770627098.019305,3140,a
1770627098.030321,3146,a
1770627098.041273,3141,a
1770627098.052311,3138,a
1770627098.0632782,3143,a
1770627098.0742881,3143,a
1770627098.08526,3140,a
1770627098.096233,3137,a
1770627098.107261,3142,a
1770627098.118262,3137,a
1770627098.1292312,3139,a
1770627098.140265,3141,a
1770627098.151098,3137,a
1770627098.162156,3142,a
1770627098.173121,3144,a
1770627098.184088,3144,a
1770627098.195078,3142,a
1770627098.206112,3152,a
1770627098.2170749,3146,a
1770627098.228106,3146,a
1770627098.239737,3147,a
1770627098.250062,3142,a
1770627098.261045,3149,a
1770627098.272057,3143,a
1770627098.28304,3140,a
1770627098.2940521,3143,a
1770627098.3050501,3145,a
1770627098.316055,3143,a
1770627098.327038,3140,a
1770627098.338037,3144,a
1770627098.3490229,3136,a
1770627098.36002,3142,a
1770627098.371043,3142,a
1770627098.382006,3138,a
1770627098.393017,3141,a
1770627098.4040031,3147,a
1770627098.41501,3144,a
1770627098.425964,3139,a
1770627098.437012,3142,a
1770627098.447995,3145,a
1770627098.459011,3143,a
1770627098.470004,3144,a
1770627098.480837,3140,a
1770627098.491822,3144,a
1770627098.5028322,3142,a
1770627098.513823,3144,a
1770627098.524826,3139,a
1770627098.535813,3137,a
1770627098.5468411,3143,a
1770627098.557796,3145,a
1770627098.56883,3138,a
1770627098.579817,3144,a
1770627098.590796,3142,a
1770627098.601791,3137,a
1770627098.612826,3142,a
1770627098.623774,3143,a
1770627098.634805,3138,a
1770627098.645796,3144,a
1770627098.6567428,3146,a
1770627098.667735,3142,a
1770627098.679571,3139,a
1770627098.689732,3143,a
1770627098.700764,3141,a
1770627098.711773,3138,a
1770627098.72272,3150,a
1770627098.7337248,3139,a
1770627098.744756,3142,a
1770627098.7557251,3148,a
1770627098.766738,3145,a
1770627098.778568,3140,a
1770627098.7887108,3143,a
1770627098.79972,3141,a
1770627098.8107252,3145,a
1770627098.821603,3141,a
1770627098.8325682,3141,a
1770627098.843585,3132,a
1770627098.854593,3142,a
1770627098.865587,3143,a
1770627098.8766139,3139,a
1770627098.887573,3138,a
1770627098.9019089,3139,a
1770627098.909526,3142,a
1770627098.9205241,3144,a
1770627098.9315672,3137,a
1770627098.942514,3139,a
1770627098.953519,3146,a
1770627098.964544,3139,a
1770627098.9755032,3145,a
1770627098.986529,3137,a
1770627098.997504,3145,a
1770627099.008502,3140,a
1770627099.019486,3138,a
1770627099.030474,3137,a
1770627099.041495,3147,a
1770627099.05246,3138,a
1770627099.063452,3144,a
1770627099.074495,3140,a
1770627099.085491,3135,a
1770627099.096443,3143,a
1770627099.107435,3147,a
1770627099.11856,3141,a
1770627099.129447,3139,a
1770627099.140446,3148,a
1770627099.151434,3139,a
1770627099.162433,3145,a
1770627099.173436,3144,a
1770627099.184452,3141,a
1770627099.195415,3142,a
1770627099.206538,3147,a
1770627099.2173178,3138,a
1770627099.228304,3142,a
1770627099.2393012,3147,a
1770627099.250298,3144,a
1770627099.261261,3141,a
1770627099.272244,3148,a
1770627099.283285,3142,a
1770627099.2942562,3143,a
1770627099.305241,3147,a
1770627099.316247,3142,a
1770627099.327213,3141,a
1770627099.3390899,3145,a
1770627099.3492029,3141,a
1770627099.360224,3142,a
1770627099.371218,3145,a
1770627099.3822138,3139,a
1770627099.393198,3139,a
1770627099.404193,3145,a
1770627099.415259,3139,a
1770627099.426584,3143,a
1770627099.437212,3144,a
1770627099.448203,3138,a
1770627099.459161,3145,a
1770627099.4702132,3140,a
1770627099.4811678,3142,a
1770627099.492206,3140,a
1770627099.50315,3137,a
1770627099.5141828,3145,a
1770627099.525173,3143,a
1770627099.536136,3142,a
1770627099.547169,3141,a
1770627099.5581179,3145,a
1770627099.5691462,3141,a
1770627099.5801358,3140,a
1770627099.591126,3141,a
1770627099.602148,3137,a
1770627099.613037,3144,a
1770627099.6239822,3139,a
1770627099.6350012,3141,a
1770627099.646025,3140,a
1770627099.6569731,3145,a
1770627099.668023,3135,a
1770627099.678984,3140,a
1770627099.689997,3138,a
1770627099.701041,3140,a
1770627099.711991,3145,a
1770627099.722974,3148,a
1770627099.7339892,3140,a
1770627099.7449758,3141,a
1770627099.755954,3142,a
1770627099.7669618,3141,a
1770627099.777919,3144,a
1770627099.788936,3143,a
1770627099.799937,3142,a
1770627099.810899,3145,a
1770627099.821892,3141,a
1770627099.832892,3137,a
1770627099.8439198,3146,a
1770627099.854923,3147,a
1770627099.8659399,3136,a
1770627099.8768861,3144,a
1770627099.887892,3143,a
1770627099.899018,3144,a
1770627099.909873,3141,a
1770627099.920867,3145,a
1770627099.9318888,3143,a
1770627099.94288,3140,a
1770627099.953769,3141,a
1770627099.9647481,3141,a
1770627099.975708,3144,a
1770627099.986756,3141,a
1770627099.99775,3143,a
1770627100.008707,3143,a
1770627100.019733,3143,a
1770627100.0307121,3144,a
1770627100.041711,3144,a
1770627100.052734,3136,a
1770627100.0636868,3141,a
1770627100.074692,3139,a
1770627100.085712,3138,a
1770627100.096664,3138,a
1770627100.1076539,3141,a
1770627100.1191978,3139,a
1770627100.1296818,3139,a
1770627100.140664,3147,a
1770627100.151673,3137,a
1770627100.162648,3142,a
1770627100.1736908,3140,a
1770627100.1846578,3137,a
1770627100.1956701,3139,a
1770627100.2066681,3147,a
1770627100.218271,3145,a
1770627100.228657,3140,a
1770627100.239651,3150,a
1770627100.25062,3142,a
1770627100.2616022,3141,a
1770627100.272619,3147,a
1770627100.2835991,3142,a
1770627100.294593,3144,a
1770627100.305616,3146,a
1770627100.316601,3144,a
1770627100.327615,3145,a
1770627100.3388622,3142,a
1770627100.349442,3143,a
1770627100.3605042,3141,a
1770627100.371458,3146,a
1770627100.382485,3141,a
1770627100.393446,3141,a
1770627100.404434,3140,a
1770627100.4154181,3142,a
1770627100.426419,3138,a
1770627100.437432,3145,a
1770627100.4484081,3141,a
1770627100.459402,3139,a
1770627100.470436,3144,a
1770627100.4814,3141,a
1770627100.4924002,3142,a
1770627100.503403,3145,a
1770627100.5143838,3139,a
1770627100.52614,3141,a
1770627100.5363882,3138,a
1770627100.547385,3147,a
1770627100.558368,3141,a
1770627100.56935,3140,a
1770627100.580357,3143,a
1770627100.5921988,3138,a
1770627100.6023412,3144,a
1770627100.6133518,3140,a
1770627100.6243432,3143,a
1770627100.6353369,3138,a
1770627100.646335,3139,a
1770627100.657616,3144,a
1770627100.66833,3143,a
1770627100.67936,3142,a
1770627100.690429,3148,a
1770627100.7013109,3134,a
1770627100.712354,3143,a
1770627100.723893,3143,a
1770627100.734303,3142,a
1770627100.745225,3143,a
1770627100.7586749,3147,a
1770627100.7677782,3138,a
1770627100.778548,3138,a
1770627100.789165,3141,a
1770627100.800155,3145,a
1770627100.811188,3139,a
1770627100.822607,3149,a
1770627100.8332071,3144,a
1770627100.8441842,3136,a
1770627100.855227,3143,a
1770627100.8661382,3144,a
1770627100.877151,3143,a
1770627100.888112,3146,a
1770627100.899167,3140,a
1770627100.9101171,3140,a
1770627100.92232,3145,a
1770627100.932162,3139,a
1770627100.943134,3142,a
1770627100.954466,3146,a
1770627100.96513,3145,a
1770627100.9761238,3136,a
1770627100.987093,3144,a
1770627100.9980931,3141,a
1770627101.009139,3142,a
1770627101.020101,3140,a
1770627101.031126,3140,a
1770627101.042232,3143,a
1770627101.0531049,3143,a
1770627101.064358,3141,a
1770627101.075082,3144,a
1770627101.086101,3135,a
1770627101.097067,3140,a
1770627101.1080499,3142,a
1770627101.119072,3143,a
1770627101.1300359,3143,a
1770627101.142077,3146,a
1770627101.152056,3139,a
1770627101.163062,3143,a
1770627101.174026,3142,a
1770627101.185038,3141,a
1770627101.196012,3143,a
1770627101.207068,3143,a
1770627101.218051,3135,a
1770627101.229009,3139,a
1770627101.240004,3148,a
1770627101.250916,3142,a
1770627101.2622669,3143,a
1770627101.27288,3143,a
1770627101.283851,3141,a
1770627101.2948549,3143,a
1770627101.305873,3146,a
1770627101.316871,3139,a
1770627101.327828,3142,a
1770627101.3388412,3145,a
1770627101.349822,3141,a
1770627101.362143,3139,a
1770627101.371813,3148,a
1770627101.382815,3139,a
1770627101.393847,3145,a
1770627101.404798,3147,a
1770627101.415842,3144,a
1770627101.426799,3141,a
1770627101.437823,3144,a
1770627101.4487948,3137,a
1770627101.459784,3136,a
1770627101.4707909,3142,a
1770627101.4818199,3144,a
1770627101.492766,3135,a
1770627101.50377,3141,a
1770627101.514815,3138,a
1770627101.5257878,3140,a
1770627101.5367758,3141,a
1770627101.5477629,3142,a
1770627101.558789,3136,a
1770627101.569789,3137,a
1770627101.582006,3139,a
1770627101.591746,3143,a
1770627101.602787,3143,a
1770627101.613729,3140,a
1770627101.624725,3140,a
1770627101.63572,3139,a
1770627101.646711,3143,a
1770627101.657753,3143,a
1770627101.6687171,3135,a
1770627101.679731,3139,a
1770627101.6907678,3146,a
1770627101.702042,3136,a
1770627101.712729,3140,a
1770627101.7237241,3143,a
1770627101.7347279,3139,a
1770627101.745688,3140,a
1770627101.756709,3144,a
1770627101.76756,3142,a
1770627101.778593,3141,a
1770627101.789543,3147,a
1770627101.8016908,3140,a
1770627101.8115578,3140,a
1770627101.822561,3151,a
1770627101.833531,3146,a
1770627101.844518,3143,a
1770627101.8555782,3142,a
1770627101.8665442,3140,a
1770627101.877516,3146,a
1770627101.8885639,3144,a
1770627101.899512,3139,a
1770627101.910527,3140,a
1770627101.921746,3149,a
1770627101.932532,3136,a
1770627101.9435039,3143,a
1770627101.954497,3145,a
1770627101.965525,3145,a
1770627101.976531,3134,a
1770627101.987474,3143,a
1770627101.998507,3137,a
1770627102.009519,3139,a
1770627102.021975,3144,a
1770627102.03147,3142,a
1770627102.042464,3143,a
1770627102.0534961,3145,a
1770627102.064477,3139,a
1770627102.075486,3142,a
1770627102.086462,3139,a
1770627102.097497,3143,a
1770627102.1084712,3145,a
1770627102.1194339,3134,a
1770627102.130483,3143,a
1770627102.142074,3139,a
1770627102.152416,3137,a
1770627102.1634188,3141,a
1770627102.174419,3141,a
1770627102.1854138,3137,a
1770627102.196401,3139,a
1770627102.2073889,3142,a
1770627102.21839,3139,a
1770627102.2294269,3146,a
1770627102.241251,3147,a
1770627102.251423,3135,a
1770627102.262294,3137,a
1770627102.273292,3143,a
1770627102.284247,3138,a
1770627102.295309,3141,a
1770627102.306277,3144,a
1770627102.3172889,3144,a
1770627102.328249,3142,a
1770627102.339224,3147,a
1770627102.35024,3141,a
1770627102.3612359,3138,a
1770627102.3722172,3149,a
1770627102.383223,3142,a
1770627102.394248,3145,a
1770627102.405226,3148,a
1770627102.41622,3142,a
1770627102.427201,3147,a
1770627102.438276,3147,a
1770627102.4492521,3141,a
1770627102.4602299,3141,a
1770627102.471224,3150,a
1770627102.4821918,3143,a
1770627102.493181,3141,a
1770627102.5042071,3143,a
1770627102.515209,3142,a
1770627102.526196,3138,a
1770627102.537212,3141,a
1770627102.548156,3135,a
1770627102.55918,3140,a
1770627102.5702012,3142,a
1770627102.5811589,3143,a
1770627102.59214,3140,a
1770627102.603034,3146,a
1770627102.6140459,3144,a
1770627102.6250188,3142,a
1770627102.636054,3140,a
1770627102.647,3142,a
1770627102.657995,3143,a
1770627102.669065,3141,a
1770627102.67999,3139,a
1770627102.690996,3139,a
1770627102.702019,3134,a
1770627102.712982,3140,a
1770627102.724011,3144,a
1770627102.735021,3136,a
1770627102.745999,3139,a
1770627102.756981,3145,a
1770627102.767958,3133,a
1770627102.778995,3138,a
1770627102.789983,3146,a
1770627102.801155,3143,a
1770627102.8119621,3140,a
1770627102.822956,3142,a
1770627102.833935,3139,a
1770627102.844977,3140,a
1770627102.855965,3142,a
1770627102.866997,3141,a
1770627102.877965,3145,a
1770627102.8889642,3145,a
1770627102.899925,3147,a
1770627102.910899,3143,a
1770627102.921963,3145,a
1770627102.9329112,3141,a
1770627102.943912,3139,a
1770627102.954893,3146,a
1770627102.9658911,3137,a
1770627102.976803,3146,a
1770627102.987763,3142,a
1770627102.9988549,3139,a
1770627103.0097952,3141,a
1770627103.0214899,3142,a
1770627103.0318441,3145,a
1770627103.0427551,3136,a
1770627103.053785,3143,a
1770627103.064797,3139,a
1770627103.075746,3139,a
1770627103.086742,3146,a
1770627103.0977962,3140,a
1770627103.108719,3142,a
1770627103.1197271,3147,a
1770627103.130736,3138,a
1770627103.141729,3142,a
1770627103.152715,3146,a
1770627103.163708,3141,a
1770627103.1747441,3140,a
1770627103.185729,3139,a
1770627103.196726,3141,a
1770627103.207694,3149,a
1770627103.218734,3147,a
1770627103.229675,3137,a
1770627103.2412071,3149,a
1770627103.2517178,3144,a
1770627103.262678,3141,a
1770627103.2737322,3155,a
1770627103.2847,3142,a
1770627103.295701,3142,a
1770627103.306669,3148,a
1770627103.317547,3137,a
1770627103.328567,3147,a
1770627103.3395689,1058,a
1770627103.35057,3023,a
1770627103.3615448,3136,a
1770627103.372534,3149,a
1770627103.383548,3132,a
1770627103.3945541,3142,a
1770627103.405568,3147,a
1770627103.416544,3142,a
1770627103.427496,3143,a
1770627103.438495,3148,a
1770627103.4495401,3147,a
1770627103.461077,3143,a
1770627103.471483,3148,a
1770627103.482524,3138,a
1770627103.493523,3146,a
1770627103.504502,3152,a
1770627103.515511,3136,a
1770627103.526499,3147,a
1770627103.537466,3147,a
1770627103.548479,3137,a
1770627103.559714,3146,a
1770627103.570478,3147,a
1770627103.581505,3138,a
1770627103.592445,3147,a
1770627103.603453,3149,a
1770627103.61444,3137,a
1770627103.625469,3140,a
1770627103.6364758,3149,a
1770627103.6474612,3141,a
1770627103.6584709,3146,a
1770627103.66943,3146,a
1770627103.6808,3139,a
1770627103.691432,3144,a
1770627103.7023191,3143,a
1770627103.713417,3144,a
1770627103.7243211,3146,a
1770627103.735301,3139,a
1770627103.746293,3140,a
1770627103.75731,3147,a
1770627103.7682931,3136,a
1770627103.7805529,3141,a
1770627103.790299,3145,a
1770627103.801533,3137,a
1770627103.8124921,3141,a
1770627103.823306,3145,a
1770627103.8342888,3134,a
1770627103.845261,3143,a
1770627103.856267,3147,a
1770627103.8672562,3140,a
1770627103.878256,3143,a
1770627103.889266,3156,a
1770627103.900958,3134,a
1770627103.9112582,3142,a
1770627103.922217,3144,a
1770627103.933232,3140,a
1770627103.944211,3146,a
1770627103.955241,3147,a
1770627103.966242,3145,a
1770627103.9772532,3147,a
1770627103.988209,3145,a
1770627103.9992168,3142,a
1770627104.01023,3143,a
1770627104.0212128,3144,a
1770627104.032233,3141,a
1770627104.043179,3149,a
1770627104.054094,3151,a
1770627104.06509,3141,a
1770627104.0760949,3147,a
1770627104.0870621,3147,a
1770627104.098061,3140,a
1770627104.1090581,3144,a
1770627104.12115,3150,a
1770627104.131027,3139,a
1770627104.142081,3139,a
1770627104.153074,3144,a
1770627104.164053,3144,a
1770627104.175062,3142,a
1770627104.186053,3141,a
1770627104.19706,3142,a
1770627104.208009,3146,a
1770627104.2189991,3141,a
1770627104.2300339,3140,a
1770627104.241599,3145,a
1770627104.2520452,3140,a
1770627104.262986,3141,a
1770627104.274039,3152,a
1770627104.285012,3140,a
1770627104.295989,3149,a
1770627104.306986,3148,a
1770627104.317986,3143,a
1770627104.3290272,3141,a
1770627104.341585,3149,a
1770627104.3509629,3142,a
1770627104.362002,3144,a
1770627104.3729868,2553,a
1770627104.383976,3114,a
1770627104.3948731,3132,a
1770627104.405859,3155,a
1770627104.4168692,3141,a
1770627104.427857,3143,a
1770627104.438853,3150,a
1770627104.449866,3143,a
1770627104.46147,3143,a
1770627104.471854,3153,a
1770627104.482881,3143,a
1770627104.4938428,3140,a
1770627104.5048552,3151,a
1770627104.515832,3138,a
1770627104.52679,3147,a
1770627104.5378199,3147,a
1770627104.548841,3136,a
1770627104.5612118,3144,a
1770627104.570774,3149,a
1770627104.5818229,3139,a
1770627104.592782,3140,a
1770627104.603797,3149,a
1770627104.614806,3143,a
1770627104.625771,3141,a
1770627104.6368,3147,a
1770627104.647775,3140,a
1770627104.658754,3138,a
1770627104.669834,3144,a
1770627104.681278,3140,a
1770627104.691745,3142,a
1770627104.70275,3141,a
1770627104.7137501,3144,a
1770627104.724724,3142,a
1770627104.735749,3136,a
1770627104.746742,1131,a
1770627104.75773,3033,a
1770627104.768765,3128,a
1770627104.780884,3138,a
1770627104.790601,3149,a
1770627104.80163,3135,a
1770627104.812607,2647,a
1770627104.823599,3133,a
1770627104.834589,3141,a
1770627104.84565,3146,a
1770627104.8566241,2076,a
1770627104.867595,3095,a
1770627104.878613,3140,a
1770627104.889623,3145,a
1770627104.9012532,3135,a
1770627104.911598,3140,a
1770627104.922583,3148,a
1770627104.933577,3139,a
1770627104.944603,3142,a
1770627104.955605,3149,a
1770627104.9665432,3135,a
1770627104.977581,3136,a
1770627104.988555,3154,a
1770627105.001012,3140,a
1770627105.010541,3146,a
1770627105.021562,3150,a
1770627105.032521,3147,a
1770627105.0435562,3146,a
1770627105.0545459,3150,a
1770627105.065512,3136,a
1770627105.076541,3142,a
1770627105.0875342,3150,a
1770627105.098495,3140,a
1770627105.109547,3145,a
1770627105.121089,3147,a
1770627105.131499,3141,a
1770627105.143393,3142,a
1770627105.155241,3148,a
1770627105.1645062,3140,a
1770627105.175533,3145,a
1770627105.186516,3146,a
1770627105.197401,3139,a
1770627105.20847,3143,a
1770627105.221181,3149,a
1770627105.230369,3143,a
1770627105.241348,3144,a
1770627105.2523782,3150,a
1770627105.2633832,3141,a
1770627105.274352,3147,a
1770627105.285366,3141,a
1770627105.296376,3139,a
1770627105.30732,3147,a
1770627105.318361,3144,a
1770627105.3293629,3144,a
1770627105.341226,3149,a
1770627105.3513238,3140,a
1770627105.362311,3143,a
1770627105.3732932,3145,a
1770627105.3843231,3137,a
1770627105.395333,3146,a
1770627105.4062989,3145,a
1770627105.417342,3139,a
1770627105.428329,3142,a
1770627105.4411001,1284,a
1770627105.450329,3031,a
1770627105.46131,3127,a
1770627105.472272,3147,a
1770627105.483326,3141,a
1770627105.4943209,3139,a
1770627105.505259,3142,a
1770627105.5163,3141,a
1770627105.527141,3142,a
1770627105.538136,3148,a
1770627105.54917,3146,a
1770627105.560944,3145,a
1770627105.571168,3146,a
1770627105.582145,3137,a
1770627105.593159,3143,a
1770627105.60416,3150,a
1770627105.615118,3140,a
1770627105.626136,3147,a
1770627105.637155,3148,a
1770627105.6481001,2620,a
1770627105.6591392,3121,a
1770627105.670104,3151,a
1770627105.681108,501,a
1770627105.692107,3020,a
1770627105.703124,3139,a
1770627105.7140841,3140,a
1770627105.725108,3145,a
1770627105.7360818,3146,a
1770627105.7470698,3139,a
1770627105.758115,3146,a
1770627105.769115,3143,a
1770627105.7809029,3143,a
1770627105.791094,3148,a
1770627105.802078,3144,a
1770627105.816156,3138,a
1770627105.823955,3143,a
1770627105.834968,3137,a
1770627105.846091,3143,a
1770627105.856988,3145,a
1770627105.8679879,3136,a
1770627105.878919,3144,a
1770627105.889952,3148,a
1770627105.901123,3136,a
1770627105.911905,3144,a
1770627105.92301,3144,a
1770627105.933939,3134,a
1770627105.944903,3141,a
1770627105.955901,2495,a
1770627105.9668858,3110,a
1770627105.977888,3137,a
1770627105.9889228,3146,a
1770627106.001033,3143,a
1770627106.010897,3144,a
1770627106.021871,3150,a
1770627106.0329118,3137,a
1770627106.043895,3143,a
1770627106.0549,3145,a
1770627106.0658681,3139,a
1770627106.076885,3140,a
1770627106.087871,3147,a
1770627106.098895,3140,a
1770627106.1098728,3146,a
1770627106.121259,3145,a
1770627106.131762,3135,a
1770627106.14273,3139,a
1770627106.1537652,3145,a
1770627106.164756,3137,a
1770627106.175751,3138,a
1770627106.186708,3143,a
1770627106.197703,3142,a
1770627106.208747,3142,a
1770627106.220918,3141,a
1770627106.2307332,3141,a
1770627106.241704,3139,a
1770627106.2526941,3143,a
1770627106.26372,3142,a
1770627106.274722,3140,a
1770627106.285708,3141,a
1770627106.296725,3136,a
1770627106.307711,3143,a
1770627106.318665,3145,a
1770627106.3297138,3145,a
1770627106.3413398,3143,a
1770627106.351671,3136,a
1770627106.3626869,3139,a
1770627106.3736918,3146,a
1770627106.3846478,3145,a
1770627106.395692,3145,a
1770627106.406636,3146,a
1770627106.417652,3144,a
1770627106.4286442,3144,a
1770627106.44147,3152,a
1770627106.450541,3145,a
1770627106.4615622,3146,a
1770627106.4725068,3148,a
1770627106.483511,3139,a
1770627106.494545,3147,a
1770627106.5055249,2583,a
1770627106.516551,3118,a
1770627106.527497,3145,a
1770627106.538522,3144,a
1770627106.549519,3138,a
1770627106.561346,3145,a
1770627106.5715158,3147,a
1770627106.582526,3145,a
1770627106.593494,3140,a
1770627106.6045172,3148,a
1770627106.615468,3146,a
1770627106.626485,3149,a
1770627106.637503,3142,a
1770627106.648503,3135,a
1770627106.660404,3140,a
1770627106.670487,3149,a
1770627106.681483,3137,a
1770627106.6924438,3140,a
1770627106.703476,3151,a
1770627106.714484,2879,a
1770627106.725319,3134,a
1770627106.7363908,3145,a
1770627106.7473059,3139,a
1770627106.758306,3141,a
1770627106.7693639,3145,a
1770627106.780859,3136,a
1770627106.7913,3139,a
1770627106.802346,3144,a
1770627106.8133461,3136,a
1770627106.8242931,3143,a
1770627106.835349,3142,a
1770627106.846324,3146,a
1770627106.85731,3146,a
1770627106.868293,3145,a
1770627106.88098,3142,a
1770627106.890285,3148,a
1770627106.901268,3147,a
1770627106.912315,3144,a
1770627106.923271,3144,a
1770627106.9342642,3141,a
1770627106.945264,3146,a
1770627106.956311,3147,a
1770627106.9672608,3143,a
1770627106.978322,3144,a
1770627106.9891698,863,a
1770627107.001015,3020,a
1770627107.011294,3139,a
1770627107.022277,3147,a
1770627107.033247,3140,a
1770627107.0442739,3146,a
1770627107.055257,3150,a
1770627107.0662742,3141,a
1770627107.0772748,3147,a
1770627107.088246,3152,a
1770627107.1011488,3146,a
1770627107.110136,3146,a
1770627107.121135,3147,a
1770627107.132141,3143,a
1770627107.143095,3146,a
1770627107.154119,3147,a
1770627107.165092,3144,a
1770627107.176123,3143,a
1770627107.187096,3149,a
1770627107.198087,3135,a
1770627107.2090821,3145,a
1770627107.220971,3146,a
1770627107.2311108,3139,a
1770627107.242105,3142,a
1770627107.253097,3142,a
1770627107.264092,3137,a
1770627107.275054,3140,a
1770627107.286073,3141,a
1770627107.2970712,3139,a
1770627107.308042,3144,a
1770627107.320804,3147,a
1770627107.3299599,3139,a
1770627107.3410041,3145,a
1770627107.351949,3141,a
1770627107.36291,3137,a
1770627107.3739111,3145,a
1770627107.384937,3137,a
1770627107.395913,3141,a
1770627107.40689,3149,a
1770627107.4179342,3144,a
1770627107.4289541,3140,a
1770627107.44118,3143,a
1770627107.450921,3135,a
1770627107.461882,3142,a
1770627107.472915,3143,a
1770627107.48393,3137,a
1770627107.4948921,3143,a
1770627107.505867,1027,a
1770627107.516917,3025,a
1770627107.5279129,3132,a
1770627107.5388968,3137,a
1770627107.5498629,3138,a
1770627107.561144,3142,a
1770627107.5717719,3144,a
1770627107.5827498,3142,a
1770627107.593712,3147,a
1770627107.6047628,3149,a
1770627107.615724,3144,a
1770627107.626755,3141,a
1770627107.637766,3146,a
1770627107.648732,3143,a
1770627107.661133,3142,a
1770627107.6707652,3151,a
1770627107.681709,3148,a
1770627107.692767,3142,a
1770627107.703733,3150,a
1770627107.7146912,3138,a
1770627107.725727,3143,a
1770627107.736722,3147,a
1770627107.74772,3136,a
1770627107.760801,3144,a
1770627107.769689,3150,a
1770627107.780721,3138,a
1770627107.791679,3137,a
1770627107.802737,3142,a
1770627107.813694,3136,a
1770627107.824702,3143,a
1770627107.835592,3148,a
1770627107.846548,3142,a
1770627107.857547,3145,a
1770627107.86857,3142,a
1770627107.880842,1373,a
1770627107.8905358,3033,a
1770627107.90158,3134,a
1770627107.9125838,3136,a
1770627107.9235158,3143,a
1770627107.934548,3138,a
1770627107.945531,3141,a
1770627107.956531,3147,a
1770627107.967558,3141,a
1770627107.978555,3139,a
1770627107.989553,3146,a
1770627108.000545,3136,a
1770627108.011512,3142,a
1770627108.02255,3140,a
1770627108.033538,3135,a
1770627108.0445051,3140,a
1770627108.055487,2087,a
1770627108.066417,3096,a
1770627108.077416,3141,a
1770627108.088417,3144,a
1770627108.101093,3139,a
1770627108.110394,3147,a
1770627108.12149,2245,a
1770627108.1324108,3106,a
1770627108.143389,3141,a
1770627108.154342,3147,a
1770627108.165388,3146,a
1770627108.176364,3141,a
1770627108.187337,3146,a
1770627108.198334,3145,a
1770627108.209376,2711,a
1770627108.2209122,3131,a
1770627108.231374,3138,a
1770627108.242354,3144,a
1770627108.253331,3143,a
1770627108.264329,3141,a
1770627108.275365,3143,a
1770627108.2863019,3144,a
1770627108.297345,3141,a
1770627108.3083572,3145,a
1770627108.3208609,3146,a
1770627108.330347,3135,a
1770627108.3413172,3139,a
1770627108.352231,3136,a
1770627108.363179,3139,a
1770627108.374203,3142,a
1770627108.385203,3142,a
1770627108.396186,3139,a
1770627108.4071949,3140,a
1770627108.418188,3139,a
1770627108.429163,3143,a
1770627108.441163,3145,a
1770627108.451199,3143,a
1770627108.462173,3145,a
1770627108.473195,3146,a
1770627108.484171,3146,a
1770627108.495148,3138,a
1770627108.506167,3145,a
1770627108.517191,3148,a
1770627108.528171,3139,a
1770627108.5408242,3147,a
1770627108.550134,3142,a
1770627108.561163,3149,a
1770627108.572136,3143,a
1770627108.583157,3142,a
1770627108.594167,3146,a
1770627108.60515,2431,a
1770627108.6161559,3110,a
1770627108.6271281,3138,a
1770627108.6381068,3149,a
1770627108.649108,3137,a
1770627108.675325,3142,a
1770627108.67544,3151,a
1770627108.6843882,3139,a
1770627108.6930041,3147,a
1770627108.70903,3148,a
1770627108.714981,3144,a
1770627108.726101,3142,a
1770627108.7369652,3146,a
1770627108.747969,3140,a
1770627108.760519,3140,a
1770627108.7699468,3145,a
1770627108.780985,3137,a
1770627108.7919822,3145,a
1770627108.802953,3147,a
1770627108.8139899,3137,a
1770627108.824972,3147,a
1770627108.836035,3148,a
1770627108.846947,3136,a
1770627108.857974,3143,a
1770627108.8689768,3140,a
1770627108.8809988,3140,a
1770627108.890976,3137,a
1770627108.901941,3142,a
1770627108.912964,3143,a
1770627108.9239612,3143,a
1770627108.934953,3144,a
1770627108.9459531,3143,a
1770627108.956953,3146,a
1770627108.96795,3142,a
1770627108.9806879,3141,a
1770627108.9899478,3143,a
1770627109.000939,3143,a
1770627109.011843,3139,a
1770627109.0228422,3142,a
1770627109.033826,3140,a
1770627109.044808,3139,a
1770627109.055813,3149,a
1770627109.066785,3136,a
1770627109.077888,3142,a
1770627109.088813,3147,a
1770627109.1008499,3144,a
1770627109.110752,3141,a
1770627109.1218,1311,a
1770627109.132813,3026,a
1770627109.143768,3131,a
1770627109.15479,3143,a
1770627109.165777,3139,a
1770627109.176779,3142,a
1770627109.187767,3146,a
1770627109.200288,3136,a
1770627109.209794,3141,a
1770627109.220772,3147,a
1770627109.2318022,3142,a
1770627109.242736,3144,a
1770627109.253721,3145,a
1770627109.264758,3141,a
1770627109.275733,3143,a
1770627109.2868218,3150,a
1770627109.2977421,3147,a
1770627109.3087418,3141,a
1770627109.320606,3143,a
1770627109.330754,3137,a
1770627109.341729,3145,a
1770627109.3525891,3142,a
1770627109.3636758,3132,a
1770627109.374605,3142,a
1770627109.385636,3149,a
1770627109.3966248,3137,a
1770627109.4075992,3140,a
1770627109.419652,2663,a
1770627109.429603,3114,a
1770627109.4407942,3136,a
1770627109.451547,3142,a
1770627109.462582,3144,a
1770627109.473593,3139,a
1770627109.484562,3145,a
1770627109.495598,3137,a
1770627109.506571,3142,a
1770627109.517536,3142,a
1770627109.528607,3141,a
1770627109.5403352,3146,a
1770627109.550559,3139,a
1770627109.561543,3140,a
1770627109.572573,3147,a
1770627109.5835369,3138,a
1770627109.594563,3143,a
1770627109.6055942,3145,a
1770627109.616516,3134,a
1770627109.627583,3141,a
1770627109.640822,3138,a
1770627109.6494122,3135,a
1770627109.661161,3142,a
1770627109.67144,840,a
1770627109.682393,3023,a
1770627109.693422,3133,a
1770627109.704413,3139,a
1770627109.715414,3135,a
1770627109.726413,3142,a
1770627109.737407,3146,a
1770627109.7484128,3141,a
1770627109.761347,3139,a
1770627109.770396,3148,a
1770627109.781394,3137,a
1770627109.792366,3139,a
1770627109.803406,3146,a
1770627109.814358,3145,a
1770627109.825354,3142,a
1770627109.83638,3151,a
1770627109.8473868,3146,a
1770627109.860559,3142,a
1770627109.869341,3143,a
1770627109.8806221,3137,a
1770627109.8913438,3143,a
1770627109.902368,3146,a
1770627109.913375,3138,a
1770627109.924365,3139,a
1770627109.935383,3147,a
1770627109.946336,3130,a
1770627109.957255,3141,a
1770627109.96824,1972,a
1770627109.980048,3039,a
1770627109.9902048,3129,a
1770627110.001237,3146,a
1770627110.012241,3144,a
1770627110.023229,3140,a
1770627110.034228,3140,a
1770627110.0451908,3140,a
1770627110.056222,3141,a
1770627110.067172,3139,a
1770627110.078233,3143,a
1770627110.089211,3141,a
1770627110.1010408,3137,a
1770627110.111226,3143,a
1770627110.1222038,3141,a
1770627110.1332018,3137,a
1770627110.1442702,3143,a
1770627110.15516,3141,a
1770627110.166176,3136,a
1770627110.177186,3143,a
1770627110.188145,3149,a
1770627110.200608,3142,a
1770627110.210172,3139,a
1770627110.221056,813,a
1770627110.232043,3022,a
1770627110.243053,3129,a
1770627110.254049,3138,a
1770627110.265037,3143,a
1770627110.276056,3139,a
1770627110.287057,3152,a
1770627110.2980201,3138,a
1770627110.3090649,3145,a
1770627110.3204532,3135,a
1770627110.331064,3142,a
1770627110.342036,3147,a
1770627110.3530219,3151,a
1770627110.364009,3146,a
1770627110.3750331,3140,a
1770627110.386019,3144,a
1770627110.397027,3140,a
1770627110.407991,3144,a
1770627110.420396,3147,a
1770627110.429992,3140,a
1770627110.4409862,3141,a
1770627110.4520378,3143,a
1770627110.463,3136,a
1770627110.473971,3139,a
1770627110.4850261,3147,a
1770627110.49599,3137,a
1770627110.506999,3139,a
1770627110.518015,3128,a
1770627110.529003,3135,a
1770627110.540803,3142,a
1770627110.550998,3143,a
1770627110.561986,3137,a
1770627110.57296,3137,a
1770627110.5839,3148,a
1770627110.594836,3140,a
1770627110.6058738,3145,a
1770627110.616887,3142,a
1770627110.627823,3136,a
1770627110.640824,3140,a
1770627110.649854,3145,a
1770627110.660935,3140,a
1770627110.671881,3144,a
1770627110.682831,3139,a
1770627110.6938298,3138,a
1770627110.7048,3150,a
1770627110.715859,3142,a
1770627110.726797,3145,a
1770627110.737825,3144,a
1770627110.748821,3140,a
1770627110.760592,3142,a
1770627110.7707908,1112,a
1770627110.781816,3022,a
1770627110.792814,3133,a
1770627110.803809,3142,a
1770627110.814822,3138,a
1770627110.825789,3143,a
1770627110.8367748,3151,a
1770627110.847759,3141,a
1770627110.860811,3142,a
1770627110.869648,3143,a
1770627110.880702,3139,a
1770627110.891684,3136,a
1770627110.902678,3149,a
1770627110.913684,3143,a
1770627110.924659,3153,a
1770627110.935667,3149,a
1770627110.946701,3144,a
1770627110.957665,3141,a
1770627110.968666,3146,a
1770627110.9805481,3137,a
1770627110.990674,3147,a
1770627111.001659,3149,a
1770627111.012748,3135,a
1770627111.023672,3141,a
1770627111.034653,3146,a
1770627111.045613,3135,a
1770627111.056635,3138,a
1770627111.067616,3146,a
1770627111.079776,3142,a
1770627111.0896158,3139,a
1770627111.100661,3146,a
1770627111.111608,3136,a
1770627111.122601,3139,a
1770627111.133638,3143,a
1770627111.144597,3143,a
1770627111.155587,3144,a
1770627111.1665049,3142,a
1770627111.17746,3144,a
1770627111.1884952,3147,a
1770627111.200332,3144,a
1770627111.210498,3139,a
1770627111.221487,3145,a
1770627111.232488,3144,a
1770627111.2434602,3146,a
1770627111.2544608,3151,a
1770627111.265478,3150,a
1770627111.27649,3137,a
1770627111.287472,3151,a
1770627111.299767,3145,a
1770627111.309459,3147,a
1770627111.3204422,3148,a
1770627111.331476,3139,a
1770627111.3424609,3142,a
1770627111.35342,3151,a
1770627111.3644521,3142,a
1770627111.375446,3140,a
1770627111.386431,3149,a
1770627111.399532,3140,a
1770627111.4084249,3140,a
1770627111.4200928,3141,a
1770627111.430451,3145,a
1770627111.441291,3145,a
1770627111.4523468,3149,a
1770627111.4633658,3146,a
1770627111.4743161,3141,a
1770627111.485285,3148,a
1770627111.49633,3147,a
1770627111.5072992,3144,a
1770627111.519943,3143,a
1770627111.529312,3144,a
1770627111.540288,3144,a
1770627111.5512881,3149,a
1770627111.562284,3136,a
1770627111.573299,3146,a
1770627111.5843,3150,a
1770627111.595267,3141,a
1770627111.606266,3148,a
1770627111.617281,3151,a
1770627111.6282501,3145,a
1770627111.6399412,3140,a
1770627111.6503239,3144,a
1770627111.6612532,3138,a
1770627111.672284,3141,a
1770627111.683282,3138,a
1770627111.694138,3139,a
1770627111.705153,3146,a
1770627111.716158,3139,a
1770627111.727128,3141,a
1770627111.7396631,3143,a
1770627111.749137,3143,a
1770627111.760139,1898,a
1770627111.771124,3045,a
1770627111.782144,3132,a
1770627111.793087,3141,a
1770627111.804121,3149,a
1770627111.815116,3152,a
1770627111.82608,3147,a
1770627111.837118,3151,a
1770627111.84815,3138,a
1770627111.860062,3140,a
1770627111.870081,3150,a
1770627111.881119,3138,a
1770627111.892086,3146,a
1770627111.903069,3143,a
1770627111.9141152,3139,a
1770627111.925101,3140,a
1770627111.9361129,3147,a
1770627111.947111,3140,a
1770627111.960184,3144,a
1770627111.969055,3150,a
1770627111.980066,3144,a
1770627111.991115,3139,a
1770627112.002059,3147,a
1770627112.012972,3145,a
1770627112.023964,3140,a
1770627112.034967,3149,a
1770627112.0459368,3144,a
1770627112.056971,3149,a
1770627112.06797,3143,a
1770627112.079865,3144,a
1770627112.089974,3146,a
1770627112.100947,3147,a
1770627112.1119518,3136,a
1770627112.1229482,3147,a
1770627112.133905,3147,a
1770627112.1449358,3135,a
1770627112.155936,3142,a
1770627112.1669571,3146,a
1770627112.179081,2619,a
1770627112.18894,3114,a
1770627112.20013,3142,a
1770627112.210936,3140,a
1770627112.221911,3136,a
1770627112.232908,3147,a
1770627112.243902,3139,a
1770627112.2549179,3146,a
1770627112.265886,3139,a
1770627112.276885,3141,a
1770627112.2879272,3145,a
1770627112.300119,3146,a
1770627112.309939,3139,a
1770627112.320915,3149,a
1770627112.331799,3141,a
1770627112.342763,3140,a
1770627112.353782,3143,a
1770627112.36478,3144,a
1770627112.3757892,3143,a
1770627112.3867478,3154,a
1770627112.399157,3144,a
1770627112.408736,3138,a
1770627112.419959,3144,a
1770627112.430775,3146,a
1770627112.441735,2376,a
1770627112.4527621,3117,a
1770627112.4637702,3131,a
1770627112.474726,3140,a
1770627112.485758,3147,a
1770627112.496761,3146,a
1770627112.507773,3141,a
1770627112.5199301,3153,a
1770627112.529748,3143,a
1770627112.540739,3143,a
1770627112.551751,3150,a
1770627112.562737,3143,a
1770627112.5737522,3143,a
1770627112.5847082,3144,a
1770627112.5957341,3144,a
1770627112.60674,3144,a
1770627112.6199129,3145,a
1770627112.628725,2310,a
1770627112.640199,3108,a
1770627112.650723,3145,a
1770627112.661689,3137,a
1770627112.67269,3149,a
1770627112.683687,3146,a
1770627112.694678,3136,a
1770627112.705611,3148,a
1770627112.716554,3151,a
1770627112.727574,3142,a
1770627112.7398882,3143,a
1770627112.749554,3147,a
1770627112.7605891,3140,a
1770627112.771594,3146,a
1770627112.782542,3142,a
1770627112.7935932,3142,a
1770627112.804598,3138,a
1770627112.816144,3145,a
1770627112.826574,3140,a
1770627112.837593,3145,a
1770627112.8485692,3139,a
1770627112.860051,3147,a
1770627112.870566,3147,a
1770627112.881539,3142,a
1770627112.892549,3138,a
1770627112.9035468,3139,a
1770627112.914567,3142,a
1770627112.9255528,3138,a
1770627112.93655,3143,a
1770627112.947546,3147,a
1770627112.960147,3139,a
1770627112.9695392,3150,a
1770627112.980536,3138,a
1770627112.991553,3140,a
1770627113.002388,949,a
1770627113.0135438,3019,a
1770627113.0245068,3130,a
1770627113.035533,3144,a
1770627113.0465112,3136,a
1770627113.057497,3145,a
1770627113.068426,3148,a
1770627113.079891,3136,a
1770627113.090364,3142,a
1770627113.1013901,3143,a
1770627113.112409,3142,a
1770627113.123415,3142,a
1770627113.134403,3145,a
1770627113.145385,3140,a
1770627113.156387,3145,a
1770627113.167403,3153,a
1770627113.179944,3151,a
1770627113.189358,3138,a
1770627113.2003741,3148,a
1770627113.211381,1308,a
1770627113.222355,3035,a
1770627113.2333708,3136,a
1770627113.24435,3138,a
1770627113.25537,3143,a
1770627113.266342,3146,a
1770627113.279243,3137,a
1770627113.288363,3142,a
1770627113.30005,3149,a
1770627113.310364,3141,a
1770627113.321342,3142,a
1770627113.332335,3145,a
1770627113.343355,3142,a
1770627113.3543308,3147,a
1770627113.3653362,3142,a
1770627113.3761978,3141,a
1770627113.38721,3146,a
1770627113.399959,3140,a
1770627113.409247,3134,a
1770627113.420269,3143,a
1770627113.431175,3142,a
1770627113.442216,3141,a
1770627113.453223,3142,a
1770627113.4641879,3138,a
1770627113.475204,3145,a
1770627113.486182,3143,a
1770627113.497223,3139,a
1770627113.508218,3138,a
1770627113.519883,3149,a
1770627113.5302038,3141,a
1770627113.5411909,3140,a
1770627113.552194,3140,a
1770627113.5631628,3136,a
1770627113.574192,3148,a
1770627113.585197,1885,a
1770627113.596185,3033,a
1770627113.607153,3131,a
1770627113.6196768,3148,a
1770627113.629138,3138,a
1770627113.6401658,3136,a
1770627113.651155,3146,a
1770627113.662171,3136,a
1770627113.673156,3144,a
1770627113.6840472,3145,a
1770627113.695046,3137,a
1770627113.7060401,3144,a
1770627113.717076,3146,a
1770627113.728016,3142,a
1770627113.740434,3146,a
1770627113.750041,3142,a
1770627113.761013,3138,a
1770627113.772001,3140,a
1770627113.783038,3139,a
1770627113.794045,3131,a
1770627113.805008,3138,a
1770627113.816034,3147,a
1770627113.826995,3136,a
1770627113.839438,3142,a
1770627113.8490188,3146,a
1770627113.8600352,3142,a
1770627113.871018,3138,a
1770627113.8820071,3140,a
1770627113.8930728,3139,a
1770627113.903986,3138,a
1770627113.914973,3142,a
1770627113.9259892,3141,a
1770627113.937004,3140,a
1770627113.947992,3143,a
1770627113.959954,3144,a
1770627113.969988,3136,a
1770627113.980979,3144,a
1770627113.9918752,3144,a
1770627114.002878,3145,a
1770627114.0138838,3136,a
1770627114.0248802,3142,a
1770627114.035885,3146,a
1770627114.046876,3137,a
1770627114.060147,3144,a
1770627114.068834,3142,a
1770627114.079848,3141,a
1770627114.09083,3141,a
1770627114.1018612,3144,a
1770627114.112854,3142,a
1770627114.123887,3144,a
1770627114.134851,3152,a
1770627114.1458209,3141,a
1770627114.156825,3141,a
1770627114.1678689,3146,a
1770627114.179777,3137,a
1770627114.189811,3139,a
1770627114.200843,3147,a
1770627114.211841,3139,a
1770627114.222815,3144,a
1770627114.233832,3149,a
1770627114.244846,3142,a
1770627114.2558222,3140,a
1770627114.266814,3148,a
1770627114.2796018,3143,a
1770627114.288791,3142,a
1770627114.299804,3146,a
1770627114.310677,3139,a
1770627114.3216681,3143,a
1770627114.332695,3147,a
1770627114.3436701,3139,a
1770627114.354683,3142,a
1770627114.365697,3147,a
1770627114.376728,3137,a
1770627114.3876932,3140,a
1770627114.3990479,3142,a
1770627114.409677,3140,a
1770627114.420665,3138,a
1770627114.431675,3146,a
1770627114.4426491,3141,a
1770627114.4536462,3143,a
1770627114.46465,3147,a
1770627114.475677,3144,a
1770627114.486668,3138,a
1770627114.499831,3146,a
1770627114.508682,3144,a
1770627114.519665,3144,a
1770627114.530633,3143,a
1770627114.5415418,3141,a
1770627114.5525389,3140,a
1770627114.563499,3147,a
1770627114.574534,3141,a
1770627114.585537,3151,a
1770627114.596493,3141,a
1770627114.6075609,3141,a
1770627114.619541,3149,a
1770627114.629526,3138,a
1770627114.6404989,3145,a
1770627114.65149,1483,a
1770627114.662484,3031,a
1770627114.67352,3131,a
1770627114.6844952,3142,a
1770627114.695484,3144,a
1770627114.706512,3138,a
1770627114.719386,3151,a
1770627114.728491,3140,a
1770627114.73946,3139,a
1770627114.750486,3150,a
1770627114.761462,3143,a
1770627114.772479,3141,a
1770627114.783466,3148,a
1770627114.794484,3145,a
1770627114.805469,3143,a
1770627114.816475,3146,a
1770627114.827461,3145,a
1770627114.839987,3143,a
1770627114.849374,3150,a
1770627114.860343,3144,a
1770627114.87134,3140,a
1770627114.882365,3151,a
1770627114.893386,3140,a
1770627114.904407,3147,a
1770627114.915359,3143,a
1770627114.92633,2447,a
1770627114.939422,3111,a
1770627114.9483259,3141,a
1770627114.959672,3142,a
1770627114.9703228,3140,a
1770627114.981345,3152,a
1770627114.992384,3140,a
1770627115.0033238,3142,a
1770627115.014339,3149,a
1770627115.02532,3144,a
1770627115.036313,3141,a
1770627115.0473301,3142,a
1770627115.059814,3143,a
1770627115.0693,3142,a
1770627115.0805619,3144,a
1770627115.091341,3143,a
1770627115.1023018,3141,a
1770627115.1132019,3141,a
1770627115.158943,3143,a
1770627115.1590269,3147,a
1770627115.1591308,3142,a
1770627115.159283,3145,a
1770627115.168184,3149,a
1770627115.179625,3132,a
1770627115.190194,3143,a
1770627115.201189,3145,a
1770627115.212192,3134,a
1770627115.223199,3135,a
1770627115.2340312,857,a
1770627115.2451909,3018,a
1770627115.256194,3127,a
1770627115.26719,3142,a
1770627115.280034,3136,a
1770627115.2891898,3141,a
1770627115.300173,3151,a
1770627115.311181,3141,a
1770627115.322165,3142,a
1770627115.333159,3148,a
1770627115.34414,3139,a
1770627115.355188,3142,a
1770627115.366175,3145,a
1770627115.3771331,3142,a
1770627115.388156,3142,a
1770627115.399043,3146,a
1770627115.410036,3141,a
1770627115.4210298,3146,a
1770627115.432032,3149,a
1770627115.442986,3136,a
1770627115.454033,3145,a
1770627115.46499,3149,a
1770627115.4760268,3138,a
1770627115.487024,3144,a
1770627115.4995,3144,a
1770627115.5090141,3140,a
1770627115.519982,3138,a
1770627115.531018,3146,a
1770627115.542013,3137,a
1770627115.553014,3139,a
1770627115.564022,3139,a
1770627115.575008,3144,a
1770627115.5859861,3143,a
1770627115.597009,3143,a
1770627115.607966,3142,a
1770627115.619552,3141,a
1770627115.629997,3144,a
1770627115.640994,3143,a
1770627115.65185,3142,a
1770627115.662878,3142,a
1770627115.673874,3147,a
1770627115.684899,3149,a
1770627115.695869,3138,a
1770627115.706843,3138,a
1770627115.7192671,3151,a
1770627115.728839,3133,a
1770627115.73984,3139,a
1770627115.750828,3145,a
1770627115.7618601,3140,a
1770627115.772866,3141,a
1770627115.783817,1083,a
1770627115.7948558,3027,a
1770627115.805823,3127,a
1770627115.816861,3144,a
1770627115.827851,3138,a
1770627115.839294,3145,a
1770627115.849806,3144,a
1770627115.8608189,3139,a
1770627115.871851,3143,a
1770627115.8828568,3147,a
1770627115.8937018,3143,a
1770627115.9047291,3142,a
1770627115.915712,3144,a
1770627115.926723,3140,a
1770627115.939384,3144,a
1770627115.94869,3148,a
1770627115.959697,3138,a
1770627115.97071,3142,a
1770627115.981693,3143,a
1770627115.992664,3138,a
1770627116.003757,3141,a
1770627116.014688,3148,a
1770627116.025683,3140,a
1770627116.036719,3144,a
1770627116.047654,3144,a
1770627116.05866,3142,a
1770627116.069691,3140,a
1770627116.080687,3148,a
1770627116.091661,3141,a
1770627116.1026702,3138,a
1770627116.1136608,3142,a
1770627116.1246982,3138,a
1770627116.135679,3137,a
1770627116.146674,3144,a
1770627116.159389,3138,a
1770627116.168627,3143,a
1770627116.179559,3142,a
1770627116.19055,3138,a
1770627116.201532,3138,a
1770627116.212537,3139,a
1770627116.223553,3142,a
1770627116.2347982,3142,a
1770627116.245552,3141,a
1770627116.2565172,3143,a
1770627116.267551,3146,a
1770627116.279447,3136,a
1770627116.2895339,3141,a
1770627116.300551,3144,a
1770627116.3115351,3141,a
1770627116.322546,3140,a
1770627116.333555,1543,a
1770627116.344521,3031,a
1770627116.355521,3133,a
1770627116.3664849,3142,a
1770627116.3789408,3138,a
1770627116.3885179,3146,a
1770627116.3994958,3150,a
1770627116.410491,3144,a
1770627116.42149,3139,a
1770627116.4324841,3144,a
1770627116.443551,3141,a
1770627116.4545522,3142,a
1770627116.465483,3152,a
1770627116.476366,3145,a
1770627116.487366,3141,a
1770627116.499299,3144,a
1770627116.5093591,3142,a
1770627116.520412,3140,a
1770627116.53138,3141,a
1770627116.542357,3132,a
1770627116.553374,3137,a
1770627116.56437,3144,a
1770627116.575337,3134,a
1770627116.586373,3141,a
1770627116.599185,3146,a
1770627116.608334,3136,a
1770627116.619371,3139,a
1770627116.630359,3152,a
1770627116.641338,3138,a
1770627116.652319,3138,a
1770627116.6633658,3139,a
1770627116.674318,3146,a
1770627116.6853209,3138,a
1770627116.696349,3142,a
1770627116.707375,3141,a
1770627116.7191732,3141,a
1770627116.729346,3144,a
1770627116.7403462,3140,a
1770627116.751343,3141,a
1770627116.762315,3141,a
1770627116.773343,3143,a
1770627116.784255,3148,a
1770627116.795222,3138,a
1770627116.8061981,3141,a
1770627116.819231,3144,a
1770627116.828219,3140,a
1770627116.83949,3143,a
1770627116.850168,1124,a
1770627116.8611991,3019,a
1770627116.872237,3130,a
1770627116.8831732,2157,a
1770627116.8941948,3096,a
1770627116.905182,3138,a
1770627116.916241,3148,a
1770627116.927783,3136,a
1770627116.939306,3141,a
1770627116.949163,3144,a
1770627116.960163,3143,a
1770627116.971199,3145,a
1770627116.982162,3149,a
1770627116.993164,3144,a
1770627117.0043619,3140,a
1770627117.0151749,3146,a
1770627117.02615,3142,a
1770627117.0371761,3142,a
1770627117.0481448,3147,a
1770627117.059849,3142,a
1770627117.0700622,3141,a
1770627117.0810418,3148,a
1770627117.0920908,3139,a
1770627117.1030688,3142,a
1770627117.114026,3148,a
1770627117.125031,3137,a
1770627117.13609,3139,a
1770627117.14705,3143,a
1770627117.1592588,3138,a
1770627117.1690571,3137,a
1770627117.1800451,3146,a
1770627117.191007,3139,a
1770627117.202046,3137,a
1770627117.213047,3138,a
1770627117.2240052,3140,a
1770627117.234998,3141,a
1770627117.24602,3139,a
1770627117.257005,3139,a
1770627117.267997,3142,a
1770627117.2793999,3144,a
1770627117.290018,3137,a
1770627117.3010292,3140,a
1770627117.312022,3138,a
1770627117.322996,3138,a
1770627117.334028,3145,a
1770627117.345024,3133,a
1770627117.3560169,3146,a
1770627117.367021,3140,a
1770627117.378718,3135,a
1770627117.388879,3142,a
1770627117.399853,1125,a
1770627117.41089,3025,a
1770627117.421854,3127,a
1770627117.4329011,3147,a
1770627117.443846,3145,a
1770627117.454904,3146,a
1770627117.465722,846,a
1770627117.478953,3024,a
1770627117.487836,3131,a
1770627117.4993322,3148,a
1770627117.509847,3148,a
1770627117.5208719,3145,a
1770627117.5318358,3146,a
1770627117.5428522,3142,a
1770627117.553865,3140,a
1770627117.564836,3147,a
1770627117.575854,3143,a
1770627117.5868568,3142,a
1770627117.5990882,3144,a
1770627117.608869,3136,a
1770627117.619858,3147,a
1770627117.6307042,3150,a
1770627117.641706,3135,a
1770627117.65274,3135,a
1770627117.66375,3142,a
1770627117.6746979,3136,a
1770627117.6856918,3142,a
1770627117.696724,3144,a
1770627117.707734,3138,a
1770627117.7191849,1917,a
1770627117.729713,3034,a
1770627117.740586,125,a
1770627117.7517061,3017,a
1770627117.762719,3135,a
1770627117.7737112,3132,a
1770627117.7847118,3138,a
1770627117.795705,3143,a
1770627117.806549,560,a
1770627117.819413,3022,a
1770627117.828681,3132,a
1770627117.839689,3139,a
1770627117.850703,3141,a
1770627117.861701,3135,a
1770627117.872659,3140,a
1770627117.883679,3146,a
1770627117.8947,3140,a
1770627117.905664,3140,a
1770627117.9187589,3144,a
1770627117.927556,3138,a
1770627117.940032,3136,a
1770627117.94958,1678,a
1770627117.9605591,3031,a
1770627117.971526,3126,a
1770627117.982573,3146,a
1770627117.993543,3144,a
1770627118.004534,3139,a
1770627118.0155678,3146,a
1770627118.026539,3140,a
1770627118.039673,3142,a
1770627118.048563,3149,a
1770627118.0597389,3144,a
1770627118.070522,3136,a
1770627118.081555,3147,a
1770627118.0925472,3147,a
1770627118.1035461,3138,a
1770627118.114523,3146,a
1770627118.125519,3135,a
1770627118.136544,3143,a
1770627118.14753,3145,a
1770627118.159699,3143,a
1770627118.1695402,3146,a
1770627118.180413,1998,a
1770627118.191416,3035,a
1770627118.202369,3129,a
1770627118.213388,3143,a
1770627118.224416,3138,a
1770627118.235403,3141,a
1770627118.24638,3146,a
1770627118.259466,3137,a
1770627118.2683678,3147,a
1770627118.279382,2960,a
1770627118.29039,3128,a
1770627118.301396,3141,a
1770627118.312473,3142,a
1770627118.3234181,3144,a
1770627118.3343942,3143,a
1770627118.345377,3141,a
1770627118.3564,3136,a
1770627118.367428,3143,a
1770627118.380045,3144,a
1770627118.389388,3143,a
1770627118.4003808,3145,a
1770627118.411346,3137,a
1770627118.422394,3140,a
1770627118.433373,3147,a
1770627118.444353,3140,a
1770627118.4552279,3142,a
1770627118.466232,3144,a
1770627118.4793699,3139,a
1770627118.4882271,3146,a
1770627118.49957,3151,a
1770627118.510221,3141,a
1770627118.5212228,3143,a
1770627118.532244,3146,a
1770627118.5432162,3142,a
1770627118.5542321,3139,a
1770627118.565221,3151,a
1770627118.5762691,3145,a
1770627118.5872378,3135,a
1770627118.599241,1961,a
1770627118.6092339,3039,a
1770627118.620202,3132,a
1770627118.631249,3144,a
1770627118.6422348,3143,a
1770627118.653259,3144,a
1770627118.6642292,3152,a
1770627118.67523,3137,a
1770627118.686208,3143,a
1770627118.6992068,3144,a
1770627118.708072,3139,a
1770627118.719313,3144,a
1770627118.730064,3141,a
1770627118.7411342,3136,a
1770627118.7520661,3137,a
1770627118.763103,3143,a
1770627118.774103,3143,a
1770627118.785055,3138,a
1770627118.7961018,3121,a
1770627118.807093,3136,a
1770627118.819128,3139,a
1770627118.829064,3144,a
1770627118.840058,3140,a
1770627118.851073,3140,a
1770627118.862229,3146,a
1770627118.873055,3145,a
1770627118.8840508,3139,a
1770627118.895073,3140,a
1770627118.9060428,3140,a
1770627118.919044,3140,a
1770627118.9280388,3142,a
1770627118.939569,3139,a
1770627118.950065,3142,a
1770627118.9610372,3136,a
1770627118.972041,3142,a
1770627118.983068,3147,a
1770627118.994037,3143,a
1770627119.005069,3146,a
1770627119.016067,2744,a
1770627119.0270479,3123,a
1770627119.0396721,3136,a
1770627119.048948,2640,a
1770627119.059919,3120,a
1770627119.0709188,3134,a
1770627119.081934,3143,a
1770627119.092905,3139,a
1770627119.10394,3140,a
1770627119.1149492,3146,a
1770627119.125937,3144,a
1770627119.1369238,3137,a
1770627119.147926,3140,a
1770627119.1594229,3146,a
1770627119.169937,3139,a
1770627119.180917,3149,a
1770627119.19193,3146,a
1770627119.2028842,3142,a
1770627119.2138932,3147,a
1770627119.224926,3142,a
1770627119.235936,3143,a
1770627119.246892,3146,a
1770627119.2584,3137,a
1770627119.268872,3146,a
1770627119.2798982,3148,a
1770627119.290812,3135,a
1770627119.301776,3139,a
1770627119.3127959,3142,a
1770627119.3237839,3141,a
1770627119.334751,3143,a
1770627119.345758,3143,a
1770627119.356756,3139,a
1770627119.367748,3144,a
1770627119.378753,3145,a
1770627119.3897831,3138,a
1770627119.400747,3139,a
1770627119.411772,3147,a
1770627119.422781,3143,a
1770627119.433738,3136,a
1770627119.444767,3143,a
1770627119.455777,3140,a
1770627119.466774,3142,a
1770627119.479419,3141,a
1770627119.488773,3145,a
1770627119.499763,3142,a
1770627119.5107698,3142,a
1770627119.521757,3136,a
1770627119.532764,3148,a
1770627119.54378,3137,a
1770627119.554751,3143,a
1770627119.565762,2959,a
1770627119.57661,3125,a
1770627119.5876448,3137,a
1770627119.599092,3149,a
1770627119.609622,3140,a
1770627119.620626,3139,a
1770627119.631588,1605,a
1770627119.642625,3025,a
1770627119.653635,3127,a
1770627119.664594,3144,a
1770627119.675596,3138,a
1770627119.686632,3139,a
1770627119.69924,3147,a
1770627119.7086122,3144,a
1770627119.719619,3143,a
1770627119.7306209,3143,a
1770627119.7415879,3146,a
1770627119.7526112,3145,a
1770627119.7635999,3146,a
1770627119.774566,3138,a
1770627119.7855842,3144,a
1770627119.796614,3141,a
1770627119.807554,3141,a
1770627119.819113,3141,a
1770627119.829607,3144,a
1770627119.840565,3138,a
1770627119.851645,3136,a
1770627119.862589,3143,a
1770627119.8735611,3136,a
1770627119.884558,3143,a
1770627119.8956008,3146,a
1770627119.906634,3141,a
1770627119.9191191,3144,a
1770627119.928589,3143,a
1770627119.939553,3140,a
1770627119.950591,3142,a
1770627119.9615831,3143,a
1770627119.972586,3139,a
1770627119.9835808,3141,a
1770627119.994557,3140,a
1770627120.0055559,3142,a
1770627120.016563,3141,a
1770627120.0274649,3139,a
1770627120.03949,3144,a
1770627120.049437,3142,a
1770627120.0604851,3143,a
1770627120.071466,3144,a
1770627120.082436,3143,a
1770627120.093452,3136,a
1770627120.1044638,3145,a
1770627120.115432,3147,a
1770627120.1264482,3138,a
1770627120.1394591,3144,a
1770627120.148399,3144,a
1770627120.159414,3138,a
1770627120.17044,3139,a
1770627120.181398,3149,a
1770627120.1924438,3139,a
1770627120.203413,3142,a
1770627120.214613,3147,a
1770627120.225455,3145,a
1770627120.2387142,3140,a
1770627120.2475038,3142,a
1770627120.259043,3139,a
1770627120.269453,3144,a
1770627120.280422,3149,a
1770627120.291444,3145,a
1770627120.3023849,3139,a
1770627120.31338,3143,a
1770627120.324419,3139,a
1770627120.335417,3147,a
1770627120.346417,3147,a
1770627120.359245,3135,a
1770627120.368414,3139,a
1770627120.3793879,3145,a
1770627120.3903942,3139,a
1770627120.4012978,3138,a
1770627120.412265,3149,a
1770627120.423251,3135,a
1770627120.434288,3139,a
1770627120.4452622,3146,a
1770627120.456248,3135,a
1770627120.467306,3140,a
1770627120.4790442,3147,a
1770627120.489274,3139,a
1770627120.500273,3134,a
1770627120.5113049,3145,a
1770627120.5222342,3144,a
1770627120.5332632,3147,a
1770627120.54427,3148,a
1770627120.555296,3141,a
1770627120.566257,3144,a
1770627120.579028,3143,a
1770627120.588246,3145,a
1770627120.599217,3138,a
1770627120.610249,3140,a
1770627120.621264,3140,a
1770627120.632229,3149,a
1770627120.6432378,3140,a
1770627120.654256,3139,a
1770627120.6652281,3148,a
1770627120.678737,3138,a
1770627120.687226,3144,a
1770627120.6993659,3144,a
1770627120.709257,3138,a
1770627120.720135,3141,a
1770627120.731093,3051,a
1770627120.742126,3123,a
1770627120.753142,3138,a
1770627120.764098,3142,a
1770627120.775122,3135,a
1770627120.786145,3139,a
1770627120.798836,3144,a
1770627120.80814,3141,a
1770627120.819133,3145,a
1770627120.830085,3144,a
1770627120.841114,3140,a
1770627120.852117,3140,a
1770627120.8630831,3143,a
1770627120.8741188,3139,a
1770627120.885118,3143,a
1770627120.896118,3147,a
1770627120.907118,3136,a
1770627120.9187992,3143,a
1770627120.9290812,3149,a
1770627120.9401002,3136,a
1770627120.951108,3136,a
1770627120.96208,3147,a
1770627120.972964,3138,a
1770627120.983941,3136,a
1770627120.994978,3144,a
1770627121.0059881,3138,a
1770627121.0188,3141,a
1770627121.027943,3144,a
1770627121.039231,3136,a
1770627121.049938,3138,a
1770627121.0609548,3147,a
1770627121.071948,3142,a
1770627121.082935,3139,a
1770627121.0939798,3148,a
1770627121.104927,3142,a
1770627121.1159198,3143,a
1770627121.126966,3139,a
1770627121.1391811,3142,a
1770627121.148967,3141,a
1770627121.159932,3139,a
1770627121.170945,3140,a
1770627121.1819541,3150,a
1770627121.192944,3142,a
1770627121.203924,3139,a
1770627121.214954,3151,a
1770627121.225934,3134,a
1770627121.2385101,3136,a
1770627121.247945,3148,a
1770627121.259077,3135,a
1770627121.269948,3138,a
1770627121.280941,3145,a
1770627121.291827,3139,a
1770627121.3028018,3138,a
1770627121.313832,3150,a
1770627121.324789,3143,a
1770627121.335781,3144,a
1770627121.346825,2390,a
1770627121.358896,3110,a
1770627121.368771,3135,a
1770627121.3798048,3146,a
1770627121.390809,3143,a
1770627121.40178,3145,a
1770627121.4128158,3145,a
1770627121.423806,3134,a
1770627121.434768,3136,a
1770627121.445775,3142,a
1770627121.45684,3140,a
1770627121.467818,3146,a
1770627121.479211,3140,a
1770627121.489769,3136,a
1770627121.500799,3141,a
1770627121.511775,3142,a
1770627121.522796,3139,a
1770627121.533798,3143,a
1770627121.544757,3141,a
1770627121.555804,3142,a
1770627121.566787,3138,a
1770627121.578806,3146,a
1770627121.588802,3142,a
1770627121.599802,3140,a
1770627121.610631,3142,a
1770627121.621674,3141,a
1770627121.632649,3139,a
1770627121.643639,3145,a
1770627121.654623,3139,a
1770627121.665667,3143,a
1770627121.679011,3143,a
1770627121.687634,3140,a
1770627121.699071,3146,a
1770627121.709664,3139,a
1770627121.7207081,3143,a
1770627121.731668,3143,a
1770627121.742679,3138,a
1770627121.753678,3145,a
1770627121.7646148,3148,a
1770627121.77563,3141,a
1770627121.786617,3140,a
1770627121.798521,3144,a
1770627121.80864,3141,a
1770627121.819628,3144,a
1770627121.830647,3151,a
1770627121.841603,3140,a
1770627121.852621,3143,a
1770627121.863657,3149,a
1770627121.874649,3138,a
1770627121.885612,3144,a
1770627121.89665,3147,a
1770627121.907497,3142,a
1770627121.9188328,3139,a
1770627121.929517,3146,a
1770627121.94051,3141,a
1770627121.951503,3142,a
1770627121.962527,3143,a
1770627121.97349,3140,a
1770627121.984469,3149,a
1770627121.995475,3146,a
1770627122.0065331,3138,a
1770627122.0185962,3144,a
1770627122.0284958,3147,a
1770627122.039495,3146,a
1770627122.0505202,3142,a
1770627122.0614731,3145,a
1770627122.0725062,3136,a
1770627122.083516,3139,a
1770627122.094503,3143,a
1770627122.1055,3138,a
1770627122.1185439,3134,a
1770627122.12752,3137,a
1770627122.1392,3140,a
1770627122.149468,3144,a
1770627122.160445,3143,a
1770627122.171471,3140,a
1770627122.182508,3137,a
1770627122.193475,3139,a
1770627122.204364,3140,a
1770627122.215394,3145,a
1770627122.226311,3142,a
1770627122.238354,3142,a
1770627122.248332,3150,a
1770627122.2593222,3135,a
1770627122.270349,3139,a
1770627122.2813702,3147,a
1770627122.292332,3134,a
1770627122.303352,3138,a
1770627122.314198,815,a
1770627122.3253288,3022,a
1770627122.3363469,3029,a
1770627122.347359,3131,a
1770627122.3589408,3142,a
1770627122.369341,1555,a
1770627122.380338,3037,a
1770627122.391377,3131,a
1770627122.402326,3133,a
1770627122.413344,3146,a
1770627122.424311,3137,a
1770627122.435339,3144,a
1770627122.446333,3149,a
1770627122.458386,3142,a
1770627122.468299,3141,a
1770627122.4793248,3140,a
1770627122.490329,3139,a
1770627122.501316,3142,a
1770627122.5122838,3143,a
1770627122.52332,3133,a
1770627122.534314,3142,a
1770627122.545336,3143,a
1770627122.5562298,3134,a
1770627122.567169,3136,a
1770627122.578206,3147,a
1770627122.589185,3142,a
1770627122.600201,3139,a
1770627122.611203,3141,a
1770627122.622207,3137,a
1770627122.633167,3144,a
1770627122.644192,3141,a
1770627122.6551712,3139,a
1770627122.666198,3141,a
1770627122.678493,3139,a
1770627122.688193,3139,a
1770627122.69919,3145,a
1770627122.71019,3137,a
1770627122.721178,3136,a
1770627122.732203,3142,a
1770627122.743142,3143,a
1770627122.7541409,3139,a
1770627122.765179,3150,a
1770627122.778198,3134,a
1770627122.787143,3139,a
1770627122.798282,3147,a
1770627122.809144,3140,a
1770627122.820171,3141,a
1770627122.831176,3143,a
1770627122.842131,3135,a
1770627122.853162,3139,a
1770627122.8641798,3144,a
1770627122.8751569,3138,a
1770627122.886174,3141,a
1770627122.898565,3137,a
1770627122.908128,3135,a
1770627122.919156,3145,a
1770627122.930149,3152,a
1770627122.941165,3133,a
1770627122.95204,3136,a
1770627122.963053,3144,a
1770627122.974004,3142,a
1770627122.985009,3144,a
1770627122.997798,3141,a
1770627123.007013,3138,a
1770627123.018671,3146,a
1770627123.029004,3141,a
1770627123.039993,3144,a
1770627123.050994,3147,a
1770627123.062,3148,a
1770627123.073011,3136,a
1770627123.084022,3144,a
1770627123.0950541,3143,a
1770627123.106018,3135,a
1770627123.1188512,3136,a
1770627123.128035,3147,a
1770627123.139046,3136,a
1770627123.1500149,3135,a
1770627123.161013,3139,a
1770627123.1720262,3133,a
1770627123.183042,3142,a
1770627123.1940238,3144,a
1770627123.2049909,3137,a
1770627123.215979,3145,a
1770627123.227017,3142,a
1770627123.238057,3142,a
1770627123.248965,3145,a
1770627123.2599812,3142,a
1770627123.271017,1174,a
1770627123.281975,3035,a
1770627123.29302,3128,a
1770627123.303974,3132,a
1770627123.314969,3146,a
1770627123.326018,3139,a
1770627123.338867,3138,a
1770627123.3478558,3143,a
1770627123.358877,3140,a
1770627123.369897,3140,a
1770627123.380849,3146,a
1770627123.391895,3141,a
1770627123.4028502,3143,a
1770627123.413867,1018,a
1770627123.424875,3026,a
1770627123.4358678,3127,a
1770627123.446877,3145,a
1770627123.458836,3143,a
1770627123.468867,3137,a
1770627123.479857,3141,a
1770627123.490874,3140,a
1770627123.5018291,3141,a
1770627123.512886,3142,a
1770627123.5238411,3141,a
1770627123.53488,3138,a
1770627123.545844,3145,a
1770627123.558617,2653,a
1770627123.567856,3123,a
1770627123.578825,3138,a
1770627123.589822,3143,a
1770627123.600853,3143,a
1770627123.611852,3141,a
1770627123.6226938,3137,a
1770627123.633736,3142,a
1770627123.644732,3147,a
1770627123.655688,3140,a
1770627123.666741,3141,a
1770627123.678367,3141,a
1770627123.6887019,3141,a
1770627123.699727,3145,a
1770627123.7107358,3148,a
1770627123.7216818,3140,a
1770627123.732723,3143,a
1770627123.7437062,3145,a
1770627123.754668,3144,a
1770627123.765731,3147,a
1770627123.778163,3140,a
1770627123.787712,3136,a
1770627123.798699,3145,a
1770627123.80971,3144,a
1770627123.820705,3136,a
1770627123.831717,3143,a
1770627123.842707,3143,a
1770627123.853719,3138,a
1770627123.864683,3143,a
1770627123.877697,3140,a
1770627123.8867168,3145,a
1770627123.897778,3144,a
1770627123.908712,3150,a
1770627123.9197152,3143,a
1770627123.930668,3141,a
1770627123.941702,3147,a
1770627123.952697,3145,a
1770627123.963663,3145,a
1770627123.9745762,3144,a
1770627123.985587,3143,a
1770627123.998251,3147,a
1770627124.007565,3142,a
1770627124.018572,3142,a
1770627124.029611,3144,a
1770627124.040571,3140,a
1770627124.0515761,3135,a
1770627124.062706,3143,a
1770627124.073556,3143,a
1770627124.0845351,3143,a
1770627124.095566,3149,a
1770627124.1065369,3139,a
1770627124.118162,3144,a
1770627124.1286201,3145,a
1770627124.139562,3137,a
1770627124.150518,3142,a
1770627124.161528,3142,a
1770627124.172529,3139,a
1770627124.1835241,3143,a
1770627124.19456,3145,a
1770627124.205567,3140,a
1770627124.218103,3142,a
1770627124.227554,3143,a
1770627124.2385259,3145,a
1770627124.24956,3144,a
1770627124.2605429,3141,a
1770627124.271508,3139,a
1770627124.282557,3140,a
1770627124.293519,3144,a
1770627124.304566,3139,a
1770627124.315555,3143,a
1770627124.3265522,3142,a
1770627124.33858,3146,a
1770627124.348591,3143,a
1770627124.3594959,3146,a
1770627124.370501,3145,a
1770627124.381412,3139,a
1770627124.3923998,3145,a
1770627124.403373,3140,a
1770627124.414444,3143,a
1770627124.4253912,3141,a
1770627124.43781,3140,a
1770627124.447413,3143,a
1770627124.458406,3146,a
1770627124.46942,3142,a
1770627124.480408,3147,a
1770627124.4914181,3153,a
1770627124.5024042,3138,a
1770627124.5133781,3144,a
1770627124.524378,3145,a
1770627124.535371,3143,a
1770627124.546365,3146,a
1770627124.558509,3147,a
1770627124.568427,3143,a
1770627124.579365,3145,a
1770627124.590375,3147,a
1770627124.6013608,3138,a
1770627124.612363,3144,a
1770627124.6234019,3149,a
1770627124.6343832,3145,a
1770627124.645379,3146,a
1770627124.6564019,3147,a
1770627124.667382,3146,a
1770627124.6783779,3144,a
1770627124.689353,3142,a
1770627124.700377,3139,a
1770627124.71136,3146,a
1770627124.722385,3137,a
1770627124.733387,3144,a
1770627124.744361,3144,a
1770627124.755353,3142,a
1770627124.7663622,3140,a
1770627124.778184,3145,a
1770627124.7883809,3142,a
1770627124.7993731,3137,a
1770627124.810377,3141,a
1770627124.821229,3138,a
1770627124.832264,3137,a
1770627124.843219,3147,a
1770627124.8542569,3138,a
1770627124.86527,3144,a
1770627124.8775628,3139,a
1770627124.8872352,3139,a
1770627124.898338,3137,a
1770627124.909268,3142,a
1770627124.920274,3145,a
1770627124.931253,3137,a
1770627124.942244,3144,a
1770627124.9532108,3139,a
1770627124.964206,3143,a
1770627124.9752471,3143,a
1770627124.986243,3143,a
1770627124.998325,3141,a
1770627125.008255,3141,a
1770627125.019244,3144,a
1770627125.030244,3142,a
1770627125.0412369,3144,a
1770627125.052238,3143,a
1770627125.0632489,3143,a
1770627125.074242,3143,a
1770627125.085206,3138,a
1770627125.096242,3141,a
1770627125.107214,3144,a
1770627125.118256,3142,a
1770627125.1292422,3140,a
1770627125.140189,3147,a
1770627125.151189,3137,a
1770627125.1621969,3145,a
1770627125.173214,3146,a
1770627125.184188,3140,a
1770627125.1952388,3142,a
1770627125.206193,3145,a
1770627125.218289,3146,a
1770627125.2282271,3146,a
1770627125.2391942,3145,a
1770627125.2501981,3138,a
1770627125.2611809,3146,a
1770627125.2722318,3137,a
1770627125.2832372,3137,a
1770627125.294227,3145,a
1770627125.305239,3137,a
1770627125.317927,3142,a
1770627125.3272161,3143,a
1770627125.33835,3137,a
1770627125.34921,3141,a
1770627125.360092,3144,a
1770627125.3710961,3142,a
1770627125.382106,3142,a
1770627125.393101,3139,a
1770627125.404049,3141,a
1770627125.415094,3143,a
1770627125.4260511,3144,a
1770627125.437612,3137,a
1770627125.448087,3141,a
1770627125.45905,3142,a
1770627125.470098,3139,a
1770627125.4810839,3141,a
1770627125.492042,3146,a
1770627125.503058,3140,a
1770627125.514059,3141,a
1770627125.5250409,3140,a
1770627125.536075,3142,a
1770627125.547071,3144,a
1770627125.5582972,3143,a
1770627125.56908,3144,a
1770627125.580066,3143,a
1770627125.5910442,3142,a
1770627125.602061,3146,a
1770627125.613075,3137,a
1770627125.624037,3143,a
1770627125.635056,3141,a
1770627125.646065,3145,a
1770627125.658261,3141,a
1770627125.6680372,3139,a
1770627125.67903,3145,a
1770627125.690038,3145,a
1770627125.701029,3140,a
1770627125.71207,3146,a
1770627125.723063,3145,a
1770627125.73406,3142,a
1770627125.7450671,3141,a
1770627125.7560582,3145,a
1770627125.7670422,3145,a
1770627125.778039,3145,a
1770627125.789052,3139,a
1770627125.7999392,3138,a
1770627125.8109262,3150,a
1770627125.821938,3137,a
1770627125.832934,3141,a
1770627125.8439538,3146,a
1770627125.854923,3138,a
1770627125.8658931,3139,a
1770627125.877506,3141,a
1770627125.887937,3143,a
1770627125.8989382,3141,a
1770627125.909886,3137,a
1770627125.920919,3141,a
1770627125.931898,3135,a
1770627125.942892,3139,a
1770627125.95392,3141,a
1770627125.964879,3143,a
1770627125.9758878,3143,a
1770627125.986901,3141,a
1770627125.9979892,3141,a
1770627126.008867,3141,a
1770627126.019878,3142,a
1770627126.030869,3138,a
1770627126.041905,3140,a
1770627126.0529149,3143,a
1770627126.063872,3138,a
1770627126.074893,3139,a
1770627126.0859141,3142,a
1770627126.098196,3139,a
1770627126.107808,3142,a
1770627126.118783,3142,a
1770627126.129795,3146,a
1770627126.140758,3138,a
1770627126.151778,3140,a
1770627126.16281,3146,a
1770627126.17378,3138,a
1770627126.184771,3142,a
1770627126.195765,3145,a
1770627126.206749,3140,a
1770627126.217762,3138,a
1770627126.2287529,3145,a
1770627126.239737,3142,a
1770627126.2507808,3144,a
1770627126.26176,3141,a
1770627126.272736,3140,a
1770627126.2837381,3144,a
1770627126.294771,3144,a
1770627126.305795,3144,a
1770627126.317942,3146,a
1770627126.3277812,3138,a
1770627126.338737,3137,a
1770627126.349786,3145,a
1770627126.36077,3143,a
1770627126.371767,3138,a
1770627126.3827221,3143,a
1770627126.393771,3142,a
1770627126.404726,3136,a
1770627126.4157639,3139,a
1770627126.426676,3144,a
1770627126.437817,3144,a
1770627126.448595,3139,a
1770627126.459604,3140,a
1770627126.470594,3144,a
1770627126.481606,3141,a
1770627126.492644,3140,a
1770627126.503625,3143,a
1770627126.514585,3139,a
1770627126.52564,3139,a
1770627126.538008,3143,a
1770627126.5475972,3138,a
1770627126.558594,3142,a
1770627126.5695791,3137,a
1770627126.5806248,3137,a
1770627126.591595,3138,a
1770627126.602612,3138,a
1770627126.613596,3143,a
1770627126.6246169,3140,a
1770627126.635581,3144,a
1770627126.646625,3144,a
1770627126.658114,3140,a
1770627126.6686022,3143,a
1770627126.679575,3139,a
1770627126.690615,3140,a
1770627126.701609,3138,a
1770627126.7126248,3143,a
1770627126.7236109,3139,a
1770627126.734577,3140,a
1770627126.7455812,3143,a
1770627126.757548,3141,a
1770627126.767615,3140,a
1770627126.7785778,3146,a
1770627126.7895749,3143,a
1770627126.800603,3141,a
1770627126.811591,3146,a
1770627126.822604,3142,a
1770627126.8336,3145,a
1770627126.844567,3144,a
1770627126.855607,3144,a
1770627126.8666189,3145,a
1770627126.877965,3140,a
1770627126.888608,3142,a
1770627126.899467,3145,a
1770627126.9104588,3143,a
1770627126.9214568,3138,a
1770627126.932488,3141,a
1770627126.943449,3143,a
1770627126.954443,3143,a
1770627126.9656398,3137,a
1770627126.979778,3137,a
1770627126.987463,3142,a
1770627126.999465,3140,a
1770627127.009483,3142,a
1770627127.0204291,3143,a
1770627127.031471,3140,a
1770627127.0424361,3142,a
1770627127.0534332,3139,a
1770627127.06445,3138,a
1770627127.0754728,3141,a
1770627127.086442,3139,a
1770627127.097457,3142,a
1770627127.108435,3137,a
1770627127.119437,3139,a
1770627127.1304598,3142,a
1770627127.1414242,3139,a
1770627127.152425,3141,a
1770627127.163413,3142,a
1770627127.174465,3138,a
1770627127.185434,3138,a
1770627127.197622,3141,a
1770627127.207426,3139,a
1770627127.218424,3140,a
1770627127.229449,3146,a
1770627127.2404459,3144,a
1770627127.25141,3142,a
1770627127.262429,3138,a
1770627127.273458,3144,a
1770627127.2844548,3137,a
1770627127.295447,3143,a
1770627127.3064268,3143,a
1770627127.317634,3139,a
1770627127.3284109,3143,a
1770627127.339434,3140,a
1770627127.3504372,3143,a
1770627127.361396,3147,a
1770627127.3723252,3139,a
1770627127.383282,3145,a
1770627127.39427,3142,a
1770627127.405283,3146,a
1770627127.417654,3145,a
1770627127.427298,3140,a
1770627127.438297,3135,a
1770627127.449276,3139,a
1770627127.460275,3144,a
1770627127.4713259,3138,a
1770627127.482311,3141,a
1770627127.49327,3142,a
1770627127.504288,3140,a
1770627127.515332,3139,a
1770627127.5262809,3145,a
1770627127.538352,3143,a
1770627127.548312,3142,a
1770627127.559275,3142,a
1770627127.5703511,3136,a
1770627127.581305,3139,a
1770627127.592273,3144,a
1770627127.6032798,3143,a
1770627127.6143029,3138,a
1770627127.625275,3143,a
1770627127.638189,3139,a
1770627127.647309,3142,a
1770627127.6582882,3138,a
1770627127.6692631,3138,a
1770627127.6802611,3137,a
1770627127.6912901,3141,a
1770627127.70227,3138,a
1770627127.713305,3140,a
1770627127.724282,3138,a
1770627127.735287,3145,a
1770627127.74629,3145,a
1770627127.758067,3137,a
1770627127.7682471,3144,a
1770627127.779286,3142,a
1770627127.7903008,3145,a
1770627127.801298,3137,a
1770627127.812294,3143,a
1770627127.823255,3140,a
1770627127.834281,3143,a
1770627127.845252,3146,a
1770627127.857623,3144,a
1770627127.8672462,3141,a
1770627127.8782809,3148,a
1770627127.88925,3143,a
1770627127.900254,3143,a
1770627127.911291,3140,a
1770627127.9222982,3139,a
1770627127.933258,3144,a
1770627127.944285,3142,a
1770627127.9552798,3141,a
1770627127.966293,3144,a
1770627127.9779751,3140,a
1770627127.9882581,3146,a
1770627127.99925,3140,a
1770627128.010283,3150,a
1770627128.0212722,3136,a
1770627128.032244,3139,a
1770627128.043238,3144,a
1770627128.054276,3141,a
1770627128.065238,3137,a
1770627128.0762508,3140,a
1770627128.087274,3137,a
1770627128.098165,3144,a
1770627128.109154,3139,a
1770627128.1201532,3141,a
1770627128.131156,3142,a
1770627128.142258,3140,a
1770627128.153118,3140,a
1770627128.1641731,3140,a
1770627128.175123,3138,a
1770627128.186101,3142,a
1770627128.1979241,3142,a
1770627128.208104,3138,a
1770627128.2191591,3140,a
1770627128.230148,3137,a
1770627128.24111,3144,a
1770627128.252099,3143,a
1770627128.263108,3140,a
1770627128.274106,3139,a
1770627128.285129,3138,a
1770627128.296112,3137,a
1770627128.3070982,3143,a
1770627128.318136,3143,a
1770627128.329132,3139,a
1770627128.340121,3141,a
1770627128.351105,3137,a
1770627128.362095,3144,a
1770627128.373101,3142,a
1770627128.384127,3140,a
1770627128.3951302,3141,a
1770627128.406121,3144,a
1770627128.417432,3138,a
1770627128.428098,3141,a
1770627128.439116,3146,a
1770627128.450094,3142,a
1770627128.461123,3144,a
1770627128.47213,3148,a
1770627128.4831018,3146,a
1770627128.494093,3142,a
1770627128.505106,3142,a
1770627128.517427,3140,a
1770627128.527004,3138,a
1770627128.537992,3143,a
1770627128.5489962,3141,a
1770627128.559998,3146,a
1770627128.570986,3137,a
1770627128.581964,3139,a
1770627128.592969,3146,a
1770627128.6039839,3141,a
1770627128.61495,3144,a
1770627128.625962,3143,a
1770627128.637613,3142,a
1770627128.647958,3142,a
1770627128.658954,3140,a
1770627128.669987,3143,a
1770627128.680993,3141,a
1770627128.691989,3141,a
1770627128.702964,3139,a
1770627128.713949,3140,a
1770627128.7249851,3141,a
1770627128.7359722,3142,a
1770627128.7469802,3138,a
1770627128.75804,3136,a
1770627128.768982,3143,a
1770627128.779976,3137,a
1770627128.791002,3135,a
1770627128.801961,3143,a
1770627128.8129542,3142,a
1770627128.823943,3137,a
1770627128.834993,3140,a
1770627128.845975,3144,a
1770627128.857772,3134,a
1770627128.8679621,3136,a
1770627128.878936,3144,a
1770627128.8898492,3143,a
1770627128.900819,3139,a
1770627128.911851,3146,a
1770627128.922831,3139,a
1770627128.933842,3139,a
1770627128.944851,3147,a
1770627128.955841,3140,a
1770627128.966804,3137,a
1770627128.9778152,3147,a
1770627128.988807,3142,a
1770627128.999836,3141,a
1770627129.010846,3139,a
1770627129.021805,3145,a
1770627129.0328178,3147,a
1770627129.0438159,3143,a
1770627129.054804,3140,a
1770627129.065848,3141,a
1770627129.076811,3147,a
1770627129.0877929,3139,a
1770627129.098824,3140,a
1770627129.1098418,3143,a
1770627129.120785,3138,a
1770627129.131835,3138,a
1770627129.1427982,3142,a
1770627129.153829,3141,a
1770627129.1648011,3139,a
1770627129.176842,3138,a
1770627129.1867971,3139,a
1770627129.19781,3140,a
1770627129.2087958,3143,a
1770627129.2198222,3141,a
1770627129.230798,3141,a
1770627129.241792,3140,a
1770627129.252842,3141,a
1770627129.26366,3138,a
1770627129.2747068,3140,a
1770627129.285696,3142,a
1770627129.297152,3143,a
1770627129.3077178,3140,a
1770627129.318689,3141,a
1770627129.329659,3142,a
1770627129.340692,3141,a
1770627129.351694,3143,a
1770627129.3626502,3140,a
1770627129.373697,3141,a
1770627129.38468,3137,a
1770627129.3956459,3143,a
1770627129.406681,3144,a
1770627129.417687,3138,a
1770627129.428705,3142,a
1770627129.4396758,3138,a
1770627129.450646,3135,a
1770627129.461664,3139,a
1770627129.4726899,3145,a
1770627129.483689,3143,a
1770627129.494656,3144,a
1770627129.505655,3141,a
1770627129.517272,3141,a
1770627129.5276558,3144,a
1770627129.538647,3145,a
1770627129.5497012,3139,a
1770627129.560562,3141,a
1770627129.571532,3143,a
1770627129.5825229,3147,a
1770627129.593533,3138,a
1770627129.6045032,3142,a
1770627129.61553,3142,a
1770627129.626528,3151,a
1770627129.6379368,3135,a
1770627129.648553,3138,a
1770627129.6595242,3145,a
1770627129.670527,3141,a
1770627129.681505,3136,a
1770627129.6925042,3142,a
1770627129.703537,3133,a
1770627129.714553,3141,a
1770627129.7255208,3137,a
1770627129.737654,3138,a
1770627129.747542,3140,a
1770627129.758514,3139,a
1770627129.769516,3139,a
1770627129.780514,3141,a
1770627129.791512,3138,a
1770627129.80251,3148,a
1770627129.813515,3137,a
1770627129.824548,3135,a
1770627129.835522,3134,a
1770627129.8465521,3141,a
1770627129.857555,3139,a
1770627129.8685372,3136,a
1770627129.879491,3143,a
1770627129.8905249,3142,a
1770627129.901529,3138,a
1770627129.912527,3141,a
1770627129.923498,3134,a
1770627129.934497,3138,a
1770627129.9455092,3142,a
1770627129.9574568,3142,a
1770627129.967367,3141,a
1770627129.9784,3145,a
1770627129.989418,3139,a
1770627130.000366,3142,a
1770627130.0114079,3145,a
1770627130.022382,3138,a
1770627130.033401,3145,a
1770627130.044416,3143,a
1770627130.0553741,3146,a
1770627130.0663722,3141,a
1770627130.077399,3143,a
1770627130.088355,3145,a
1770627130.0993888,3140,a
1770627130.110377,3144,a
1770627130.1213481,3141,a
1770627130.1323662,3144,a
1770627130.143358,3146,a
1770627130.154361,3142,a
1770627130.1653981,3144,a
1770627130.177153,3145,a
1770627130.1873522,3136,a
1770627130.1983821,3138,a
1770627130.209398,3144,a
1770627130.220232,3141,a
1770627130.231283,3138,a
1770627130.2422311,3141,a
1770627130.2532768,3142,a
1770627130.264283,3140,a
1770627130.275276,3143,a
1770627130.2862248,3140,a
1770627130.2972429,3141,a
1770627130.308254,3141,a
1770627130.319243,3137,a
1770627130.330266,3143,a
1770627130.341221,3140,a
1770627130.352261,3140,a
1770627130.363225,3141,a
1770627130.374233,3138,a
1770627130.385216,3136,a
1770627130.397276,3141,a
1770627130.4072618,3142,a
1770627130.418218,3138,a
1770627130.429217,3143,a
1770627130.440243,3136,a
1770627130.451257,3137,a
1770627130.4622211,3139,a
1770627130.473259,3144,a
1770627130.484274,3142,a
1770627130.4952278,3143,a
1770627130.50613,3142,a
1770627130.5171509,3145,a
1770627130.528137,3143,a
1770627130.539123,3145,a
1770627130.5501199,3138,a
1770627130.5610921,3141,a
1770627130.5721111,3141,a
1770627130.5830882,3144,a
1770627130.5941,3146,a
1770627130.6051042,3147,a
1770627130.617151,3141,a
1770627130.6271229,3141,a
1770627130.638092,3141,a
1770627130.6490712,3140,a
1770627130.660118,3142,a
1770627130.6711,3145,a
1770627130.6820831,3136,a
1770627130.693121,3144,a
1770627130.704088,3139,a
1770627130.7150788,3138,a
1770627130.7261162,3143,a
1770627130.737107,3135,a
1770627130.748116,3141,a
1770627130.759079,3140,a
1770627130.770103,3138,a
1770627130.781104,3138,a
1770627130.79211,3142,a
1770627130.803089,3144,a
1770627130.814068,3137,a
1770627130.8249862,3139,a
1770627130.8376,3139,a
1770627130.846983,3142,a
1770627130.857981,3143,a
1770627130.868963,3138,a
1770627130.8799748,3137,a
1770627130.890977,3133,a
1770627130.901956,3137,a
1770627130.9129841,3139,a
1770627130.9239712,3138,a
1770627130.9349499,3139,a
1770627130.945964,3141,a
1770627130.957098,3138,a
1770627130.9679658,3138,a
1770627130.978935,3145,a
1770627130.989943,3140,a
1770627131.000992,3143,a
1770627131.0119412,3144,a
1770627131.022932,3138,a
1770627131.033977,3140,a
1770627131.04496,3141,a
1770627131.055962,3144,a
1770627131.0669498,3143,a
1770627131.077926,3142,a
1770627131.0889778,3147,a
1770627131.099852,3147,a
1770627131.11085,3144,a
1770627131.121836,3146,a
1770627131.132871,3138,a
1770627131.14381,3145,a
1770627131.154847,3145,a
1770627131.1658628,3145,a
1770627131.17758,3139,a
1770627131.18787,3141,a
1770627131.198794,3140,a
1770627131.209803,3142,a
1770627131.220789,3139,a
1770627131.231811,3142,a
1770627131.242789,3141,a
1770627131.25383,3136,a
1770627131.264842,3140,a
1770627131.275819,3145,a
1770627131.286834,3135,a
1770627131.297803,3138,a
1770627131.308797,3139,a
1770627131.319804,3144,a
1770627131.330834,3138,a
1770627131.341789,3143,a
1770627131.3527942,3139,a
1770627131.363797,3136,a
1770627131.374781,3141,a
1770627131.385814,3137,a
1770627131.397603,3143,a
1770627131.407697,3141,a
1770627131.4187121,3139,a
1770627131.429708,3141,a
1770627131.440715,3139,a
1770627131.451672,3144,a
1770627131.462734,3137,a
1770627131.4737222,3138,a
1770627131.484697,3145,a
1770627131.496834,3137,a
1770627131.5067,3138,a
1770627131.5176692,3142,a
1770627131.528676,3141,a
1770627131.539686,3139,a
1770627131.550647,3137,a
1770627131.561665,3143,a
1770627131.572696,3144,a
1770627131.5836742,3140,a
1770627131.59468,3142,a
1770627131.605698,3142,a
1770627131.6170912,3139,a
1770627131.627671,3142,a
1770627131.638667,3139,a
1770627131.649667,3138,a
1770627131.660639,3142,a
1770627131.6716611,3146,a
1770627131.6826398,3140,a
1770627131.693703,3144,a
1770627131.704687,3143,a
1770627131.715652,3150,a
1770627131.726681,3142,a
1770627131.737524,3143,a
1770627131.748537,3142,a
1770627131.7595258,3146,a
1770627131.7705631,3135,a
1770627131.7815292,3141,a
1770627131.7925289,3140,a
1770627131.803551,3137,a
1770627131.81458,3142,a
1770627131.825523,3144,a
1770627131.8369222,3137,a
1770627131.847552,3138,a
1770627131.8585489,3141,a
1770627131.8695538,3143,a
1770627131.8805408,3141,a
1770627131.891535,3139,a
1770627131.902512,3142,a
1770627131.9135811,3138,a
1770627131.924511,3138,a
1770627131.935503,3140,a
1770627131.946542,3140,a
1770627131.957524,3142,a
1770627131.968537,3139,a
1770627131.9795468,3139,a
1770627131.990496,3137,a
1770627132.001514,3136,a
1770627132.012542,3140,a
1770627132.0233998,3137,a
1770627132.034431,3141,a
1770627132.0454311,3141,a
1770627132.057544,3139,a
1770627132.067412,3144,a
1770627132.07838,3143,a
1770627132.089382,3138,a
1770627132.100378,3141,a
1770627132.111379,3142,a
1770627132.1223779,3144,a
1770627132.133408,3143,a
1770627132.1444259,3143,a
1770627132.155396,3145,a
1770627132.166425,3143,a
1770627132.177383,3143,a
1770627132.1884239,3143,a
1770627132.199417,3138,a
1770627132.210407,3147,a
1770627132.2214022,3143,a
1770627132.232379,3148,a
1770627132.243385,3139,a
1770627132.254414,3142,a
1770627132.265383,3142,a
1770627132.277251,3143,a
1770627132.287447,3142,a
1770627132.2983732,3143,a
1770627132.309265,3144,a
1770627132.320243,3142,a
1770627132.331276,3137,a
1770627132.342252,3140,a
1770627132.353287,3138,a
1770627132.364253,3143,a
1770627132.376537,3144,a
1770627132.386299,3138,a
1770627132.3975732,3141,a
1770627132.408295,3138,a
1770627132.419271,3139,a
1770627132.4302511,3140,a
1770627132.4412491,3139,a
1770627132.452239,3144,a
1770627132.46324,3140,a
1770627132.474273,3141,a
1770627132.4852722,3139,a
1770627132.4975889,3140,a
1770627132.5072892,3139,a
1770627132.518257,3137,a
1770627132.5292559,3138,a
1770627132.540262,3138,a
1770627132.551255,3138,a
1770627132.562258,3139,a
1770627132.573268,3142,a
1770627132.584268,3145,a
1770627132.595254,3138,a
1770627132.606229,3138,a
1770627132.6172569,3140,a
1770627132.6282508,3146,a
1770627132.639282,3139,a
1770627132.650235,3143,a
1770627132.661139,3139,a
1770627132.672108,3145,a
1770627132.6830971,3137,a
1770627132.694144,3140,a
1770627132.7051048,3144,a
1770627132.717118,3137,a
1770627132.72711,3141,a
1770627132.738097,3141,a
1770627132.749106,3139,a
1770627132.760124,3145,a
1770627132.77114,3139,a
1770627132.78212,3149,a
1770627132.793118,3149,a
1770627132.804148,3141,a
1770627132.815116,3149,a
1770627132.826119,3144,a
1770627132.837474,3138,a
1770627132.848107,3142,a
1770627132.859097,3144,a
1770627132.870084,3138,a
1770627132.881102,3138,a
1770627132.892094,3139,a
1770627132.903115,3145,a
1770627132.9141052,3136,a
1770627132.92512,3140,a
1770627132.937498,3138,a
1770627132.947086,3134,a
1770627132.958115,3139,a
1770627132.96911,3144,a
1770627132.9801202,3142,a
1770627132.9910789,3144,a
1770627133.00211,3143,a
1770627133.013092,3139,a
1770627133.02412,3135,a
1770627133.034987,3139,a
1770627133.045996,3139,a
1770627133.057604,3136,a
1770627133.067963,3143,a
1770627133.078996,3140,a
1770627133.089955,3142,a
1770627133.1009521,3138,a
1770627133.111955,3148,a
1770627133.122963,3139,a
1770627133.133951,3143,a
1770627133.144973,3144,a
1770627133.1569548,3140,a
1770627133.166985,3141,a
1770627133.1779552,3140,a
1770627133.1889951,3141,a
1770627133.199955,3140,a
1770627133.210987,3140,a
1770627133.221983,3141,a
1770627133.233012,3136,a
1770627133.24399,3145,a
1770627133.254991,3147,a
1770627133.2660108,3137,a
1770627133.2771578,3143,a
1770627133.287945,3143,a
1770627133.298976,3147,a
1770627133.309978,3147,a
1770627133.320941,3147,a
1770627133.331979,3135,a
1770627133.342985,3138,a
1770627133.3539672,3136,a
1770627133.3649879,3142,a
1770627133.3759592,3143,a
1770627133.3869388,3142,a
1770627133.3979661,3139,a
1770627133.4089658,3141,a
1770627133.419945,3139,a
1770627133.43086,3140,a
1770627133.441828,3138,a
1770627133.4528089,3143,a
1770627133.463831,3135,a
1770627133.474853,3138,a
1770627133.4859142,3139,a
1770627133.497279,3142,a
1770627133.507827,3141,a
1770627133.518821,3142,a
1770627133.52982,3145,a
1770627133.540843,3144,a
1770627133.5518231,3139,a
1770627133.562847,3142,a
1770627133.573854,3138,a
1770627133.584812,3141,a
1770627133.5967848,3139,a
1770627133.6068218,3136,a
1770627133.6178272,3141,a
1770627133.6288471,3140,a
1770627133.639832,3137,a
1770627133.650835,3140,a
1770627133.661818,3142,a
1770627133.672838,3142,a
1770627133.68385,3143,a
1770627133.6948109,3142,a
1770627133.705802,3144,a
1770627133.716927,3141,a
1770627133.7278452,3142,a
1770627133.738794,3141,a
1770627133.749792,3142,a
1770627133.7607942,3145,a
1770627133.77183,3147,a
1770627133.782702,3143,a
1770627133.7936692,3142,a
1770627133.804728,3141,a
1770627133.8169541,3144,a
1770627133.826734,3149,a
1770627133.8376782,3139,a
1770627133.848702,3139,a
1770627133.8597,3146,a
1770627133.870711,3135,a
1770627133.8816938,3136,a
1770627133.892663,3139,a
1770627133.903727,3138,a
1770627133.914724,3145,a
1770627133.9257128,3140,a
1770627133.937133,3135,a
1770627133.9476979,3139,a
1770627133.9587042,3142,a
1770627133.969697,3136,a
1770627133.980692,3141,a
1770627133.991724,3139,a
1770627134.002659,3140,a
1770627134.0137,3141,a
1770627134.024707,3135,a
1770627134.035543,3134,a
1770627134.046564,3138,a
1770627134.057567,3139,a
1770627134.0685382,3140,a
1770627134.079571,3143,a
1770627134.090543,3142,a
1770627134.101533,3144,a
1770627134.112535,3141,a
1770627134.1235461,3142,a
1770627134.1345248,3138,a
1770627134.1455948,3143,a
1770627134.15871,3137,a
1770627134.172791,3138,a
1770627134.1785338,3139,a
1770627134.189538,3138,a
1770627134.200593,3138,a
1770627134.211571,3146,a
1770627134.2225652,3141,a
1770627134.2335339,3140,a
1770627134.2445571,3147,a
1770627134.255567,3139,a
1770627134.266552,3143,a
1770627134.277567,3143,a
1770627134.2885609,3145,a
1770627134.2995331,3143,a
1770627134.31056,3147,a
1770627134.321544,3144,a
1770627134.332553,3145,a
1770627134.343539,3140,a
1770627134.3545332,3141,a
1770627134.3655648,3139,a
1770627134.377255,3141,a
1770627134.387532,3141,a
1770627134.3985379,3140,a
1770627134.409399,3141,a
1770627134.4204311,3141,a
1770627134.431423,3134,a
1770627134.442392,3140,a
1770627134.453421,3136,a
1770627134.4644322,3135,a
1770627134.4753861,3141,a
1770627134.486424,3136,a
1770627134.497427,3139,a
1770627134.50838,3142,a
1770627134.5194309,3140,a
1770627134.530441,3141,a
1770627134.541385,3143,a
1770627134.552402,3139,a
1770627134.563401,3140,a
1770627134.5744371,3139,a
1770627134.58543,3139,a
1770627134.597301,3140,a
1770627134.6074188,3141,a
1770627134.618415,3140,a
1770627134.629419,3143,a
1770627134.6403918,3141,a
1770627134.651415,3143,a
1770627134.662424,3145,a
1770627134.673395,3138,a
1770627134.684382,3138,a
1770627134.695436,3136,a
1770627134.7063942,3139,a
1770627134.717439,3140,a
1770627134.728371,3141,a
1770627134.739409,3142,a
1770627134.75029,3142,a
1770627134.76128,3140,a
1770627134.772276,3137,a
1770627134.783238,3146,a
1770627134.794303,3147,a
1770627134.805295,3144,a
1770627134.81702,3142,a
1770627134.827286,3146,a
1770627134.838274,3143,a
1770627134.849252,3139,a
1770627134.8602781,3138,a
1770627134.871287,3140,a
1770627134.882268,3146,a
1770627134.8932962,3146,a
1770627134.9042602,3142,a
1770627134.915253,3144,a
1770627134.926255,3138,a
1770627134.9372458,3139,a
1770627134.9482381,3137,a
1770627134.95925,3144,a
1770627134.970279,3135,a
1770627134.981272,3135,a
1770627134.992268,3145,a
1770627135.003289,3141,a
1770627135.014279,3141,a
1770627135.02528,3144,a
1770627135.0375931,3142,a
1770627135.047261,3139,a
1770627135.05834,3144,a
1770627135.0692961,3142,a
1770627135.0802612,3137,a
1770627135.091297,3143,a
1770627135.1022651,3140,a
1770627135.113259,3138,a
1770627135.124253,3141,a
1770627135.135247,3138,a
1770627135.146275,3136,a
1770627135.157374,3139,a
1770627135.1682408,3139,a
1770627135.179147,3137,a
1770627135.190123,3139,a
1770627135.201109,3139,a
1770627135.212112,3143,a
1770627135.223117,3138,a
1770627135.234145,3139,a
1770627135.245162,3142,a
1770627135.2569711,3139,a
1770627135.2671301,3141,a
1770627135.278096,3145,a
1770627135.289116,3140,a
1770627135.300101,3139,a
1770627135.311123,3147,a
1770627135.32212,3142,a
1770627135.333121,3138,a
1770627135.3441448,3145,a
1770627135.355146,3146,a
1770627135.366153,3142,a
1770627135.377395,3146,a
1770627135.388116,3146,a
1770627135.399133,3143,a
1770627135.410126,3146,a
1770627135.421102,3141,a
1770627135.432093,3142,a
1770627135.443103,3144,a
1770627135.4540958,3139,a
1770627135.465138,3139,a
1770627135.477441,3143,a
1770627135.4871008,3143,a
1770627135.498098,3138,a
1770627135.509086,3142,a
1770627135.5199842,3141,a
1770627135.530994,3142,a
1770627135.541981,3136,a
1770627135.553031,3144,a
1770627135.5639858,3140,a
1770627135.57499,3147,a
1770627135.586022,3142,a
1770627135.5971782,3143,a
1770627135.6080089,3138,a
1770627135.619002,3141,a
1770627135.630034,3135,a
1770627135.640973,3136,a
1770627135.652009,3143,a
1770627135.662975,3139,a
1770627135.674013,3142,a
1770627135.6849651,3142,a
1770627135.6972742,3144,a
1770627135.7069771,3138,a
1770627135.717953,3142,a
1770627135.728967,3139,a
1770627135.739993,3143,a
1770627135.7509491,3142,a
1770627135.761981,3140,a
1770627135.7730072,3141,a
1770627135.783993,3136,a
1770627135.794969,3144,a
1770627135.806006,3139,a
1770627135.816951,3142,a
1770627135.82796,3145,a
1770627135.838967,3141,a
1770627135.849986,3144,a
1770627135.860959,3139,a
1770627135.8719501,3145,a
1770627135.882893,3138,a
1770627135.893863,3141,a
1770627135.904832,3141,a
1770627135.9168909,3142,a
1770627135.926835,3143,a
1770627135.937859,3139,a
1770627135.9488692,3145,a
1770627135.959851,3146,a
1770627135.9708312,3137,a
1770627135.981867,3141,a
1770627135.992842,3141,a
1770627136.00382,3137,a
1770627136.01486,3138,a
1770627136.02584,3143,a
1770627136.037127,3139,a
1770627136.0478652,3136,a
1770627136.058827,3143,a
1770627136.0698152,3137,a
1770627136.0808609,3140,a
1770627136.0918322,3142,a
1770627136.102819,3136,a
1770627136.113854,3137,a
1770627136.124832,3141,a
1770627136.136816,3138,a
1770627136.146881,3138,a
1770627136.157853,3137,a
1770627136.168829,3137,a
1770627136.179848,3144,a
1770627136.190848,3138,a
1770627136.2017212,3138,a
1770627136.2127202,3143,a
1770627136.223736,3137,a
1770627136.234698,3141,a
1770627136.245736,3137,a
1770627136.2574022,3137,a
1770627136.267704,3140,a
1770627136.27872,3142,a
1770627136.289734,3139,a
1770627136.3006878,3141,a
1770627136.311723,3147,a
1770627136.3226922,3141,a
1770627136.333695,3138,a
1770627136.344733,3148,a
1770627136.357027,3142,a
1770627136.366693,3138,a
1770627136.377712,3142,a
1770627136.388705,3147,a
1770627136.3997152,3136,a
1770627136.41074,3143,a
1770627136.421715,3147,a
1770627136.432714,3146,a
1770627136.443715,3145,a
1770627136.454706,3137,a
1770627136.465684,3144,a
1770627136.477491,3146,a
1770627136.487682,3136,a
1770627136.4987159,3136,a
1770627136.5096908,3146,a
1770627136.520566,3141,a
1770627136.531608,3139,a
1770627136.5425532,3140,a
1770627136.553577,3136,a
1770627136.564576,3138,a
1770627136.576977,3145,a
1770627136.5865989,3143,a
1770627136.597614,3135,a
1770627136.608584,3137,a
1770627136.619545,3140,a
1770627136.6305978,3139,a
1770627136.64159,3143,a
1770627136.652575,3140,a
1770627136.663581,3138,a
1770627136.674589,3143,a
1770627136.685556,3136,a
1770627136.6974971,3140,a
1770627136.70755,3142,a
1770627136.71858,3147,a
1770627136.729554,3139,a
1770627136.7405481,3140,a
1770627136.751574,3141,a
1770627136.7625751,3138,a
1770627136.7735791,3137,a
1770627136.784588,3142,a
1770627136.796801,3145,a
1770627136.806541,3145,a
1770627136.817651,3136,a
1770627136.828591,3141,a
1770627136.839575,3145,a
1770627136.850543,3141,a
1770627136.861606,3144,a
1770627136.8725739,3145,a
1770627136.883544,3141,a
1770627136.894471,3144,a
1770627136.905448,3144,a
1770627136.916854,3137,a
1770627136.927456,3139,a
1770627136.9384599,3144,a
1770627136.949413,3143,a
1770627136.960446,3145,a
1770627136.971452,3144,a
1770627136.98245,3141,a
1770627136.993452,3142,a
1770627137.004459,3134,a
1770627137.015457,3137,a
1770627137.0264199,3140,a
1770627137.0374248,3137,a
1770627137.048429,3136,a
1770627137.0594041,3140,a
1770627137.070455,3139,a
1770627137.081407,3135,a
1770627137.0924218,3138,a
1770627137.103411,3142,a
1770627137.1144068,3141,a
1770627137.125452,3144,a
1770627137.136789,3136,a
1770627137.147443,3143,a
1770627137.158415,3139,a
1770627137.16943,3143,a
1770627137.18044,3136,a
1770627137.191406,3135,a
1770627137.202421,3141,a
1770627137.213465,3141,a
1770627137.224409,3138,a
1770627137.2353122,3140,a
1770627137.246321,3139,a
1770627137.257306,3134,a
1770627137.268307,3136,a
1770627137.2793128,3145,a
1770627137.2902899,3135,a
1770627137.301311,3141,a
1770627137.312307,3140,a
1770627137.323285,3137,a
1770627137.334306,3138,a
1770627137.3453069,3145,a
1770627137.357266,3147,a
1770627137.367275,3137,a
1770627137.378309,3144,a
1770627137.389314,3141,a
1770627137.400331,3147,a
1770627137.411294,3142,a
1770627137.422306,3143,a
1770627137.433304,3139,a
1770627137.4443269,3142,a
1770627137.45531,3146,a
1770627137.466253,3145,a
1770627137.477461,3139,a
1770627137.488311,3139,a
1770627137.49927,3143,a
1770627137.510311,3148,a
1770627137.521291,3134,a
1770627137.53232,3140,a
1770627137.543283,3140,a
1770627137.5543108,3136,a
1770627137.565269,3140,a
1770627137.576407,3139,a
1770627137.587268,3141,a
1770627137.5983,3136,a
1770627137.609304,3143,a
1770627137.620258,3140,a
1770627137.631252,3144,a
1770627137.642292,3136,a
1770627137.653319,3141,a
1770627137.6642718,3141,a
1770627137.6752598,3138,a
1770627137.68627,3138,a
1770627137.697385,3138,a
1770627137.708308,3136,a
1770627137.7193012,3138,a
1770627137.730203,3140,a
1770627137.741166,3138,a
1770627137.752178,3138,a
1770627137.763157,3137,a
1770627137.774147,3140,a
1770627137.785172,3139,a
1770627137.797228,3136,a
1770627137.807138,3140,a
1770627137.818169,3139,a
1770627137.829165,3143,a
1770627137.840144,3143,a
1770627137.8511648,3143,a
1770627137.862165,3145,a
1770627137.873167,3147,a
1770627137.884182,3139,a
1770627137.895173,3143,a
1770627137.9061272,3139,a
1770627137.9171681,3136,a
1770627137.9281678,3140,a
1770627137.939156,3145,a
1770627137.9501572,3144,a
1770627137.961186,3140,a
1770627137.972129,3147,a
1770627137.9831328,3146,a
1770627137.994165,3147,a
1770627138.005138,3143,a
1770627138.017012,3143,a
1770627138.027145,3149,a
1770627138.038131,3135,a
1770627138.0491772,3138,a
1770627138.060033,3145,a
1770627138.070997,3140,a
1770627138.0820422,3142,a
1770627138.093041,3138,a
1770627138.1040099,3139,a
1770627138.1150029,3138,a
1770627138.1260102,3144,a
1770627138.137013,3139,a
1770627138.148005,3141,a
1770627138.159004,3142,a
1770627138.1699991,3139,a
1770627138.1810298,3143,a
1770627138.192014,3143,a
1770627138.202999,3137,a
1770627138.2140381,3142,a
1770627138.224997,3135,a
1770627138.237189,3140,a
1770627138.2470322,3135,a
1770627138.258029,3140,a
1770627138.269057,3140,a
1770627138.279988,3142,a
1770627138.2910368,3137,a
1770627138.301996,3139,a
1770627138.313005,3141,a
1770627138.32403,3142,a
1770627138.334979,3139,a
1770627138.346014,3145,a
1770627138.3569868,3140,a
1770627138.3680089,3138,a
1770627138.3790011,3145,a
1770627138.3900118,3136,a
1770627138.401015,3143,a
1770627138.411984,3138,a
1770627138.423032,3147,a
1770627138.4340181,3142,a
1770627138.44499,3138,a
1770627138.456924,3144,a
1770627138.466996,3137,a
1770627138.477982,3145,a
1770627138.4889758,3141,a
1770627138.50001,3145,a
1770627138.510995,3145,a
1770627138.5220249,3144,a
1770627138.5330172,3139,a
1770627138.544024,3138,a
1770627138.555021,3137,a
1770627138.566035,3146,a
1770627138.577045,3140,a
1770627138.5879061,3136,a
1770627138.598907,3141,a
1770627138.609888,3145,a
1770627138.620876,3138,a
1770627138.6318982,3136,a
1770627138.6428611,3137,a
1770627138.653864,3139,a
1770627138.6648982,3136,a
1770627138.677202,3136,a
1770627138.68687,3139,a
1770627138.69787,3138,a
1770627138.708856,3140,a
1770627138.719859,3138,a
1770627138.730897,3141,a
1770627138.741861,3139,a
1770627138.7528992,3141,a
1770627138.76387,3142,a
1770627138.7748559,3136,a
1770627138.785857,3136,a
1770627138.797056,3139,a
1770627138.807869,3139,a
1770627138.818851,3146,a
1770627138.829878,3138,a
1770627138.8408692,3138,a
1770627138.851862,3138,a
1770627138.862848,3138,a
1770627138.873869,3143,a
1770627138.88484,3144,a
1770627138.895843,3144,a
1770627138.906862,3145,a
1770627138.917849,3137,a
1770627138.928877,3143,a
1770627138.939873,3140,a
1770627138.950835,3139,a
1770627138.961877,3139,a
1770627138.972882,3143,a
1770627138.983857,3144,a
1770627138.994879,3143,a
1770627139.005867,3146,a
1770627139.0168269,3139,a
1770627139.027884,3141,a
1770627139.038872,3140,a
1770627139.04989,3140,a
1770627139.060871,3144,a
1770627139.071875,3141,a
1770627139.082844,3144,a
1770627139.093882,3141,a
1770627139.104874,3138,a
1770627139.116877,3140,a
1770627139.12676,3142,a
1770627139.1377249,3137,a
1770627139.148745,3144,a
1770627139.159746,3141,a
1770627139.170779,3137,a
1770627139.181741,3136,a
1770627139.192707,3139,a
1770627139.2037609,3139,a
1770627139.21472,3138,a
1770627139.22573,3138,a
1770627139.236734,3140,a
1770627139.2477498,3143,a
1770627139.25873,3143,a
1770627139.269753,3140,a
1770627139.280736,3141,a
1770627139.291716,3140,a
1770627139.3027148,3140,a
1770627139.313735,3140,a
1770627139.3247192,3143,a
1770627139.336449,3144,a
1770627139.34672,3144,a
1770627139.357711,3139,a
1770627139.368716,3141,a
1770627139.379712,3144,a
1770627139.390761,3139,a
1770627139.401731,3140,a
1770627139.412571,3141,a
1770627139.423579,3139,a
1770627139.434616,3139,a
1770627139.4456608,3146,a
1770627139.4574158,3145,a
1770627139.467596,3139,a
1770627139.478613,3144,a
1770627139.489588,3139,a
1770627139.50059,3139,a
1770627139.511585,3146,a
1770627139.5225759,3143,a
1770627139.533616,3146,a
1770627139.544578,3145,a
1770627139.555578,3144,a
1770627139.566585,3140,a
1770627139.577587,3143,a
1770627139.588588,3135,a
1770627139.599605,3143,a
1770627139.610601,3146,a
1770627139.6215801,3139,a
1770627139.6325681,3141,a
1770627139.643622,3139,a
1770627139.654606,3137,a
1770627139.6655629,3142,a
1770627139.676567,3137,a
1770627139.687577,3139,a
1770627139.698559,3136,a
1770627139.7096,3139,a
1770627139.720597,3145,a
1770627139.7315662,3140,a
1770627139.742579,3140,a
1770627139.753582,3142,a
1770627139.764578,3140,a
1770627139.7765892,3136,a
1770627139.786597,3145,a
1770627139.7976,3143,a
1770627139.8085818,3143,a
1770627139.8195899,3143,a
1770627139.830581,3140,a
1770627139.841571,3137,a
1770627139.8525991,3143,a
1770627139.863637,3139,a
1770627139.874599,3136,a
1770627139.8856251,3144,a
1770627139.897123,3141,a
1770627139.90759,3144,a
1770627139.91859,3137,a
1770627139.929564,3140,a
1770627139.9406028,3141,a
1770627139.951593,3141,a
1770627139.962583,3143,a
1770627139.9735649,3141,a
1770627139.984434,3139,a
1770627139.9968169,3142,a
1770627140.0064461,3143,a
1770627140.017471,3140,a
1770627140.0284421,3140,a
1770627140.0394392,3144,a
1770627140.050476,3142,a
1770627140.0614731,3146,a
1770627140.072431,3146,a
1770627140.08345,3141,a
1770627140.094442,3146,a
1770627140.105437,3141,a
1770627140.116788,3139,a
1770627140.127431,3145,a
1770627140.138426,3140,a
1770627140.149467,3137,a
1770627140.16045,3140,a
1770627140.171477,3137,a
1770627140.182464,3141,a
1770627140.19347,3141,a
1770627140.20447,3138,a
1770627140.216894,3137,a
1770627140.226478,3143,a
1770627140.237442,3143,a
1770627140.2484689,3143,a
1770627140.2594812,3139,a
1770627140.270452,3138,a
1770627140.281418,3143,a
1770627140.292335,3141,a
1770627140.3032992,3144,a
1770627140.314344,3136,a
1770627140.325351,3141,a
1770627140.3377512,3145,a
1770627140.347348,3136,a
1770627140.358321,3141,a
1770627140.369372,3144,a
1770627140.38031,3144,a
