timestamp,ch1,ch2,label
1778661961.865681,1977,0,8
1778661961.8669388,2037,0,8
1778661961.867862,2015,0,8
1778661961.8680232,2087,0,8
1778661961.870309,2055,0,8
1778661961.8715782,2066,0,8
1778661961.877266,2078,0,8
1778661961.877561,2031,0,8
1778661961.878021,1941,0,8
1778661961.880204,1990,0,8
1778661961.8803,2061,0,8
1778661961.880357,2115,0,8
1778661961.8830562,2070,0,8
1778661961.8846521,2110,0,8
1778661961.8861692,2131,0,8
1778661961.888737,2033,0,8
1778661961.890228,1950,0,8
1778661961.8926451,1946,0,8
1778661961.894067,2065,0,8
1778661961.900961,2125,0,8
1778661961.904181,2074,0,8
1778661961.908386,2009,0,8
1778661961.910538,2089,0,8
1778661961.9107141,2117,0,8
1778661961.9107509,2021,0,8
1778661961.9107761,1946,0,8
1778661961.9108,2037,0,8
1778661961.9121861,2079,0,8
1778661961.914656,2101,0,8
1778661961.915792,2024,0,8
1778661961.918514,2063,0,8
1778661961.919901,2097,0,8
1778661961.9248488,2021,0,8
1778661961.926571,1978,0,8
1778661961.926646,2031,0,8
1778661961.930271,2021,0,8
1778661961.931038,2066,0,8
1778661961.933316,2069,0,8
1778661961.9362419,2080,0,8
1778661961.93633,2149,0,8
1778661961.9377038,2030,0,8
1778661961.940366,1941,0,8
1778661961.941771,1966,0,8
1778661961.9444091,2076,0,8
1778661961.95275,2085,0,8
1778661961.952977,2079,0,8
1778661961.9549692,2024,0,8
1778661961.955742,2089,0,8
1778661961.9570198,2142,0,8
1778661961.957438,2035,0,8
1778661961.959994,1885,0,8
1778661961.960323,2015,0,8
1778661961.962365,2064,0,8
1778661961.963756,2084,0,8
1778661961.9666681,2058,0,8
1778661961.971633,2080,0,8
1778661961.9736981,2104,0,8
1778661961.974089,2057,0,8
1778661961.975321,1987,0,8
1778661961.977877,2013,0,8
1778661961.980389,2056,0,8
1778661961.9806762,2091,0,8
1778661961.982603,2047,0,8
1778661961.984011,2078,0,8
1778661961.9867342,2167,0,8
1778661961.9880939,2021,0,8
1778661961.990714,1931,0,8
1778661961.9921129,1959,0,8
1778661961.997715,2066,0,8
1778661961.999466,2089,0,8
1778661962.001555,2076,0,8
1778661962.003353,2037,0,8
1778661962.004415,2098,0,8
1778661962.004858,2115,0,8
1778661962.006291,2030,0,8
1778661962.009512,1935,0,8
1778661962.009763,2044,0,8
1778661962.012415,2076,0,8
1778661962.0137641,2080,0,8
1778661962.019526,2031,0,8
1778661962.020226,2066,0,8
1778661962.02076,2099,0,8
1778661962.024053,2035,0,8
1778661962.0246882,2039,0,8
1778661962.026431,1977,0,8
1778661962.029102,2049,0,8
1778661962.031605,2114,0,8
1778661962.03173,2080,0,8
1778661962.034315,2065,0,8
1778661962.035725,2106,0,8
1778661962.038452,2062,0,8
1778661962.039809,1979,0,8
1778661962.047539,1950,0,8
1778661962.047688,2084,0,8
1778661962.049425,2081,0,8
1778661962.049738,2106,0,8
1778661962.0514581,2074,0,8
1778661962.055458,2093,0,8
1778661962.056722,2087,0,8
1778661962.05751,2017,0,8
1778661962.0596218,1942,0,8
1778661962.05994,2078,0,8
1778661962.062834,2072,0,8
1778661962.064288,2045,0,8
1778661962.070115,2038,0,8
1778661962.0707011,2081,0,8
1778661962.072574,2117,0,8
1778661962.072814,2020,0,8
1778661962.075117,1934,0,8
1778661962.078314,1979,0,8
1778661962.0799649,2093,0,8
1778661962.081711,2130,0,8
1778661962.082412,2072,0,8
1778661962.083842,2048,0,8
1778661962.0864809,2111,0,8
1778661962.087868,2116,0,8
1778661962.0903091,2004,0,8
1778661962.0916889,1933,0,8
1778661962.098133,2064,0,8
1778661962.0999172,2042,0,8
1778661962.100138,2061,0,8
1778661962.101728,2047,0,8
1778661962.101973,2092,0,8
1778661962.104494,2086,0,8
1778661962.105984,2014,0,8
1778661962.1077938,1928,0,8
1778661962.111351,2030,0,8
1778661962.112687,2096,0,8
1778661962.1140249,2125,0,8
1778661962.122945,2077,0,8
1778661962.124692,2049,0,8
1778661962.126205,2159,0,8
1778661962.1264079,2050,0,8
1778661962.128255,1878,0,8
1778661962.1300569,1985,0,8
1778661962.130188,2073,0,8
1778661962.131614,2101,0,8
1778661962.1318479,2066,0,8
1778661962.134413,2026,0,8
1778661962.135776,2105,0,8
1778661962.139935,2082,0,8
1778661962.139969,1984,0,8
1778661962.1419399,1937,0,8
1778661962.1450088,2072,0,8
1778661962.1502059,2091,0,8
1778661962.1508212,2072,0,8
1778661962.151955,2037,0,8
1778661962.153712,2093,0,8
1778661962.157328,2084,0,8
1778661962.158818,2038,0,8
1778661962.161952,1969,0,8
1778661962.162365,1977,0,8
1778661962.164881,2053,0,8
1778661962.1653051,2100,0,8
1778661962.166678,2056,0,8
1778661962.1680372,2062,0,8
1778661962.175179,2113,0,8
1778661962.1768162,2051,0,8
1778661962.176875,1944,0,8
1778661962.176915,1987,0,8
1778661962.180623,2046,0,8
1778661962.181592,2102,0,8
1778661962.1822348,2056,0,8
1778661962.18507,2048,0,8
1778661962.186974,2107,0,8
1778661962.1892962,2076,0,8
1778661962.190559,1991,0,8
1778661962.19197,1943,0,8
1778661962.194467,2057,0,8
1778661962.195808,2086,0,8
1778661962.198433,2129,0,8
1778661962.199763,2083,0,8
1778661962.205076,2069,0,8
1778661962.205753,2066,0,8
1778661962.206367,2010,0,8
1778661962.208899,1938,0,8
1778661962.2118962,2033,0,8
1778661962.212908,2075,0,8
1778661962.2154272,2081,0,8
1778661962.216893,2043,0,8
1778661962.219829,2076,0,8
1778661962.2199051,2104,0,8
1778661962.222535,2055,0,8
1778661962.223867,1968,0,8
1778661962.230634,2016,0,8
1778661962.231313,2069,0,8
1778661962.233351,2066,0,8
1778661962.233852,2060,0,8
1778661962.236166,2060,0,8
1778661962.236396,2126,0,8
1778661962.238703,2102,0,8
1778661962.241066,2058,0,8
1778661962.24261,1934,0,8
1778661962.2453911,2003,0,8
1778661962.245548,2080,0,8
1778661962.248283,2069,0,8
1778661962.249644,2037,0,8
1778661962.252347,2096,0,8
1778661962.253709,2069,0,8
1778661962.2565372,1988,0,8
1778661962.261641,1913,0,8
1778661962.262332,2021,0,8
1778661962.2652202,2085,0,8
1778661962.268026,2123,0,8
1778661962.26826,2070,0,8
1778661962.269879,2076,0,8
1778661962.271362,2119,0,8
1778661962.274642,2048,0,8
1778661962.275197,1975,0,8
1778661962.2771971,1986,0,8
1778661962.278591,2065,0,8
1778661962.279953,2086,0,8
1778661962.289511,2052,0,8
1778661962.29122,2032,0,8
1778661962.29153,2140,0,8
1778661962.293878,2170,0,8
1778661962.294546,1962,0,8
1778661962.2951128,1896,0,8
1778661962.295315,2046,0,8
1778661962.298646,2102,0,8
1778661962.2988741,2094,0,8
1778661962.3007228,2030,0,8
1778661962.303452,2071,0,8
1778661962.303521,2093,0,8
1778661962.306064,2002,0,8
1778661962.308684,1930,0,8
1778661962.3100958,2046,0,8
1778661962.31154,2098,0,8
1778661962.314065,2122,0,8
1778661962.321743,2046,0,8
1778661962.325363,2069,0,8
1778661962.326066,2107,0,8
1778661962.326259,2092,0,8
1778661962.32782,2025,0,8
1778661962.32846,1932,0,8
1778661962.3331358,2052,0,8
1778661962.333568,2098,0,8
1778661962.33378,2073,0,8
1778661962.3366,2040,0,8
1778661962.3370528,2105,0,8
1778661962.33852,2075,0,8
1778661962.339905,1998,0,8
1778661962.347073,1930,0,8
1778661962.348355,2080,0,8
1778661962.3507829,2110,0,8
1778661962.3511329,2098,0,8
1778661962.35339,2040,0,8
1778661962.3539882,2089,0,8
1778661962.355654,2125,0,8
1778661962.3567529,2033,0,8
1778661962.35902,1909,0,8
1778661962.360933,1978,0,8
1778661962.36369,2087,0,8
1778661962.363766,2092,0,8
1778661962.36638,2075,0,8
1778661962.3678238,2118,0,8
1778661962.370427,2060,0,8
1778661962.371799,1990,0,8
1778661962.3744261,1947,0,8
1778661962.380207,1991,0,8
1778661962.381353,2079,0,8
1778661962.3820028,2098,0,8
1778661962.382499,2069,0,8
1778661962.3842509,2011,0,8
1778661962.386477,2107,0,8
1778661962.389318,2094,0,8
1778661962.39577,2005,0,8
1778661962.395856,1938,0,8
1778661962.3959098,2042,0,8
1778661962.395961,2092,0,8
1778661962.398644,2079,0,8
1778661962.400009,2103,0,8
1778661962.4071832,2108,0,8
1778661962.4083421,2038,0,8
1778661962.409929,1996,0,8
1778661962.410313,1920,0,8
1778661962.4126139,2029,0,8
1778661962.414231,2097,0,8
1778661962.4149609,2081,0,8
1778661962.418095,2009,0,8
1778661962.41837,2052,0,8
1778661962.420352,2129,0,8
1778661962.423135,2061,0,8
1778661962.424523,1989,0,8
1778661962.425879,1984,0,8
1778661962.428555,2048,0,8
1778661962.429934,2080,0,8
1778661962.432618,2061,0,8
1778661962.434012,2036,0,8
1778661962.440882,2101,0,8
1778661962.441631,2092,0,8
1778661962.4427252,2002,0,8
1778661962.4461179,1922,0,8
1778661962.447663,2083,0,8
1778661962.448386,2100,0,8
1778661962.449499,2114,0,8
1778661962.450659,2094,0,8
1778661962.4541109,2052,0,8
1778661962.454277,2066,0,8
1778661962.4567401,2021,0,8
1778661962.458059,1935,0,8
1778661962.459522,2010,0,8
1778661962.466989,2066,0,8
1778661962.4675121,2093,0,8
1778661962.470392,2056,0,8
1778661962.470714,2057,0,8
1778661962.470946,2110,0,8
1778661962.47337,2064,0,8
1778661962.4735081,1991,0,8
1778661962.475863,1992,0,8
1778661962.482593,2055,0,8
1778661962.4826891,2093,0,8
1778661962.482752,2063,0,8
1778661962.484114,2046,0,8
1778661962.487225,2104,0,8
1778661962.487865,2157,0,8
1778661962.490763,2019,0,8
1778661962.492414,1891,0,8
1778661962.494307,2063,0,8
1778661962.5149598,2084,0,8
1778661962.535146,2090,0,8
1778661962.5413451,2042,0,8
1778661962.541733,2087,0,8
1778661962.542084,2093,0,8
1778661962.542243,2037,0,8
1778661962.5449228,1951,0,8
1778661962.545048,2037,0,8
1778661962.545106,2068,0,8
1778661962.5451891,2103,0,8
1778661962.545279,2054,0,8
1778661962.545373,2078,0,8
1778661962.545436,2119,0,8
1778661962.545548,2063,0,8
1778661962.545622,1980,0,8
1778661962.5456588,1978,0,8
1778661962.545692,2059,0,8
1778661962.5457249,2103,0,8
1778661962.5457559,2122,0,8
1778661962.545846,2059,0,8
1778661962.545964,2046,0,8
1778661962.546019,2073,0,8
1778661962.546069,2002,0,8
1778661962.546116,1930,0,8
1778661962.546249,2038,0,8
1778661962.5463061,2077,0,8
1778661962.547679,2076,0,8
1778661962.5503218,2037,0,8
1778661962.551688,2095,0,8
1778661962.5544,2097,0,8
1778661962.556152,2023,0,8
1778661962.5646,1952,0,8
1778661962.566676,2015,0,8
1778661962.568345,2065,0,8
1778661962.56993,2095,0,8
1778661962.572104,2057,0,8
1778661962.5742238,2060,0,8
1778661962.574709,2126,0,8
1778661962.575103,2080,0,8
1778661962.5754209,1975,0,8
1778661962.5777972,1971,0,8
1778661962.578184,2056,0,8
1778661962.57955,2086,0,8
1778661962.582169,2051,0,8
1778661962.5898418,2045,0,8
1778661962.591541,2105,0,8
1778661962.595007,2070,0,8
1778661962.596931,1984,0,8
1778661962.5987809,1937,0,8
1778661962.600907,2030,0,8
1778661962.601377,2081,0,8
1778661962.601623,2084,0,8
1778661962.6017568,2041,0,8
1778661962.602043,2077,0,8
1778661962.6048021,2081,0,8
1778661962.6061802,2005,0,8
1778661962.60766,1915,0,8
1778661962.610261,1996,0,8
1778661962.611626,2048,0,8
1778661962.6140008,2145,0,8
1778661962.6153758,2230,0,8
1778661962.6216,2106,0,8
1778661962.6246011,2009,0,8
1778661962.625186,2046,0,8
1778661962.628385,2026,0,8
1778661962.629364,1988,0,8
1778661962.6310458,2100,0,8
1778661962.631236,2165,0,8
1778661962.633038,2065,0,8
1778661962.635127,1995,0,8
1778661962.637996,2226,0,8
1778661962.638081,2134,0,8
1778661962.639437,1723,0,8
1778661962.6420648,1737,0,8
1778661962.649225,2511,0,8
1778661962.650382,2381,0,8
1778661962.6542962,1947,0,8
1778661962.65636,1856,0,8
1778661962.656967,2089,0,8
1778661962.657534,2139,0,8
1778661962.659936,1797,0,8
1778661962.662094,1470,0,8
1778661962.6626902,2220,0,8
1778661962.6651971,2544,0,8
1778661962.6652942,1676,0,8
1778661962.66535,1611,0,8
1778661962.668021,2297,0,8
1778661962.6706,2713,0,8
1778661962.671967,2451,0,8
1778661962.673311,2066,0,8
1778661962.681365,1715,0,8
1778661962.6835241,1734,0,8
1778661962.68526,2086,0,8
1778661962.687637,2068,0,8
1778661962.688799,1917,0,8
1778661962.6892989,2047,0,8
1778661962.689518,1995,0,8
1778661962.690038,1965,0,8
1778661962.694803,2176,0,8
1778661962.695018,1915,0,8
1778661962.697453,2161,0,8
1778661962.6977322,2372,0,8
1778661962.7000809,1927,0,8
1778661962.701408,1893,0,8
1778661962.707999,2229,0,8
1778661962.70856,2101,0,8
1778661962.709131,2037,0,8
1778661962.7108722,2107,0,8
1778661962.712797,2261,0,8
1778661962.714818,2049,0,8
1778661962.7172391,2020,0,8
1778661962.7173738,2074,0,8
1778661962.720012,2356,0,8
1778661962.7220259,2096,0,8
1778661962.724423,1432,0,8
1778661962.725915,1519,0,8
1778661962.7273548,1778,0,8
1778661962.729932,2232,0,8
1778661962.731307,2496,0,8
1778661962.738475,2050,0,8
1778661962.7390761,2097,0,8
1778661962.739666,2098,0,8
1778661962.740202,2173,0,8
1778661962.74242,2216,0,8
1778661962.744877,2252,0,8
1778661962.7464151,2131,0,8
1778661962.7488441,1824,0,8
1778661962.750898,2035,0,8
1778661962.753618,2183,0,8
1778661962.7537248,1579,0,8
1778661962.756247,2093,0,8
1778661962.7575848,2217,0,8
1778661962.763239,2281,0,8
1778661962.763804,2101,0,8
1778661962.76394,2163,0,8
1778661962.7667499,2180,0,8
1778661962.770658,2200,0,8
1778661962.7711859,2197,0,8
1778661962.77224,2187,0,8
1778661962.7739918,2141,0,8
1778661962.7762969,2194,0,8
1778661962.778677,1955,0,8
1778661962.780027,2070,0,8
1778661962.781478,1596,0,8
1778661962.784076,1984,0,8
1778661962.785465,2936,0,8
1778661962.788005,2107,0,8
1778661962.789391,2029,0,8
1778661962.79542,2112,0,8
1778661962.796036,2107,0,8
1778661962.79744,2522,0,8
1778661962.797985,2390,0,8
1778661962.799484,2029,0,8
1778661962.8035562,1658,0,8
1778661962.8036659,2074,0,8
1778661962.8061519,2625,0,8
1778661962.808546,2155,0,8
1778661962.8109,1865,0,8
1778661962.812209,2217,0,8
1778661962.813505,2768,0,8
1778661962.820108,1827,0,8
1778661962.820603,1481,0,8
1778661962.8210938,2620,0,8
1778661962.822974,1624,0,8
1778661962.825079,2040,0,8
1778661962.827053,1961,0,8
1778661962.828865,2050,0,8
1778661962.8312151,2218,0,8
1778661962.831475,2237,0,8
1778661962.833463,2304,0,8
1778661962.836131,2728,0,8
1778661962.837474,1854,0,8
1778661962.840039,1207,0,8
1778661962.841399,2477,0,8
1778661962.848573,1339,0,8
1778661962.8490748,2427,0,8
1778661962.849623,1804,0,8
1778661962.850574,1958,0,8
1778661962.853857,2822,0,8
1778661962.853941,2452,0,8
1778661962.855875,2057,0,8
1778661962.860319,2454,0,8
1778661962.8605871,2001,0,8
1778661962.8625212,1672,0,8
1778661962.863821,2474,0,8
1778661962.8663738,1753,0,8
1778661962.867685,2188,0,8
1778661962.872562,2066,0,8
1778661962.8741188,2317,0,8
1778661962.876169,2113,0,8
1778661962.876462,2491,0,8
1778661962.879499,2381,0,8
1778661962.880076,784,0,8
1778661962.8835032,2807,0,8
1778661962.883588,3052,0,8
1778661962.8879218,1347,0,8
1778661962.888195,1565,0,8
1778661962.890958,2532,0,8
1778661962.892376,1985,0,8
1778661962.893701,1839,0,8
1778661962.8964539,2006,0,8
1778661962.897911,2707,0,8
1778661962.8993149,1887,0,8
1778661962.9023209,1754,0,8
1778661962.904,2387,0,8
1778661962.910462,1696,0,8
1778661962.9124851,1911,0,8
1778661962.9139972,2451,0,8
1778661962.9143412,2030,0,8
1778661962.914528,809,0,8
1778661962.919214,2301,0,8
1778661962.9266062,2693,0,8
1778661962.926744,1877,0,8
1778661962.926802,2013,0,8
1778661962.9268532,2231,0,8
1778661962.926902,1990,0,8
1778661962.928232,1989,0,8
1778661962.9296,2772,0,8
1778661962.93959,2184,0,8
1778661962.941809,264,0,8
1778661962.942879,2883,0,8
1778661962.943541,2717,0,8
1778661962.945415,2907,0,8
1778661962.94717,944,0,8
1778661962.9497862,2200,0,8
1778661962.9503438,1770,0,8
1778661962.9532108,2220,0,8
1778661962.953289,2566,0,8
1778661962.9533398,2378,0,8
1778661962.9534369,1736,0,8
1778661962.957164,1656,0,8
1778661962.957242,1780,0,8
1778661962.959871,2864,0,8
1778661962.9612658,1991,0,8
1778661962.96325,1181,0,8
1778661962.9762602,2583,0,8
1778661962.984816,2127,0,8
1778661962.9849029,2712,0,8
1778661962.984959,2278,0,8
1778661962.985068,229,0,8
1778661962.9851809,3092,0,8
1778661962.985239,2062,0,8
1778661962.985494,2506,0,8
1778661962.985564,1747,0,8
1778661962.985613,2116,0,8
1778661962.9856598,2117,0,8
1778661962.987312,1998,0,8
1778661963.009748,1951,0,8
1778661963.009792,1485,0,8
1778661963.009824,2151,0,8
1778661963.0098538,2063,0,8
1778661963.009883,1765,0,8
1778661963.009911,2042,0,8
1778661963.009939,1841,0,8
1778661963.009968,2392,0,8
1778661963.009995,1754,0,8
1778661963.0100238,1106,0,8
1778661963.0100522,2321,0,8
1778661963.015022,1962,0,8
1778661963.01566,2651,0,8
1778661963.0157208,3173,0,8
1778661963.0184178,1350,0,8
1778661963.031059,1704,0,8
1778661963.034094,1922,0,8
1778661963.037899,2487,0,8
1778661963.0381892,2349,0,8
1778661963.038387,775,0,8
1778661963.038806,2232,0,8
1778661963.041099,2411,0,8
1778661963.041417,2787,0,8
1778661963.041497,1151,0,8
1778661963.0415602,1940,0,8
1778661963.041621,3690,0,8
1778661963.041682,2457,0,8
1778661963.043216,279,0,8
1778661963.0459678,2593,0,8
1778661963.0539,2702,0,8
1778661963.0541599,2148,0,8
1778661963.056105,2331,0,8
1778661963.0571609,674,0,8
1778661963.0582678,1864,0,8
1778661963.059218,3353,0,8
1778661963.059784,1362,0,8
1778661963.064499,1902,0,8
1778661963.065088,2213,0,8
1778661963.0670369,2228,0,8
1778661963.06763,2248,0,8
1778661963.0691571,2639,0,8
1778661963.071936,1984,0,8
1778661963.073335,1010,0,8
1778661963.075952,2201,0,8
1778661963.077287,2330,0,8
1778661963.0841331,1243,0,8
1778661963.087212,1865,0,8
1778661963.087544,1839,0,8
1778661963.089754,1751,0,8
1778661963.090424,2460,0,8
1778661963.0911129,1731,0,8
1778661963.0916102,1575,0,8
1778661963.095006,1952,0,8
1778661963.0987148,3044,0,8
1778661963.0991302,1927,0,8
1778661963.099417,1631,0,8
1778661963.101911,2101,0,8
1778661963.1033258,1609,0,8
1778661963.105872,2715,0,8
1778661963.111764,2318,0,8
1778661963.113918,1541,0,8
1778661963.116837,1415,0,8
1778661963.118217,2263,0,8
1778661963.118352,1957,0,8
1778661963.120982,2222,0,8
1778661963.124599,2370,0,8
1778661963.124887,2873,0,8
1778661963.1250648,1044,0,8
1778661963.125463,386,0,8
1778661963.1280441,2804,0,8
1778661963.129528,3235,0,8
1778661963.1322172,2525,0,8
1778661963.133672,1385,0,8
1778661963.136168,2174,0,8
1778661963.137532,2191,0,8
1778661963.14462,3097,0,8
1778661963.145649,1794,0,8
1778661963.145835,1248,0,8
1778661963.146431,2864,0,8
1778661963.150332,2032,0,8
1778661963.150896,938,0,8
1778661963.152069,1831,0,8
1778661963.15837,2826,0,8
1778661963.1587572,1941,0,8
1778661963.1588569,1968,0,8
1778661963.160692,1890,0,8
1778661963.162117,2885,0,8
1778661963.16348,1389,0,8
1778661963.166112,2551,0,8
1778661963.171683,2170,0,8
1778661963.172621,1864,0,8
1778661963.1731699,1222,0,8
1778661963.174818,2481,0,8
1778661963.176311,2604,0,8
1778661963.178815,1469,0,8
1778661963.181414,2081,0,8
1778661963.187222,3020,0,8
1778661963.1879969,1661,0,8
1778661963.188085,2597,0,8
1778661963.1881442,1481,0,8
1778661963.189464,2187,0,8
1778661963.192034,2407,0,8
1778661963.193556,2350,0,8
1778661963.196225,1243,0,8
1778661963.197601,2140,0,8
1778661963.20472,1983,0,8
1778661963.205915,2649,0,8
1778661963.2075741,1082,0,8
1778661963.208048,2658,0,8
1778661963.2105548,1870,0,8
1778661963.212652,2386,0,8
1778661963.213759,2171,0,8
1778661963.215656,1733,0,8
1778661963.2198899,1490,0,8
1778661963.220331,2441,0,8
1778661963.220905,1935,0,8
1778661963.221096,2525,0,8
1778661963.223684,1495,0,8
1778661963.225039,1965,0,8
1778661963.227681,2496,0,8
1778661963.234012,1711,0,8
1778661963.236083,2443,0,8
1778661963.239224,3069,0,8
1778661963.240206,2292,0,8
1778661963.2404742,1438,0,8
1778661963.24116,1903,0,8
1778661963.243973,1570,0,8
1778661963.244264,2247,0,8
1778661963.2484941,1939,0,8
1778661963.249151,2285,0,8
1778661963.249758,1701,0,8
1778661963.252213,2525,0,8
1778661963.253613,2364,0,8
1778661963.2550552,1820,0,8
1778661963.257667,2223,0,8
1778661963.25905,1730,0,8
1778661963.261653,1948,0,8
1778661963.263084,2203,0,8
1778661963.269301,1729,0,8
1778661963.271023,1958,0,8
1778661963.272514,2489,0,8
1778661963.274602,1891,0,8
1778661963.27524,2324,0,8
1778661963.27618,2462,0,8
1778661963.2791522,1873,0,8
1778661963.27934,1963,0,8
1778661963.2835782,1635,0,8
1778661963.2838871,1615,0,8
1778661963.286728,1822,0,8
1778661963.288157,2726,0,8
1778661963.2895622,2830,0,8
1778661963.296779,1044,0,8
1778661963.298198,2139,0,8
1778661963.298363,2007,0,8
1778661963.300085,2800,0,8
1778661963.300452,2330,0,8
1778661963.3054569,2279,0,8
1778661963.307204,1428,0,8
1778661963.307499,1851,0,8
1778661963.3076422,2373,0,8
1778661963.3145878,2086,0,8
1778661963.314763,1662,0,8
1778661963.314857,1971,0,8
1778661963.3162189,2789,0,8
1778661963.317559,2321,0,8
1778661963.320055,2694,0,8
1778661963.321486,1915,0,8
1778661963.3241038,1581,0,8
1778661963.325769,2609,0,8
1778661963.331451,1302,0,8
1778661963.333432,2151,0,8
1778661963.333884,2682,0,8
1778661963.338769,2282,0,8
1778661963.340587,1252,0,8
1778661963.345163,2295,0,8
1778661963.3454778,2538,0,8
1778661963.345928,2603,0,8
1778661963.3462331,1706,0,8
1778661963.346617,2498,0,8
1778661963.348931,1695,0,8
1778661963.3492632,1110,0,8
1778661963.3519738,2928,0,8
1778661963.353332,2560,0,8
1778661963.360491,1210,0,8
1778661963.360985,884,0,8
1778661963.362821,3120,0,8
1778661963.3648121,590,0,8
1778661963.3658218,3299,0,8
1778661963.3664918,3480,0,8
1778661963.374506,1933,0,8
1778661963.374748,1962,0,8
1778661963.37502,2402,0,8
1778661963.375442,2355,0,8
1778661963.375652,1437,0,8
1778661963.377557,1183,0,8
1778661963.380221,2468,0,8
1778661963.381593,2590,0,8
1778661963.383015,1647,0,8
1778661963.3861601,2905,0,8
1778661963.3876438,0,0,8
1778661963.393719,3329,0,8
1778661963.394687,3349,0,8
1778661963.395232,2572,0,8
1778661963.396705,2001,0,8
1778661963.399213,1852,0,8
1778661963.4003048,1471,0,8
1778661963.4038668,2351,0,8
1778661963.409044,2458,0,8
1778661963.409421,1891,0,8
1778661963.409774,1640,0,8
1778661963.4102678,2208,0,8
1778661963.412787,1999,0,8
1778661963.412949,718,0,8
1778661963.415682,2070,0,8
1778661963.4170399,2977,0,8
1778661963.422389,2867,0,8
1778661963.424215,445,0,8
1778661963.425695,2123,0,8
1778661963.425932,1709,0,8
1778661963.4281652,2893,0,8
1778661963.429746,2876,0,8
1778661963.4323049,1190,0,8
1778661963.437234,2866,0,8
1778661963.4374459,2032,0,8
1778661963.437855,1688,0,8
1778661963.440191,2299,0,8
1778661963.4415019,2868,0,8
1778661963.444105,1203,0,8
1778661963.445406,2254,0,8
1778661963.447958,2600,0,8
1778661963.449248,2275,0,8
1778661963.455575,1507,0,8
1778661963.456023,2467,0,8
1778661963.456531,1882,0,8
1778661963.4582112,2555,0,8
1778661963.4599621,1803,0,8
1778661963.462073,2379,0,8
1778661963.463862,2055,0,8
1778661963.468895,2306,0,8
1778661963.469087,2868,0,8
1778661963.4692721,1297,0,8
1778661963.4709818,1569,0,8
1778661963.473472,2546,0,8
1778661963.4762628,2564,0,8
1778661963.480644,2082,0,8
1778661963.481127,2013,0,8
1778661963.481536,2036,0,8
1778661963.483558,2114,0,8
1778661963.4873059,2355,0,8
1778661963.487434,2372,0,8
1778661963.489632,2126,0,8
1778661963.4944909,1834,0,8
1778661963.494563,1891,0,8
1778661963.496356,1909,0,8
1778661963.497662,2390,0,8
1778661963.498958,1655,0,8
1778661963.501507,2251,0,8
1778661963.502934,2898,0,8
1778661963.505494,432,0,8
1778661963.5070322,2393,0,8
1778661963.511982,2325,0,8
1778661963.5121112,1761,0,8
1778661963.514591,2067,0,8
1778661963.51704,2453,0,8
1778661963.517537,2181,0,8
1778661963.5205572,2127,0,8
1778661963.525617,2231,0,8
1778661963.525737,2082,0,8
1778661963.526021,1887,0,8
1778661963.52805,2055,0,8
1778661963.529356,1968,0,8
1778661963.532046,1944,0,8
1778661963.536726,2072,0,8
1778661963.537569,2096,0,8
1778661963.5381298,1969,0,8
1778661963.540055,2219,0,8
1778661963.541729,2176,0,8
1778661963.543735,1759,0,8
1778661963.5456588,1951,0,8
1778661963.5505228,1951,0,8
1778661963.5506492,2100,0,8
1778661963.552852,2253,0,8
1778661963.553056,2235,0,8
1778661963.555636,1180,0,8
1778661963.556944,2155,0,8
1778661963.5594938,2349,0,8
1778661963.562042,2194,0,8
1778661963.56697,2045,0,8
1778661963.5673878,2015,0,8
1778661963.569417,2309,0,8
1778661963.569489,2371,0,8
1778661963.5714052,2187,0,8
1778661963.572949,2082,0,8
1778661963.5791,1990,0,8
1778661963.579266,1956,0,8
1778661963.579361,2099,0,8
1778661963.5814211,1681,0,8
1778661963.5839849,2363,0,8
1778661963.589334,2166,0,8
1778661963.5894191,2264,0,8
1778661963.5898418,2369,0,8
1778661963.5922198,2200,0,8
1778661963.593786,1718,0,8
1778661963.595516,2057,0,8
1778661963.597426,2554,0,8
1778661963.604156,2269,0,8
1778661963.604556,2169,0,8
1778661963.60479,2232,0,8
1778661963.604886,2210,0,8
1778661963.607488,2171,0,8
1778661963.608872,2038,0,8
1778661963.611435,1801,0,8
1778661963.612824,2222,0,8
1778661963.619822,1983,0,8
1778661963.6199381,2555,0,8
1778661963.621629,1876,0,8
1778661963.6219058,2001,0,8
1778661963.6240761,2294,0,8
1778661963.627029,2338,0,8
1778661963.627106,2186,0,8
1778661963.631846,2045,0,8
1778661963.632195,2078,0,8
1778661963.634401,2136,0,8
1778661963.6357918,2255,0,8
1778661963.6370912,2085,0,8
1778661963.6438909,1971,0,8
1778661963.64401,1827,0,8
1778661963.644829,2111,0,8
1778661963.646045,2170,0,8
1778661963.6481721,2196,0,8
1778661963.6498182,2099,0,8
1778661963.651577,2065,0,8
1778661963.6563358,2150,0,8
1778661963.656456,2051,0,8
1778661963.658174,1622,0,8
1778661963.659499,1953,0,8
1778661963.660838,2374,0,8
1778661963.663393,1796,0,8
1778661963.66485,2240,0,8
1778661963.667447,2107,0,8
1778661963.675499,2099,0,8
1778661963.678357,2171,0,8
1778661963.6790679,2007,0,8
1778661963.6799738,1861,0,8
1778661963.681539,2018,0,8
1778661963.681692,2067,0,8
1778661963.686529,2151,0,8
1778661963.686752,2033,0,8
1778661963.6869729,2049,0,8
1778661963.6870651,2056,0,8
1778661963.6904058,1958,0,8
1778661963.6917021,1839,0,8
1778661963.693022,2004,0,8
1778661963.697715,1902,0,8
1778661963.698598,2031,0,8
1778661963.7003741,2124,0,8
1778661963.703913,1997,0,8
1778661963.704418,2207,0,8
1778661963.706201,1952,0,8
1778661963.710746,1699,0,8
1778661963.710828,2006,0,8
1778661963.710966,2174,0,8
1778661963.713757,2083,0,8
1778661963.715046,2024,0,8
1778661963.717601,2020,0,8
1778661963.719284,2126,0,8
1778661963.7220721,2078,0,8
1778661963.726751,2024,0,8
1778661963.727249,1731,0,8
1778661963.728863,2020,0,8
1778661963.729027,2187,0,8
1778661963.730838,1953,0,8
1778661963.7340539,2014,0,8
1778661963.7385569,2177,0,8
1778661963.738731,2060,0,8
1778661963.7389219,1620,0,8
1778661963.741656,2110,0,8
1778661963.742948,2079,0,8
1778661963.749152,2005,0,8
1778661963.749232,2130,0,8
1778661963.750008,2169,0,8
1778661963.751453,1964,0,8
1778661963.754046,2041,0,8
1778661963.756577,2154,0,8
1778661963.7609909,1870,0,8
1778661963.7611232,1924,0,8
1778661963.7612329,2014,0,8
1778661963.764241,2043,0,8
1778661963.765538,2003,0,8
1778661963.7668328,2041,0,8
1778661963.769381,2181,0,8
1778661963.772162,2123,0,8
1778661963.776181,1962,0,8
1778661963.776601,1824,0,8
1778661963.7785652,2008,0,8
1778661963.78042,2075,0,8
1778661963.782203,2090,0,8
1778661963.787967,1997,0,8
1778661963.7881222,2116,0,8
1778661963.788228,2129,0,8
1778661963.7902799,1861,0,8
1778661963.7915862,1828,0,8
1778661963.792881,2027,0,8
1778661963.797927,2066,0,8
1778661963.7983239,2071,0,8
1778661963.800292,2000,0,8
1778661963.801719,2058,0,8
1778661963.803592,2190,0,8
1778661963.805194,2116,0,8
1778661963.809645,1935,0,8
1778661963.809779,1897,0,8
1778661963.811352,2040,0,8
1778661963.813907,2058,0,8
1778661963.8151948,2062,0,8
1778661963.817843,2023,0,8
1778661963.8191411,2133,0,8
1778661963.824882,2101,0,8
1778661963.825354,1972,0,8
1778661963.82579,1889,0,8
1778661963.827601,2039,0,8
1778661963.8297222,2119,0,8
1778661963.83122,2171,0,8
1778661963.8367438,1956,0,8
1778661963.836851,2107,0,8
1778661963.837037,2189,0,8
1778661963.8398879,2037,0,8
1778661963.841182,1876,0,8
1778661963.847085,1966,0,8
1778661963.847184,2114,0,8
1778661963.847619,2193,0,8
1778661963.8499079,2055,0,8
1778661963.851254,2020,0,8
1778661963.8532102,2106,0,8
1778661963.854795,2021,0,8
1778661963.859047,1920,0,8
1778661963.859125,1882,0,8
1778661963.8611908,1994,0,8
1778661963.863751,2023,0,8
1778661963.865042,2073,0,8
1778661963.867585,2046,0,8
1778661963.8687491,2121,0,8
1778661963.8745248,2058,0,8
1778661963.874903,1941,0,8
1778661963.875047,1823,0,8
1778661963.8771808,2058,0,8
1778661963.8793821,2101,0,8
1778661963.880849,2044,0,8
1778661963.886359,2010,0,8
1778661963.886487,2094,0,8
1778661963.888443,2105,0,8
1778661963.889754,1977,0,8
1778661963.891047,1846,0,8
1778661963.896537,1976,0,8
1778661963.896668,2094,0,8
1778661963.8973482,2174,0,8
1778661963.89888,2022,0,8
1778661963.9018419,1970,0,8
1778661963.90335,2143,0,8
1778661963.907456,2057,0,8
1778661963.907595,1884,0,8
1778661963.909289,1829,0,8
1778661963.910678,1953,0,8
1778661963.913265,2075,0,8
1778661963.915851,2179,0,8
1778661963.917136,2089,0,8
1778661963.9213052,1999,0,8
1778661963.9213572,2014,0,8
1778661963.9238122,2136,0,8
1778661963.926056,1972,0,8
1778661963.928664,1798,0,8
1778661963.928876,1895,0,8
1778661963.932808,1985,0,8
1778661963.933135,1955,0,8
1778661963.9359329,1999,0,8
1778661963.937284,2081,0,8
1778661963.942422,1996,0,8
1778661963.943122,1810,0,8
1778661963.943628,1986,0,8
1778661963.9452999,2116,0,8
1778661963.947954,2165,0,8
1778661963.9503949,2200,0,8
1778661963.954535,2014,0,8
1778661963.9548469,2025,0,8
1778661963.9550662,1975,0,8
1778661963.9570858,1877,0,8
1778661963.95971,1854,0,8
1778661963.9610372,2069,0,8
1778661963.963584,2189,0,8
1778661963.964872,2098,0,8
1778661963.970047,1901,0,8
1778661963.9709241,2064,0,8
1778661963.9718149,2096,0,8
1778661963.974369,1902,0,8
1778661963.975747,1852,0,8
1778661963.978011,1968,0,8
1778661963.981964,2082,0,8
1778661963.982239,2152,0,8
1778661963.9840782,2056,0,8
1778661963.985697,2060,0,8
1778661963.9869928,2171,0,8
1778661963.992605,2061,0,8
1778661963.9929988,1881,0,8
1778661963.9933639,1943,0,8
1778661963.9958222,2027,0,8
1778661963.999307,2101,0,8
1778661963.999416,2008,0,8
1778661964.0031512,2051,0,8
1778661964.003249,2205,0,8
1778661964.005277,2066,0,8
1778661964.0065842,1894,0,8
1778661964.009142,1965,0,8
1778661964.011706,2104,0,8
1778661964.0129988,2132,0,8
1778661964.017374,2075,0,8
1778661964.017824,1991,0,8
1778661964.020174,2161,0,8
1778661964.0216992,2082,0,8
1778661964.023934,2019,0,8
1778661964.028702,1897,0,8
1778661964.0288908,2034,0,8
1778661964.029065,2100,0,8
1778661964.03167,1995,0,8
1778661964.032964,2026,0,8
1778661964.03856,2115,0,8
1778661964.038923,2096,0,8
1778661964.039696,2042,0,8
1778661964.0411048,2018,0,8
1778661964.043394,1913,0,8
1778661964.045675,1938,0,8
1778661964.0489979,2129,0,8
1778661964.0491798,2050,0,8
1778661964.051142,2007,0,8
1778661964.05372,2082,0,8
1778661964.05503,2117,0,8
1778661964.0575879,1947,0,8
1778661964.0588832,2051,0,8
1778661964.063518,1925,0,8
1778661964.0645618,1971,0,8
1778661964.0659049,2204,0,8
1778661964.068005,1982,0,8
1778661964.0707421,2098,0,8
1778661964.070813,2042,0,8
1778661964.0741272,1895,0,8
1778661964.075698,1783,0,8
1778661964.077064,2012,0,8
1778661964.0796318,2119,0,8
1778661964.08092,2208,0,8
1778661964.083482,2149,0,8
1778661964.0882251,2027,0,8
1778661964.088989,2211,0,8
1778661964.090657,2319,0,8
1778661964.090848,2083,0,8
1778661964.093617,1533,0,8
1778661964.098528,1843,0,8
1778661964.098606,2099,0,8
1778661964.098685,2004,0,8
1778661964.1013691,2088,0,8
1778661964.103231,2125,0,8
1778661964.104595,1905,0,8
1778661964.107156,1798,0,8
1778661964.1129239,1922,0,8
1778661964.113009,2177,0,8
1778661964.113729,2180,0,8
1778661964.115092,2165,0,8
1778661964.118016,2154,0,8
1778661964.119775,2140,0,8
1778661964.12478,2030,0,8
1778661964.124995,1987,0,8
1778661964.125052,1898,0,8
1778661964.127599,2074,0,8
1778661964.128899,2128,0,8
1778661964.131456,2150,0,8
1778661964.132745,2005,0,8
1778661964.1377878,2103,0,8
1778661964.1381671,2142,0,8
1778661964.1401348,2024,0,8
1778661964.1418262,1908,0,8
1778661964.143101,1995,0,8
1778661964.147917,2096,0,8
1778661964.148101,2140,0,8
1778661964.149945,2070,0,8
1778661964.15125,2059,0,8
1778661964.15263,2107,0,8
1778661964.155183,2067,0,8
1778661964.1565702,1939,0,8
1778661964.162833,1927,0,8
1778661964.162915,2071,0,8
1778661964.163646,2119,0,8
1778661964.1661482,2111,0,8
1778661964.169374,2040,0,8
1778661964.169462,2129,0,8
1778661964.1726248,2099,0,8
1778661964.1729379,1967,0,8
1778661964.1755562,1927,0,8
1778661964.176851,1943,0,8
1778661964.179418,1992,0,8
1778661964.180712,2075,0,8
1778661964.183257,1985,0,8
1778661964.187961,2112,0,8
1778661964.188342,2177,0,8
1778661964.18975,1890,0,8
1778661964.1913002,1860,0,8
1778661964.193036,2086,0,8
1778661964.1973991,2088,0,8
1778661964.1977332,2077,0,8
1778661964.19934,2026,0,8
1778661964.200636,2057,0,8
1778661964.203176,2167,0,8
1778661964.205744,2021,0,8
1778661964.207029,1885,0,8
1778661964.211785,1871,0,8
1778661964.21216,2034,0,8
1778661964.214103,2144,0,8
1778661964.2155368,2059,0,8
1778661964.2173572,2050,0,8
1778661964.223263,2196,0,8
1778661964.223813,2107,0,8
1778661964.2240582,1971,0,8
1778661964.225445,1775,0,8
1778661964.226733,2038,0,8
1778661964.229496,2101,0,8
1778661964.230787,2089,0,8
1778661964.237228,1941,0,8
1778661964.2383082,2036,0,8
1778661964.239647,2067,0,8
1778661964.2398899,1964,0,8
1778661964.24122,1830,0,8
1778661964.2431161,1934,0,8
1778661964.24478,2051,0,8
1778661964.2476501,2108,0,8
1778661964.2494998,2040,0,8
1778661964.2507892,2069,0,8
1778661964.253388,2148,0,8
1778661964.2569642,2057,0,8
1778661964.2573571,1983,0,8
1778661964.259417,1858,0,8
1778661964.261079,2022,0,8
1778661964.2628732,2062,0,8
1778661964.266887,2076,0,8
1778661964.266968,2051,0,8
1778661964.2697191,2131,0,8
1778661964.271012,2050,0,8
1778661964.27356,1952,0,8
1778661964.274852,1843,0,8
1778661964.277508,2013,0,8
1778661964.281101,2093,0,8
1778661964.2815711,2099,0,8
1778661964.2835479,2014,0,8
1778661964.2852721,2076,0,8
1778661964.287122,2154,0,8
1778661964.290952,2007,0,8
1778661964.29132,1876,0,8
1778661964.292834,1963,0,8
1778661964.295688,2086,0,8
1778661964.296997,2140,0,8
1778661964.299575,2066,0,8
1778661964.300863,2050,0,8
1778661964.306423,2196,0,8
1778661964.306786,2030,0,8
1778661964.306867,1990,0,8
1778661964.30866,1917,0,8
1778661964.311906,2060,0,8
1778661964.313426,2054,0,8
1778661964.315993,2063,0,8
1778661964.317905,1963,0,8
1778661964.3192089,2086,0,8
1778661964.3215501,2147,0,8
1778661964.322838,1962,0,8
1778661964.325381,1814,0,8
1778661964.330722,1994,0,8
1778661964.331491,2085,0,8
1778661964.332852,2105,0,8
1778661964.332937,2039,0,8
1778661964.3375628,2098,0,8
1778661964.337638,2203,0,8
1778661964.340202,2081,0,8
1778661964.3417652,1791,0,8
1778661964.343059,1925,0,8
1778661964.344492,2102,0,8
1778661964.347065,2135,0,8
1778661964.348444,2079,0,8
1778661964.3543239,2077,0,8
1778661964.354399,2122,0,8
1778661964.355401,2149,0,8
1778661964.357216,2115,0,8
1778661964.3593311,1805,0,8
1778661964.361944,2017,0,8
1778661964.364342,2112,0,8
1778661964.364585,2119,0,8
1778661964.3672981,1994,0,8
1778661964.368602,2105,0,8
1778661964.3712692,2045,0,8
1778661964.372562,1966,0,8
1778661964.378387,1984,0,8
1778661964.378788,2029,0,8
1778661964.379831,2062,0,8
1778661964.381204,2155,0,8
1778661964.382905,2010,0,8
1778661964.384497,2090,0,8
1778661964.3883572,2101,0,8
1778661964.388566,1995,0,8
1778661964.3914828,1874,0,8
1778661964.392771,1954,0,8
1778661964.395335,2136,0,8
1778661964.3966222,2219,0,8
1778661964.39925,2068,0,8
1778661964.405535,2039,0,8
1778661964.405668,2156,0,8
1778661964.405795,2078,0,8
1778661964.4071412,1960,0,8
1778661964.4126332,1905,0,8
1778661964.412698,2094,0,8
1778661964.412852,2070,0,8
1778661964.4147751,2005,0,8
1778661964.4171038,2115,0,8
1778661964.418438,2185,0,8
1778661964.421002,2144,0,8
1778661964.423624,2072,0,8
1778661964.428114,1836,0,8
1778661964.428503,1941,0,8
1778661964.4302468,2146,0,8
1778661964.43204,2186,0,8
1778661964.433792,2177,0,8
1778661964.437244,1887,0,8
1778661964.4374988,2002,0,8
1778661964.439276,2020,0,8
1778661964.440567,1900,0,8
1778661964.4431071,1889,0,8
1778661964.444649,2038,0,8
1778661964.4471989,2150,0,8
1778661964.4513438,2070,0,8
1778661964.451709,2103,0,8
1778661964.453515,2185,0,8
1778661964.455269,2055,0,8
1778661964.456786,1944,0,8
1778661964.4601889,1907,0,8
1778661964.461975,2045,0,8
1778661964.463274,2054,0,8
1778661964.464571,2218,0,8
1778661964.467124,2101,0,8
1778661964.4684339,2102,0,8
1778661964.4738948,2075,0,8
1778661964.4739919,1963,0,8
1778661964.475934,1880,0,8
1778661964.4773178,2041,0,8
1778661964.4791648,2061,0,8
1778661964.4823139,2025,0,8
1778661964.4824572,1981,0,8
1778661964.4850318,2075,0,8
1778661964.4864159,2012,0,8
1778661964.488965,1988,0,8
1778661964.49152,1952,0,8
1778661964.4927611,1826,0,8
1778661964.496199,1888,0,8
1778661964.499857,2076,0,8
1778661964.500203,2049,0,8
1778661964.502992,1996,0,8
1778661964.505004,2118,0,8
1778661964.505279,2037,0,8
1778661964.5067441,1916,0,8
1778661964.5092921,1855,0,8
1778661964.5105789,1989,0,8
1778661964.5131211,2057,0,8
1778661964.514405,2094,0,8
1778661964.520084,1948,0,8
1778661964.521455,1973,0,8
1778661964.52316,2016,0,8
1778661964.523272,1918,0,8
1778661964.526159,1795,0,8
1778661964.528099,1931,0,8
1778661964.529956,2000,0,8
1778661964.5312471,2021,0,8
1778661964.532536,1990,0,8
1778661964.535094,2058,0,8
1778661964.536426,2097,0,8
1778661964.541962,1990,0,8
1778661964.542654,1840,0,8
1778661964.543376,1895,0,8
1778661964.5460072,2021,0,8
1778661964.547916,2080,0,8
1778661964.550863,2044,0,8
1778661964.5509381,2039,0,8
1778661964.552845,2142,0,8
1778661964.5554,2094,0,8
1778661964.5564768,1917,0,8
1778661964.559016,1745,0,8
1778661964.564834,2294,0,8
1778661964.564888,1959,0,8
1778661964.564974,1699,0,8
1778661964.5672178,1920,0,8
1778661964.570961,2208,0,8
1778661964.572215,2481,0,8
1778661964.574066,2121,0,8
1778661964.575876,2026,0,8
1778661964.5771909,1211,0,8
1778661964.578479,1611,0,8
1778661964.58103,3163,0,8
1778661964.583601,2643,0,8
1778661964.588053,405,0,8
1778661964.588796,1875,0,8
1778661964.5905669,2860,0,8
1778661964.59065,2251,0,8
1778661964.593764,1087,0,8
1778661964.597028,2351,0,8
1778661964.597298,2106,0,8
1778661964.598903,1710,0,8
1778661964.601612,2419,0,8
1778661964.6029482,2400,0,8
1778661964.6054971,1498,0,8
1778661964.606784,182,0,8
1778661964.6118138,2409,0,8
1778661964.613142,2733,0,8
1778661964.613299,2736,0,8
1778661964.6151621,1717,0,8
1778661964.6176178,1401,0,8
1778661964.6195369,2376,0,8
1778661964.621061,2260,0,8
1778661964.622704,2194,0,8
1778661964.625152,1008,0,8
1778661964.626451,2195,0,8
1778661964.629219,3095,0,8
1778661964.63436,625,0,8
1778661964.6344352,1297,0,8
1778661964.636449,2234,0,8
1778661964.636545,2626,0,8
1778661964.63922,2206,0,8
1778661964.6408901,2340,0,8
1778661964.642941,1674,0,8
1778661964.644386,961,0,8
1778661964.647178,1526,0,8
1778661964.648465,1182,0,8
1778661964.6510139,2682,0,8
1778661964.652357,2536,0,8
1778661964.657269,1185,0,8
1778661964.657326,1498,0,8
1778661964.65892,1858,0,8
1778661964.660863,2151,0,8
1778661964.665278,1821,0,8
1778661964.665365,1964,0,8
1778661964.667091,2327,0,8
1778661964.66841,2210,0,8
1778661964.6711261,750,0,8
1778661964.672423,1317,0,8
1778661964.674973,2148,0,8
1778661964.6794019,1669,0,8
1778661964.680408,2466,0,8
1778661964.681844,1727,0,8
1778661964.68396,1559,0,8
1778661964.6868129,2652,0,8
1778661964.688931,1389,0,8
1778661964.689075,1761,0,8
1778661964.691015,2160,0,8
1778661964.692445,2063,0,8
1778661964.694999,2684,0,8
1778661964.6963189,1151,0,8
1778661964.698689,1252,0,8
1778661964.7033842,2649,0,8
1778661964.704094,2274,0,8
1778661964.705517,1323,0,8
1778661964.706906,3434,0,8
1778661964.708352,1472,0,8
1778661964.7122161,424,0,8
1778661964.712329,2694,0,8
1778661964.715085,2966,0,8
1778661964.716383,1423,0,8
1778661964.7191098,2236,0,8
1778661964.7204359,2312,0,8
1778661964.722987,2656,0,8
1778661964.726779,1488,0,8
1778661964.7278562,1963,0,8
1778661964.729472,2564,0,8
1778661964.731144,2027,0,8
1778661964.7328389,2673,0,8
1778661964.736348,1718,0,8
1778661964.736452,2317,0,8
1778661964.738362,858,0,8
1778661964.740907,2026,0,8
1778661964.742323,535,0,8
1778661964.744873,3168,0,8
1778661964.7504761,2809,0,8
1778661964.751152,2406,0,8
1778661964.7522602,2446,0,8
1778661964.752427,1843,0,8
1778661964.755209,2446,0,8
1778661964.756864,2475,0,8
1778661964.7591438,1322,0,8
1778661964.7609768,2337,0,8
1778661964.762325,1719,0,8
1778661964.7648718,3076,0,8
1778661964.767424,1219,0,8
1778661964.768734,1645,0,8
1778661964.773176,3290,0,8
1778661964.7739189,1931,0,8
1778661964.780141,2925,0,8
1778661964.784259,2272,0,8
1778661964.784961,1856,0,8
1778661964.785113,1647,0,8
1778661964.785355,2759,0,8
1778661964.78554,2316,0,8
1778661964.7869928,1874,0,8
1778661964.78837,2531,0,8
1778661964.791007,1954,0,8
1778661964.7923388,2004,0,8
1778661964.799018,2751,0,8
1778661964.801017,2272,0,8
1778661964.801259,762,0,8
1778661964.8015192,3244,0,8
1778661964.8054411,2284,0,8
1778661964.80708,2172,0,8
1778661964.8102531,1624,0,8
1778661964.811782,2602,0,8
1778661964.812261,3071,0,8
1778661964.812491,3226,0,8
1778661964.815198,414,0,8
1778661964.8165781,2165,0,8
1778661964.822885,3115,0,8
1778661964.823067,1751,0,8
1778661964.823223,2173,0,8
1778661964.8267899,2899,0,8
1778661964.828311,2118,0,8
1778661964.831201,1365,0,8
1778661964.831557,3619,0,8
1778661964.833611,3135,0,8
1778661964.835042,1141,0,8
1778661964.8363562,3749,0,8
1778661964.8390021,3294,0,8
1778661964.840416,2242,0,8
1778661964.848654,141,0,8
1778661964.8505971,2824,0,8
1778661964.850888,2816,0,8
1778661964.852258,2942,0,8
1778661964.857749,2621,0,8
1778661964.8579829,2193,0,8
1778661964.858182,2380,0,8
1778661964.858482,2852,0,8
1778661964.858717,3029,0,8
1778661964.8608792,3588,0,8
1778661964.862283,2814,0,8
1778661964.865105,3884,0,8
1778661964.873865,3998,0,8
1778661964.8746428,1032,0,8
1778661964.8751712,2543,0,8
1778661964.877331,3913,0,8
1778661964.877507,3806,0,8
1778661964.8805969,3840,0,8
1778661964.88071,2149,0,8
1778661964.880926,2193,0,8
1778661964.883086,4095,0,8
1778661964.8843899,4078,0,8
1778661964.8870661,3729,0,8
1778661964.888468,3488,0,8
1778661964.891196,3660,0,8
1778661964.897744,3987,0,8
1778661964.899441,3644,0,8
1778661964.899786,2957,0,8
1778661964.901522,4095,0,8
1778661964.912257,4008,0,8
1778661964.9129732,3785,0,8
1778661964.91307,3572,0,8
1778661964.913124,2170,0,8
1778661964.913172,2557,0,8
1778661964.913219,3763,0,8
1778661964.913266,4054,0,8
1778661964.9342499,3127,0,8
1778661964.93434,3093,0,8
1778661964.9343941,3722,0,8
1778661964.935471,3734,0,8
1778661964.9355369,3630,0,8
1778661964.9355872,1825,0,8
1778661964.935634,2957,0,8
1778661964.93568,3273,0,8
1778661964.9357271,2531,0,8
1778661964.935773,3787,0,8
1778661964.935819,3470,0,8
1778661964.9372318,58,0,8
1778661964.938587,4023,0,8
1778661964.958025,3664,0,8
1778661964.976426,2766,0,8
1778661964.9768052,2240,0,8
1778661964.976915,2506,0,8
1778661964.9769979,2783,0,8
1778661964.97708,2728,0,8
1778661964.977118,3145,0,8
1778661964.9771478,2715,0,8
1778661964.977175,2850,0,8
1778661964.977203,2703,0,8
1778661964.977228,1542,0,8
1778661964.9772532,2589,0,8
1778661964.97728,2382,0,8
1778661964.9773052,2444,0,8
1778661964.977333,2154,0,8
1778661964.977358,2598,0,8
1778661964.977385,2397,0,8
1778661964.97741,2163,0,8
1778661964.9774349,2255,0,8
1778661964.978803,2544,0,8
1778661964.980226,2650,0,8
1778661964.98812,1422,0,8
1778661964.98839,2711,0,8
1778661964.988668,2619,0,8
1778661964.9916449,2331,0,8
1778661964.9926,2118,0,8
1778661964.9934971,2143,0,8
1778661964.998764,2445,0,8
1778661964.998921,2350,0,8
1778661964.9992168,2499,0,8
1778661965.0014231,1892,0,8
1778661965.002676,1777,0,8
1778661965.00436,2978,0,8
1778661965.0071192,2458,0,8
1778661965.008519,1627,0,8
1778661965.0162392,2206,0,8
1778661965.01843,2232,0,8
1778661965.0187268,2760,0,8
1778661965.020882,2464,0,8
1778661965.022175,2375,0,8
1778661965.022688,3292,0,8
1778661965.023505,1066,0,8
1778661965.028824,1792,0,8
1778661965.029096,2318,0,8
1778661965.029404,2480,0,8
1778661965.031662,2107,0,8
1778661965.03301,867,0,8
1778661965.0343318,2988,0,8
1778661965.041227,3246,0,8
1778661965.042895,1654,0,8
1778661965.0432582,2125,0,8
1778661965.045365,2330,0,8
1778661965.0459242,2463,0,8
1778661965.0490859,2350,0,8
1778661965.05333,2084,0,8
1778661965.055373,2304,0,8
1778661965.056028,2342,0,8
1778661965.056156,2100,0,8
1778661965.056258,2013,0,8
1778661965.0587032,1986,0,8
1778661965.061366,2351,0,8
1778661965.062752,2394,0,8
1778661965.064091,2393,0,8
1778661965.070518,2114,0,8
1778661965.0720398,2202,0,8
1778661965.073936,2288,0,8
1778661965.074232,1934,0,8
1778661965.076854,2267,0,8
1778661965.077486,1741,0,8
1778661965.0806222,1951,0,8
1778661965.0846589,2546,0,8
1778661965.085263,2267,0,8
1778661965.0858161,1565,0,8
1778661965.088161,2722,0,8
1778661965.088313,2340,0,8
1778661965.091128,2055,0,8
1778661965.0924008,1774,0,8
1778661965.098975,2149,0,8
1778661965.1004539,2793,0,8
1778661965.100605,1845,0,8
1778661965.1008792,1473,0,8
1778661965.104012,2486,0,8
1778661965.1050408,2501,0,8
1778661965.10722,1829,0,8
1778661965.111744,1705,0,8
1778661965.1120698,2323,0,8
1778661965.114298,2596,0,8
1778661965.1144772,2242,0,8
1778661965.117128,1879,0,8
1778661965.118508,1486,0,8
1778661965.121191,1752,0,8
1778661965.122598,3068,0,8
1778661965.130493,2749,0,8
1778661965.132533,1574,0,8
1778661965.134752,1329,0,8
1778661965.1374269,2196,0,8
1778661965.139051,2514,0,8
1778661965.1393652,2593,0,8
1778661965.143769,1975,0,8
1778661965.1439848,1907,0,8
1778661965.1442401,416,0,8
1778661965.1444411,2291,0,8
1778661965.146197,3052,0,8
1778661965.146683,2506,0,8
1778661965.14814,1139,0,8
1778661965.150826,2289,0,8
1778661965.156169,2361,0,8
1778661965.1567519,2505,0,8
1778661965.1572852,1771,0,8
1778661965.159382,1633,0,8
1778661965.1621,2610,0,8
1778661965.163063,1979,0,8
1778661965.165601,2113,0,8
1778661965.17003,2030,0,8
1778661965.170277,2496,0,8
1778661965.170538,725,0,8
1778661965.172898,2245,0,8
1778661965.174289,2034,0,8
1778661965.1770508,1967,0,8
1778661965.1783822,2717,0,8
1778661965.1810439,1213,0,8
1778661965.1824589,1857,0,8
1778661965.187932,2877,0,8
1778661965.189315,2521,0,8
1778661965.190676,1661,0,8
1778661965.190806,1965,0,8
1778661965.193443,1830,0,8
1778661965.196756,1881,0,8
1778661965.1970649,2069,0,8
1778661965.201586,2443,0,8
1778661965.201757,1264,0,8
1778661965.2037508,2486,0,8
1778661965.205745,2407,0,8
1778661965.206848,1817,0,8
1778661965.208467,1610,0,8
1778661965.228273,1932,0,8
1778661965.2283258,2325,0,8
1778661965.228501,1906,0,8
1778661965.228582,1023,0,8
1778661965.228637,3133,0,8
1778661965.228686,2350,0,8
1778661965.228735,2225,0,8
1778661965.2287931,1874,0,8
1778661965.228844,1878,0,8
1778661965.228896,2037,0,8
1778661965.230355,2300,0,8
1778661965.233054,2256,0,8
1778661965.234747,1687,0,8
1778661965.236141,2281,0,8
1778661965.244607,2178,0,8
1778661965.246569,1927,0,8
1778661965.2469969,1873,0,8
1778661965.2491121,1882,0,8
1778661965.2496252,2200,0,8
1778661965.25019,1920,0,8
1778661965.250763,1688,0,8
1778661965.258032,2713,0,8
1778661965.258411,2238,0,8
1778661965.258723,1856,0,8
1778661965.258899,1705,0,8
1778661965.2617228,2033,0,8
1778661965.263145,2344,0,8
1778661965.264543,2284,0,8
1778661965.276557,1970,0,8
1778661965.2776709,2432,0,8
1778661965.2778492,2183,0,8
1778661965.279571,1867,0,8
1778661965.281833,1735,0,8
1778661965.2878358,2210,0,8
1778661965.290134,2624,0,8
1778661965.2904608,657,0,8
1778661965.290574,2668,0,8
1778661965.290685,2644,0,8
1778661965.290766,2363,0,8
1778661965.290857,2130,0,8
1778661965.290946,2092,0,8
1778661965.2922702,938,0,8
1778661965.2949078,2681,0,8
1778661965.296248,2745,0,8
1778661965.29887,2025,0,8
1778661965.3002088,1968,0,8
1778661965.308245,2130,0,8
1778661965.310025,1994,0,8
1778661965.310463,2162,0,8
1778661965.3127449,1685,0,8
1778661965.312895,2087,0,8
1778661965.313119,2193,0,8
1778661965.314751,2246,0,8
1778661965.3172522,1946,0,8
1778661965.3226728,2251,0,8
1778661965.323141,1967,0,8
1778661965.323503,2263,0,8
1778661965.325661,1719,0,8
1778661965.327023,1833,0,8
1778661965.328366,1944,0,8
1778661965.3358772,2464,0,8
1778661965.338654,2377,0,8
1778661965.3389409,1804,0,8
1778661965.341748,1481,0,8
1778661965.342957,2686,0,8
1778661965.3439481,2041,0,8
1778661965.34455,2115,0,8
1778661965.346386,2218,0,8
1778661965.351618,2081,0,8
1778661965.3523421,2091,0,8
1778661965.354749,2101,0,8
1778661965.354932,2187,0,8
1778661965.355201,2199,0,8
1778661965.356534,2022,0,8
1778661965.359047,1909,0,8
1778661965.36038,1885,0,8
1778661965.362988,2093,0,8
1778661965.364375,2065,0,8
1778661965.372289,1943,0,8
1778661965.375208,2273,0,8
1778661965.375531,2375,0,8
1778661965.3757188,1994,0,8
1778661965.377567,1710,0,8
1778661965.378175,1964,0,8
1778661965.379951,2155,0,8
1778661965.381176,2286,0,8
1778661965.3882391,2124,0,8
1778661965.388442,1992,0,8
1778661965.388712,2277,0,8
1778661965.388881,2167,0,8
1778661965.391401,1619,0,8
1778661965.392791,1760,0,8
1778661965.39411,2135,0,8
1778661965.3967302,2307,0,8
1778661965.4034402,1923,0,8
1778661965.405303,2108,0,8
1778661965.405489,2272,0,8
1778661965.408139,2162,0,8
1778661965.408708,1940,0,8
1778661965.4097311,1877,0,8
1778661965.412682,2057,0,8
1778661965.418159,2057,0,8
1778661965.4184508,2211,0,8
1778661965.418893,2152,0,8
1778661965.4215791,1957,0,8
1778661965.421831,2171,0,8
1778661965.422157,1697,0,8
1778661965.424787,1911,0,8
1778661965.426133,2181,0,8
1778661965.428758,2116,0,8
1778661965.430114,2116,0,8
1778661965.432734,2065,0,8
1778661965.440097,2137,0,8
1778661965.442286,2222,0,8
1778661965.4467058,2044,0,8
1778661965.449547,1993,0,8
1778661965.455223,1954,0,8
1778661965.4556642,1962,0,8
1778661965.455949,2011,0,8
1778661965.458404,2028,0,8
1778661965.4586802,2029,0,8
1778661965.4587772,2165,0,8
1778661965.458848,2103,0,8
1778661965.458926,1913,0,8
1778661965.459003,1809,0,8
1778661965.4603899,2060,0,8
1778661965.463027,2031,0,8
1778661965.469884,2036,0,8
1778661965.47172,2010,0,8
1778661965.472095,2054,0,8
1778661965.472451,2125,0,8
1778661965.47468,1887,0,8
1778661965.475499,1694,0,8
1778661965.4777012,1866,0,8
1778661965.485248,1982,0,8
1778661965.488155,2007,0,8
1778661965.4884741,1961,0,8
1778661965.488564,1919,0,8
1778661965.488632,2096,0,8
1778661965.488714,2022,0,8
1778661965.490072,1847,0,8
1778661965.492828,1738,0,8
1778661965.494439,1901,0,8
1778661965.497216,1960,0,8
1778661965.498589,1997,0,8
1778661965.504688,1819,0,8
1778661965.505907,2018,0,8
1778661965.5065331,2088,0,8
1778661965.5067232,1888,0,8
1778661965.5087218,1698,0,8
1778661965.511229,1921,0,8
1778661965.5129101,2022,0,8
1778661965.515596,2047,0,8
1778661965.5213099,1902,0,8
1778661965.521646,2007,0,8
1778661965.522186,2028,0,8
1778661965.522474,1875,0,8
1778661965.524448,1720,0,8
1778661965.527105,1857,0,8
1778661965.5284638,1959,0,8
1778661965.53009,1990,0,8
1778661965.538476,1960,0,8
1778661965.538699,1992,0,8
1778661965.5414422,2074,0,8
1778661965.542753,1984,0,8
1778661965.544225,1796,0,8
1778661965.544959,1808,0,8
1778661965.552408,1982,0,8
1778661965.553088,2045,0,8
1778661965.555868,2086,0,8
1778661965.5560372,2014,0,8
1778661965.556109,2053,0,8
1778661965.556167,2033,0,8
1778661965.5562181,1935,0,8
1778661965.558815,1846,0,8
1778661965.560256,2012,0,8
1778661965.56301,2092,0,8
1778661965.564233,2173,0,8
1778661965.566782,1993,0,8
1778661965.574071,2096,0,8
1778661965.576868,2121,0,8
1778661965.580993,2070,0,8
1778661965.584399,1923,0,8
1778661965.5849102,2021,0,8
1778661965.590942,2068,0,8
1778661965.593737,2142,0,8
1778661965.594056,2064,0,8
1778661965.594115,2116,0,8
1778661965.594165,2215,0,8
1778661965.594212,2090,0,8
1778661965.5942621,1940,0,8
1778661965.5943081,1916,0,8
1778661965.594356,1951,0,8
1778661965.5970361,2070,0,8
1778661965.598439,2089,0,8
1778661965.605147,2006,0,8
1778661965.6059148,2167,0,8
1778661965.606978,2150,0,8
1778661965.608905,1947,0,8
1778661965.610944,1747,0,8
1778661965.611735,2144,0,8
1778661965.613585,2243,0,8
1778661965.62138,1950,0,8
1778661965.6219032,1961,0,8
1778661965.622141,2057,0,8
1778661965.622869,2055,0,8
1778661965.6250088,1884,0,8
1778661965.6258209,1793,0,8
1778661965.6258938,1911,0,8
1778661965.628564,2020,0,8
1778661965.629934,2055,0,8
1778661965.632403,2056,0,8
1778661965.633846,2112,0,8
1778661965.636607,2155,0,8
1778661965.6442828,2118,0,8
1778661965.644937,1932,0,8
1778661965.6466281,1869,0,8
1778661965.6489348,2089,0,8
1778661965.649695,2095,0,8
1778661965.650858,2136,0,8
1778661965.6515882,2040,0,8
1778661965.654937,2144,0,8
1778661965.6604412,2175,0,8
1778661965.660773,1884,0,8
1778661965.662901,1756,0,8
1778661965.663579,1972,0,8
1778661965.6636941,2105,0,8
1778661965.663813,2212,0,8
1778661965.6664991,2029,0,8
1778661965.667846,1948,0,8
1778661965.6745741,2091,0,8
1778661965.6774778,1919,0,8
1778661965.6804302,1850,0,8
1778661965.681555,1929,0,8
1778661965.682185,1971,0,8
1778661965.6834428,1994,0,8
1778661965.683616,2121,0,8
1778661965.692978,2182,0,8
1778661965.693355,2064,0,8
1778661965.6934762,1954,0,8
1778661965.693536,1940,0,8
1778661965.6935859,1872,0,8
1778661965.694713,1955,0,8
1778661965.695979,2008,0,8
1778661965.6986282,2181,0,8
1778661965.700127,1975,0,8
1778661965.703022,2171,0,8
1778661965.704391,2063,0,8
1778661965.711067,1905,0,8
1778661965.71383,1821,0,8
1778661965.7141,2021,0,8
1778661965.714389,2161,0,8
1778661965.7146611,1996,0,8
1778661965.717526,1930,0,8
1778661965.721619,2012,0,8
1778661965.721958,2154,0,8
1778661965.726924,2053,0,8
1778661965.727519,1840,0,8
1778661965.727817,1992,0,8
1778661965.72802,2134,0,8
1778661965.7305741,2074,0,8
1778661965.731919,2338,0,8
1778661965.734539,2609,0,8
1778661965.740414,1779,0,8
1778661965.741477,1676,0,8
1778661965.745615,1927,0,8
1778661965.746731,1895,0,8
1778661965.747846,2010,0,8
1778661965.748855,2042,0,8
1778661965.7495732,1969,0,8
1778661965.7517052,1865,0,8
1778661965.752092,1963,0,8
1778661965.75683,2301,0,8
1778661965.757185,2275,0,8
1778661965.759237,1845,0,8
1778661965.760602,2004,0,8
1778661965.761975,2010,0,8
1778661965.764631,1989,0,8
1778661965.7659671,2026,0,8
1778661965.768598,2143,0,8
1778661965.769804,2172,0,8
1778661965.776452,2060,0,8
1778661965.777622,1768,0,8
1778661965.77841,1888,0,8
1778661965.780115,2022,0,8
1778661965.780515,2078,0,8
1778661965.7828538,2008,0,8
1778661965.784951,2046,0,8
1778661965.7872598,2178,0,8
1778661965.7920582,2158,0,8
1778661965.792435,1872,0,8
1778661965.7928882,1873,0,8
1778661965.795496,2084,0,8
1778661965.796872,2010,0,8
1778661965.7982259,1936,0,8
1778661965.808458,2022,0,8
1778661965.8088489,2094,0,8
1778661965.809043,2055,0,8
1778661965.811696,1900,0,8
1778661965.812769,1807,0,8
1778661965.813864,1986,0,8
1778661965.814431,2104,0,8
1778661965.815163,2122,0,8
1778661965.821553,2014,0,8
1778661965.82202,2055,0,8
1778661965.82228,2115,0,8
1778661965.8249521,1982,0,8
1778661965.825261,1838,0,8
1778661965.826596,1985,0,8
1778661965.828022,2117,0,8
1778661965.830678,1983,0,8
1778661965.83219,2055,0,8
1778661965.8348072,2288,0,8
1778661965.8361971,2048,0,8
1778661965.8378801,1736,0,8
1778661965.8469608,1755,0,8
1778661965.8472471,1866,0,8
1778661965.847606,1988,0,8
1778661965.8505862,2006,0,8
1778661965.851399,1932,0,8
1778661965.852542,1922,0,8
1778661965.85326,2125,0,8
1778661965.860103,2131,0,8
1778661965.8605719,2002,0,8
1778661965.860991,1800,0,8
1778661965.861343,1957,0,8
1778661965.864297,2126,0,8
1778661965.864387,1981,0,8
1778661965.865746,1926,0,8
1778661965.868403,2059,0,8
1778661965.869985,2119,0,8
1778661965.8794298,1967,0,8
1778661965.883052,1839,0,8
1778661965.887987,1911,0,8
1778661965.8946939,2056,0,8
1778661965.8955379,2148,0,8
1778661965.895614,2135,0,8
1778661965.895652,2036,0,8
1778661965.895683,2094,0,8
1778661965.895713,2020,0,8
1778661965.895759,1799,0,8
1778661965.8957891,1839,0,8
1778661965.895852,2065,0,8
1778661965.89592,2165,0,8
1778661965.8987362,2084,0,8
1778661965.900095,2004,0,8
1778661965.9030888,2035,0,8
1778661965.90451,2115,0,8
1778661965.9058392,2002,0,8
1778661965.9132822,1790,0,8
1778661965.91412,1949,0,8
1778661965.916487,2007,0,8
1778661965.9167948,2007,0,8
1778661965.917196,1977,0,8
1778661965.919819,2136,0,8
1778661965.9216,2277,0,8
1778661965.922204,2022,0,8
1778661965.929343,1757,0,8
1778661965.929696,1828,0,8
1778661965.9298491,2105,0,8
1778661965.930183,2168,0,8
1778661965.933063,1906,0,8
1778661965.934432,1956,0,8
1778661965.935791,2148,0,8
1778661965.9387379,2198,0,8
1778661965.9479492,2018,0,8
1778661965.9483142,1618,0,8
1778661965.950274,1996,0,8
1778661965.9520671,2168,0,8
1778661965.954092,2121,0,8
1778661965.957205,1916,0,8
1778661965.961332,2012,0,8
1778661965.9616158,2153,0,8
1778661965.9617438,1877,0,8
1778661965.9622169,1827,0,8
1778661965.962552,1969,0,8
1778661965.964876,2094,0,8
1778661965.9658399,2156,0,8
1778661965.965898,1966,0,8
1778661965.969267,1970,0,8
1778661965.970655,2094,0,8
1778661965.971873,1959,0,8
1778661965.974564,1816,0,8
1778661965.9759622,1886,0,8
1778661965.9790452,1984,0,8
1778661965.98502,2158,0,8
1778661965.985727,2059,0,8
1778661965.986775,2049,0,8
1778661965.988908,2183,0,8
1778661965.9910002,2025,0,8
1778661965.992108,1869,0,8
1778661965.9927921,1833,0,8
1778661965.9945269,1998,0,8
1778661965.996483,2111,0,8
1778661966.0002692,2227,0,8
1778661966.0004458,2047,0,8
1778661966.003057,1933,0,8
1778661966.004395,2047,0,8
1778661966.0057,2002,0,8
1778661966.0123441,1961,0,8
1778661966.012888,1922,0,8
1778661966.01339,1961,0,8
1778661966.015548,2046,0,8
1778661966.0179,1997,0,8
1778661966.019053,2091,0,8
1778661966.022735,2062,0,8
1778661966.0265632,1971,0,8
1778661966.0269141,1860,0,8
1778661966.0296938,1916,0,8
1778661966.02982,2024,0,8
1778661966.029862,2069,0,8
1778661966.032539,2034,0,8
1778661966.033966,2045,0,8
1778661966.036981,2219,0,8
1778661966.0383732,1988,0,8
1778661966.0507169,1854,0,8
1778661966.055386,1839,0,8
1778661966.0614269,2224,0,8
1778661966.0614731,2072,0,8
1778661966.061504,1981,0,8
1778661966.061536,1972,0,8
1778661966.0616179,2073,0,8
1778661966.06165,2104,0,8
1778661966.061682,1896,0,8
1778661966.061713,1746,0,8
1778661966.061766,1964,0,8
1778661966.0617962,2035,0,8
1778661966.063873,2070,0,8
1778661966.065684,2045,0,8
1778661966.074513,2120,0,8
1778661966.075021,2146,0,8
1778661966.081148,2137,0,8
1778661966.08511,2065,0,8
1778661966.085921,1714,0,8
1778661966.087965,1951,0,8
1778661966.088573,2133,0,8
1778661966.088886,1948,0,8
1778661966.0889258,1936,0,8
1778661966.08896,2068,0,8
1778661966.088991,2092,0,8
1778661966.090374,1854,0,8
1778661966.091775,1908,0,8
1778661966.094464,2014,0,8
1778661966.095994,2003,0,8
1778661966.099317,2079,0,8
1778661966.100629,2054,0,8
1778661966.1081998,2163,0,8
1778661966.113089,2112,0,8
1778661966.114862,1952,0,8
1778661966.115377,1725,0,8
1778661966.1165912,1941,0,8
1778661966.122432,2117,0,8
1778661966.124566,2128,0,8
1778661966.124777,2047,0,8
1778661966.125584,2135,0,8
1778661966.125675,2050,0,8
1778661966.125762,1949,0,8
1778661966.125822,1772,0,8
1778661966.125907,1862,0,8
1778661966.128611,2011,0,8
1778661966.130002,2099,0,8
1778661966.142933,2049,0,8
1778661966.146092,2051,0,8
1778661966.1494908,2116,0,8
1778661966.152309,2179,0,8
1778661966.15253,2019,0,8
1778661966.152697,1855,0,8
1778661966.1527622,1884,0,8
1778661966.152815,2028,0,8
1778661966.152931,2091,0,8
1778661966.15307,1901,0,8
1778661966.15313,2055,0,8
1778661966.154525,2040,0,8
1778661966.1559198,1986,0,8
1778661966.158533,1690,0,8
1778661966.15985,1966,0,8
1778661966.162546,2164,0,8
1778661966.171983,2079,0,8
1778661966.1780102,1937,0,8
1778661966.178675,2061,0,8
1778661966.1792798,2189,0,8
1778661966.1793652,2004,0,8
1778661966.1816478,1807,0,8
1778661966.184675,1871,0,8
1778661966.185127,2081,0,8
1778661966.188301,2111,0,8
1778661966.1884449,2038,0,8
1778661966.18848,2004,0,8
1778661966.188512,2098,0,8
1778661966.188542,2063,0,8
1778661966.1899378,2000,0,8
1778661966.192301,1695,0,8
1778661966.1988091,1953,0,8
1778661966.1993191,2106,0,8
1778661966.1995132,2057,0,8
1778661966.20056,2043,0,8
1778661966.206208,2074,0,8
1778661966.20676,2029,0,8
1778661966.2069309,2019,0,8
1778661966.208708,1667,0,8
1778661966.2112918,1736,0,8
1778661966.2147431,2142,0,8
1778661966.2171562,2242,0,8
1778661966.2174442,2109,0,8
1778661966.21758,1982,0,8
1778661966.2210271,1995,0,8
1778661966.2223969,1825,0,8
1778661966.2240472,1938,0,8
1778661966.226629,1880,0,8
1778661966.227913,1988,0,8
1778661966.236162,2067,0,8
1778661966.241527,1996,0,8
1778661966.2431512,2000,0,8
1778661966.2447581,2142,0,8
1778661966.249438,2093,0,8
1778661966.2497978,1944,0,8
1778661966.25023,1815,0,8
1778661966.25039,1990,0,8
1778661966.250533,2193,0,8
1778661966.250682,2249,0,8
1778661966.2508101,1969,0,8
1778661966.2538471,1918,0,8
1778661966.2538948,1992,0,8
1778661966.2565482,1895,0,8
1778661966.257926,1891,0,8
1778661966.263754,1911,0,8
1778661966.267176,1964,0,8
1778661966.2673988,2069,0,8
1778661966.267704,2004,0,8
1778661966.269948,2096,0,8
1778661966.272183,2169,0,8
1778661966.273205,2056,0,8
1778661966.2782102,1820,0,8
1778661966.2785769,1793,0,8
1778661966.279401,1939,0,8
1778661966.2817228,2014,0,8
1778661966.282051,1951,0,8
1778661966.284711,1959,0,8
1778661966.286062,2065,0,8
1778661966.288558,2019,0,8
1778661966.289902,1901,0,8
1778661966.292525,1856,0,8
1778661966.2981389,2057,0,8
1778661966.298283,2101,0,8
1778661966.298879,2090,0,8
1778661966.301873,1983,0,8
1778661966.3021948,2117,0,8
1778661966.3043368,2123,0,8
1778661966.3061912,1963,0,8
1778661966.311887,1865,0,8
1778661966.312107,2116,0,8
1778661966.3123279,2062,0,8
1778661966.314899,2004,0,8
1778661966.316274,1955,0,8
1778661966.3176289,2031,0,8
1778661966.324933,2098,0,8
1778661966.32562,1959,0,8
1778661966.327034,1779,0,8
1778661966.3297,2025,0,8
1778661966.33258,1985,0,8
1778661966.333737,2142,0,8
1778661966.3340878,2125,0,8
1778661966.334273,2170,0,8
1778661966.338007,2103,0,8
1778661966.3382652,1920,0,8
1778661966.341225,1953,0,8
1778661966.344254,1958,0,8
1778661966.344322,1987,0,8
1778661966.34567,1949,0,8
1778661966.348329,1937,0,8
1778661966.349725,1992,0,8
1778661966.352422,2182,0,8
1778661966.353645,2167,0,8
1778661966.356308,1950,0,8
1778661966.36264,1855,0,8
1778661966.363343,1990,0,8
1778661966.36579,2105,0,8
1778661966.36608,2245,0,8
1778661966.366316,1976,0,8
1778661966.369149,2035,0,8
1778661966.3760772,2196,0,8
1778661966.376391,2113,0,8
1778661966.3767061,1992,0,8
1778661966.377172,1755,0,8
1778661966.3801541,2041,0,8
1778661966.38027,2041,0,8
1778661966.3816152,2163,0,8
1778661966.384296,2044,0,8
1778661966.385665,2168,0,8
1778661966.392283,2067,0,8
1778661966.395434,1876,0,8
1778661966.3975208,1795,0,8
1778661966.399779,2075,0,8
1778661966.400405,2207,0,8
1778661966.404194,2092,0,8
1778661966.406942,2015,0,8
1778661966.407191,2142,0,8
1778661966.407486,2125,0,8
1778661966.407716,1969,0,8
1778661966.408173,1816,0,8
1778661966.4103029,1988,0,8
1778661966.411674,2098,0,8
1778661966.4143,2138,0,8
1778661966.415736,2046,0,8
1778661966.418436,2103,0,8
1778661966.41979,2161,0,8
1778661966.422592,2019,0,8
1778661966.429697,1853,0,8
1778661966.432632,1904,0,8
1778661966.434687,2071,0,8
1778661966.4366798,2196,0,8
1778661966.439192,2019,0,8
1778661966.441341,1975,0,8
1778661966.441559,2184,0,8
1778661966.441914,2057,0,8
1778661966.444741,1855,0,8
1778661966.4449768,2084,0,8
1778661966.445458,2179,0,8
1778661966.4457831,1827,0,8
1778661966.44847,1813,0,8
1778661966.449804,2067,0,8
1778661966.4524732,2454,0,8
1778661966.454131,2127,0,8
1778661966.4602199,1315,0,8
1778661966.463479,1891,0,8
1778661966.463656,2202,0,8
1778661966.463799,2139,0,8
1778661966.4639208,2022,0,8
1778661966.4662242,2110,0,8
1778661966.467741,2343,0,8
1778661966.471446,2633,0,8
1778661966.474991,1657,0,8
1778661966.477751,917,0,8
1778661966.4778922,2325,0,8
1778661966.477961,1896,0,8
1778661966.48064,1971,0,8
1778661966.482028,2114,0,8
1778661966.48471,2003,0,8
1778661966.486079,2082,0,8
1778661966.48876,1772,0,8
1778661966.495531,2093,0,8
1778661966.495741,2005,0,8
1778661966.4963121,2092,0,8
1778661966.4968698,1754,0,8
1778661966.498774,1925,0,8
1778661966.501226,1854,0,8
1778661966.5094259,1748,0,8
1778661966.509836,1539,0,8
1778661966.509965,1944,0,8
1778661966.5102139,1750,0,8
1778661966.5102808,1754,0,8
1778661966.512938,1626,0,8
1778661966.5143209,1710,0,8
1778661966.515689,1840,0,8
1778661966.518247,2053,0,8
1778661966.527231,2038,0,8
1778661966.52771,1872,0,8
1778661966.527961,1419,0,8
1778661966.5313568,1986,0,8
1778661966.53301,2000,0,8
1778661966.533238,2135,0,8
1778661966.5358112,1532,0,8
1778661966.536056,1785,0,8
1778661966.5388522,2278,0,8
1778661966.5394702,2058,0,8
1778661966.539806,1825,0,8
1778661966.542732,2045,0,8
1778661966.5440671,1983,0,8
1778661966.5454469,2013,0,8
1778661966.548076,1992,0,8
1778661966.54945,2053,0,8
1778661966.5521002,2419,0,8
1778661966.554909,1867,0,8
1778661966.562314,1669,0,8
1778661966.563006,2003,0,8
1778661966.565008,2048,0,8
1778661966.568018,1878,0,8
1778661966.5721579,2289,0,8
1778661966.572576,1897,0,8
1778661966.575278,2258,0,8
1778661966.575605,2009,0,8
1778661966.5759768,2278,0,8
1778661966.576343,1596,0,8
1778661966.57652,1833,0,8
1778661966.5794759,2486,0,8
1778661966.57956,2191,0,8
1778661966.581988,2106,0,8
1778661966.5904799,2153,0,8
1778661966.592393,2493,0,8
1778661966.5949,2558,0,8
1778661966.597045,2132,0,8
1778661966.59778,1481,0,8
1778661966.600976,2117,0,8
1778661966.603501,2251,0,8
1778661966.6065621,2446,0,8
1778661966.606821,1701,0,8
1778661966.606981,2448,0,8
1778661966.6071749,2439,0,8
1778661966.6074991,2214,0,8
1778661966.609959,2272,0,8
1778661966.610074,2198,0,8
1778661966.611509,2224,0,8
1778661966.6141639,2404,0,8
1778661966.6154811,2232,0,8
1778661966.618044,2388,0,8
1778661966.62062,2491,0,8
1778661966.621898,1846,0,8
1778661966.628671,2323,0,8
1778661966.630283,2691,0,8
1778661966.630538,1476,0,8
1778661966.630794,1201,0,8
1778661966.632703,2809,0,8
1778661966.634811,3030,0,8
1778661966.637419,3105,0,8
1778661966.6376698,2999,0,8
1778661966.640723,1699,0,8
1778661966.64291,651,0,8
1778661966.644217,2386,0,8
1778661966.645658,3307,0,8
1778661966.6484501,3444,0,8
1778661966.6536121,2418,0,8
1778661966.6557481,2549,0,8
1778661966.656008,1784,0,8
1778661966.657706,2615,0,8
1778661966.658012,3681,0,8
1778661966.660953,2001,0,8
1778661966.6649,2932,0,8
1778661966.667701,2923,0,8
1778661966.668067,68,0,8
1778661966.6686301,2821,0,8
1778661966.671423,3161,0,8
1778661966.671575,3102,0,8
1778661966.674238,2224,0,8
1778661966.675704,2146,0,8
1778661966.678533,2056,0,8
1778661966.679905,3200,0,8
1778661966.688999,3666,0,8
1778661966.69161,2186,0,8
1778661966.69206,2827,0,8
1778661966.692364,3060,0,8
1778661966.6947541,1641,0,8
1778661966.695009,1204,0,8
1778661966.6960561,3022,0,8
1778661966.69677,4095,0,8
1778661966.699643,2332,0,8
1778661966.705067,1993,0,8
1778661966.705982,2838,0,8
1778661966.7060962,2318,0,8
1778661966.706152,3469,0,8
1778661966.707507,3453,0,8
1778661966.710151,3202,0,8
1778661966.715692,2379,0,8
1778661966.716374,2478,0,8
1778661966.716984,2930,0,8
1778661966.7219021,3200,0,8
1778661966.722522,3138,0,8
1778661966.723627,2037,0,8
1778661966.724628,1119,0,8
1778661966.730077,4095,0,8
1778661966.7303522,2758,0,8
1778661966.730693,2695,0,8
1778661966.7332969,2980,0,8
1778661966.733388,2341,0,8
1778661966.736038,3464,0,8
1778661966.7384489,3221,0,8
1778661966.739787,2639,0,8
1778661966.74228,1974,0,8
1778661966.743725,2277,0,8
1778661966.7509792,3024,0,8
1778661966.754982,2066,0,8
1778661966.755593,2355,0,8
1778661966.756264,2821,0,8
1778661966.756941,3105,0,8
1778661966.7580988,1322,0,8
1778661966.7591848,924,0,8
1778661966.764312,3580,0,8
1778661966.764637,2249,0,8
1778661966.76503,2579,0,8
1778661966.767484,1986,0,8
1778661966.767614,3527,0,8
1778661966.770153,1644,0,8
1778661966.771518,1848,0,8
1778661966.778466,3879,0,8
1778661966.779032,2753,0,8
1778661966.781248,1275,0,8
1778661966.783236,2783,0,8
1778661966.784223,3780,0,8
1778661966.786418,1726,0,8
1778661966.788555,1148,0,8
1778661966.7922702,2604,0,8
1778661966.792661,3327,0,8
1778661966.79288,1619,0,8
1778661966.794825,1985,0,8
1778661966.796214,2343,0,8
1778661966.797632,2320,0,8
1778661966.8001668,2488,0,8
1778661966.801528,1574,0,8
1778661966.804266,2388,0,8
1778661966.8057091,3012,0,8
1778661966.811894,2567,0,8
1778661966.812882,761,0,8
1778661966.814856,2428,0,8
1778661966.815226,2499,0,8
1778661966.8154721,2814,0,8
1778661966.817805,1586,0,8
1778661966.820022,2672,0,8
1778661966.822455,2316,0,8
1778661966.8260522,2198,0,8
1778661966.8262699,1302,0,8
1778661966.8289988,1569,0,8
1778661966.830514,1485,0,8
1778661966.831939,3350,0,8
1778661966.833416,2787,0,8
1778661966.838639,2153,0,8
1778661966.839319,2086,0,8
1778661966.839937,2020,0,8
1778661966.84235,2214,0,8
1778661966.844676,2289,0,8
1778661966.8471282,2641,0,8
1778661966.8489869,1709,0,8
1778661966.8554409,110,0,8
1778661966.8557382,2944,0,8
1778661966.8558211,2580,0,8
1778661966.85586,2017,0,8
1778661966.858558,1719,0,8
1778661966.860607,2691,0,8
1778661966.862102,2895,0,8
1778661966.863897,987,0,8
1778661966.865592,1385,0,8
1778661966.873919,3316,0,8
1778661966.87618,2458,0,8
1778661966.8765981,1781,0,8
1778661966.8787851,1910,0,8
1778661966.881713,1714,0,8
1778661966.8843331,2059,0,8
1778661966.888453,2631,0,8
1778661966.889058,2351,0,8
1778661966.891865,2147,0,8
1778661966.892033,2367,0,8
1778661966.8921,1939,0,8
1778661966.892153,1419,0,8
1778661966.892203,1009,0,8
1778661966.893664,2255,0,8
1778661966.896277,2331,0,8
1778661966.90624,3065,0,8
1778661966.9065752,1992,0,8
1778661966.908492,2025,0,8
1778661966.909048,2074,0,8
1778661966.909835,1559,0,8
1778661966.9104881,2482,0,8
1778661966.910943,2166,0,8
1778661966.9180999,1897,0,8
1778661966.918893,2854,0,8
1778661966.921489,2292,0,8
1778661966.92163,2117,0,8
1778661966.921708,2455,0,8
1778661966.921812,2337,0,8
1778661966.924226,1739,0,8
1778661966.92566,2298,0,8
1778661966.928381,2396,0,8
1778661966.929787,1903,0,8
1778661966.9376068,2658,0,8
1778661966.938221,2487,0,8
1778661966.938812,2581,0,8
1778661966.939795,2283,0,8
1778661966.9415271,2806,0,8
1778661966.941728,2053,0,8
1778661966.945067,2087,0,8
1778661966.948726,1923,0,8
1778661966.948906,2485,0,8
1778661966.953592,2174,0,8
1778661966.9555671,2985,0,8
1778661966.955745,1942,0,8
1778661966.956526,2055,0,8
1778661966.9578948,2527,0,8
1778661966.960311,2603,0,8
1778661966.96623,2779,0,8
1778661966.967405,2997,0,8
1778661966.969873,2175,0,8
1778661966.97038,2079,0,8
1778661966.972866,1743,0,8
1778661966.97364,3380,0,8
1778661966.974215,2128,0,8
1778661966.9778109,1781,0,8
1778661966.9780428,2401,0,8
1778661966.982701,3235,0,8
1778661966.983171,2241,0,8
1778661966.983448,2048,0,8
1778661966.986293,2405,0,8
1778661966.9876301,2265,0,8
1778661966.9901922,2006,0,8
1778661966.9915268,1756,0,8
1778661966.994109,2017,0,8
1778661966.995786,2210,0,8
1778661966.997258,2765,0,8
1778661967.005238,1802,0,8
1778661967.006829,2181,0,8
1778661967.007235,2162,0,8
1778661967.0089111,2692,0,8
1778661967.0109,2392,0,8
1778661967.011483,1576,0,8
1778661967.012152,2408,0,8
1778661967.014786,2551,0,8
1778661967.0191061,1865,0,8
1778661967.019479,1238,0,8
1778661967.020084,2732,0,8
1778661967.02272,2787,0,8
1778661967.0240462,2125,0,8
1778661967.02544,1866,0,8
1778661967.033376,1978,0,8
1778661967.0343611,2513,0,8
1778661967.036522,1759,0,8
1778661967.039232,2439,0,8
1778661967.0399601,2418,0,8
1778661967.0406,2406,0,8
1778661967.041673,1931,0,8
1778661967.048482,1833,0,8
1778661967.0487208,2069,0,8
1778661967.049023,2163,0,8
1778661967.049185,2399,0,8
1778661967.049492,2511,0,8
1778661967.0522208,2368,0,8
1778661967.053663,2416,0,8
1778661967.0563369,2078,0,8
1778661967.057685,649,0,8
1778661967.0596108,2064,0,8
1778661967.061474,3036,0,8
1778661967.087466,2727,0,8
1778661967.088149,2164,0,8
1778661967.114223,1805,0,8
1778661967.11428,2332,0,8
1778661967.114312,2554,0,8
1778661967.114342,2224,0,8
1778661967.114372,1997,0,8
1778661967.114401,2080,0,8
1778661967.114429,2245,0,8
1778661967.114458,2030,0,8
1778661967.114487,1629,0,8
1778661967.1145148,2872,0,8
1778661967.1145432,2552,0,8
1778661967.114571,1839,0,8
1778661967.114599,1507,0,8
1778661967.1146271,2893,0,8
1778661967.114723,2588,0,8
1778661967.114785,1230,0,8
1778661967.114814,2332,0,8
1778661967.1148438,2606,0,8
1778661967.114872,2648,0,8
1778661967.114933,2131,0,8
1778661967.114974,1658,0,8
1778661967.115007,2000,0,8
1778661967.115037,2258,0,8
1778661967.1150742,1862,0,8
1778661967.115298,2082,0,8
1778661967.120044,2394,0,8
1778661967.120089,2370,0,8
1778661967.1223629,2430,0,8
1778661967.124436,1332,0,8
1778661967.1370418,1952,0,8
1778661967.1439948,2410,0,8
1778661967.1441972,2533,0,8
1778661967.144366,1819,0,8
1778661967.1446059,1839,0,8
1778661967.144824,2397,0,8
1778661967.145014,2482,0,8
1778661967.1452,1857,0,8
1778661967.145347,1726,0,8
1778661967.1454232,2273,0,8
1778661967.145517,2198,0,8
1778661967.148969,2135,0,8
1778661967.150269,2136,0,8
1778661967.151577,1958,0,8
1778661967.157326,1774,0,8
1778661967.158401,2244,0,8
1778661967.158932,1922,0,8
1778661967.161072,1882,0,8
1778661967.16128,2252,0,8
1778661967.163571,2157,0,8
1778661967.1674361,2171,0,8
1778661967.167732,2097,0,8
1778661967.1722019,2367,0,8
1778661967.1724238,2135,0,8
1778661967.1747599,1861,0,8
1778661967.176064,1776,0,8
1778661967.177376,1673,0,8
1778661967.179948,2187,0,8
1778661967.181244,2320,0,8
1778661967.183809,2197,0,8
1778661967.185179,2100,0,8
1778661967.190272,2096,0,8
1778661967.1907861,1988,0,8
1778661967.19397,1793,0,8
1778661967.194205,1863,0,8
1778661967.1965098,1988,0,8
1778661967.198267,1787,0,8
1778661967.200753,2396,0,8
1778661967.205386,2224,0,8
1778661967.2055318,2099,0,8
1778661967.205695,1703,0,8
1778661967.208032,1534,0,8
1778661967.209339,2238,0,8
1778661967.211915,2039,0,8
1778661967.213253,2249,0,8
1778661967.218425,2066,0,8
1778661967.219058,2026,0,8
1778661967.221708,2178,0,8
1778661967.221853,2054,0,8
1778661967.224162,1861,0,8
1778661967.226235,1932,0,8
1778661967.2282062,2159,0,8
1778661967.232687,2110,0,8
1778661967.232928,2068,0,8
1778661967.235481,2015,0,8
1778661967.235666,2095,0,8
1778661967.2382631,2163,0,8
1778661967.239579,1903,0,8
1778661967.242155,1940,0,8
1778661967.243453,2004,0,8
1778661967.246017,1994,0,8
1778661967.2513301,2170,0,8
1778661967.2519329,2049,0,8
1778661967.252689,2045,0,8
1778661967.2552168,2040,0,8
1778661967.255337,2052,0,8
1778661967.259336,1936,0,8
1778661967.260271,2038,0,8
1778661967.266376,2224,0,8
1778661967.266589,2168,0,8
1778661967.266985,2029,0,8
1778661967.2673159,2134,0,8
1778661967.269778,2309,0,8
1778661967.271162,2076,0,8
1778661967.273777,1591,0,8
1778661967.279367,1734,0,8
1778661967.280015,2179,0,8
1778661967.280571,2074,0,8
1778661967.282779,1992,0,8
1778661967.284582,2031,0,8
1778661967.2870579,2183,0,8
1778661967.287651,2115,0,8
1778661967.289292,1938,0,8
1778661967.2937758,1791,0,8
1778661967.293897,2007,0,8
1778661967.29664,2066,0,8
1778661967.297951,2071,0,8
1778661967.299098,1935,0,8
1778661967.301692,2054,0,8
1778661967.303134,2099,0,8
1778661967.3057768,1920,0,8
1778661967.30724,1749,0,8
1778661967.3147788,1893,0,8
1778661967.316463,2018,0,8
1778661967.316621,2046,0,8
1778661967.316727,1977,0,8
1778661967.3208692,2036,0,8
1778661967.321919,2161,0,8
1778661967.323814,1974,0,8
1778661967.3288882,1830,0,8
1778661967.329061,1849,0,8
1778661967.3295748,2049,0,8
1778661967.331817,2113,0,8
1778661967.332621,2054,0,8
1778661967.3339882,1999,0,8
1778661967.3353422,2180,0,8
1778661967.342436,2139,0,8
1778661967.343144,1934,0,8
1778661967.344314,1745,0,8
1778661967.345459,1997,0,8
1778661967.347167,2085,0,8
1778661967.347373,2021,0,8
1778661967.351367,1895,0,8
1778661967.352016,1974,0,8
1778661967.360081,1998,0,8
1778661967.360405,1877,0,8
1778661967.360621,1652,0,8
1778661967.361001,1854,0,8
1778661967.36128,1947,0,8
1778661967.363935,1910,0,8
1778661967.365313,1952,0,8
1778661967.3687491,1985,0,8
1778661967.370168,2071,0,8
1778661967.3716211,1923,0,8
1778661967.3731682,1694,0,8
1778661967.384307,1753,0,8
1778661967.384453,2088,0,8
1778661967.3873239,1930,0,8
1778661967.388159,1838,0,8
1778661967.396905,1920,0,8
1778661967.3996868,2010,0,8
1778661967.3998451,1914,0,8
1778661967.3999271,1663,0,8
1778661967.399968,1601,0,8
1778661967.4,1911,0,8
1778661967.400032,1927,0,8
1778661967.400061,1940,0,8
1778661967.4000928,1887,0,8
1778661967.401537,1985,0,8
1778661967.404395,2011,0,8
1778661967.41563,1820,0,8
1778661967.4252732,1649,0,8
1778661967.426046,1866,0,8
1778661967.429878,1964,0,8
1778661967.429929,2060,0,8
1778661967.43014,2005,0,8
1778661967.430259,1996,0,8
1778661967.43032,2070,0,8
1778661967.43037,2026,0,8
1778661967.430419,1788,0,8
1778661967.4304671,1774,0,8
1778661967.4305139,2075,0,8
1778661967.430562,2118,0,8
1778661967.432202,1781,0,8
1778661967.4336221,1842,0,8
1778661967.4350872,2158,0,8
1778661967.4377742,2141,0,8
1778661967.4391801,1670,0,8
1778661967.4476721,1641,0,8
1778661967.44834,1907,0,8
1778661967.4490051,2040,0,8
1778661967.450686,2090,0,8
1778661967.450929,1983,0,8
1778661967.45458,2064,0,8
1778661967.455162,2138,0,8
1778661967.4557161,2021,0,8
1778661967.458355,1861,0,8
1778661967.4630752,1806,0,8
1778661967.463449,1975,0,8
1778661967.4638238,2143,0,8
1778661967.466327,1982,0,8
1778661967.467766,2052,0,8
1778661967.469126,2112,0,8
1778661967.4777238,2034,0,8
1778661967.479379,1935,0,8
1778661967.4797308,1753,0,8
1778661967.480021,1939,0,8
1778661967.48332,2270,0,8
1778661967.484365,2078,0,8
1778661967.484542,1978,0,8
1778661967.491977,2040,0,8
1778661967.492228,2058,0,8
1778661967.492523,1864,0,8
1778661967.492766,1728,0,8
1778661967.495093,1931,0,8
1778661967.495439,2066,0,8
1778661967.4979782,1987,0,8
1778661967.499329,1872,0,8
1778661967.5019672,1954,0,8
1778661967.503891,2133,0,8
1778661967.505708,2025,0,8
1778661967.513213,1721,0,8
1778661967.513407,1782,0,8
1778661967.514004,1982,0,8
1778661967.5177758,2172,0,8
1778661967.518419,2174,0,8
1778661967.520802,1922,0,8
1778661967.52288,2062,0,8
1778661967.5275671,2084,0,8
1778661967.5279748,1867,0,8
1778661967.5281322,1875,0,8
1778661967.528517,2032,0,8
1778661967.530991,2046,0,8
1778661967.5310662,2120,0,8
1778661967.533699,2159,0,8
1778661967.535094,2156,0,8
1778661967.5404868,2005,0,8
1778661967.5416598,1980,0,8
1778661967.54412,1731,0,8
1778661967.54437,1881,0,8
1778661967.5469599,2033,0,8
1778661967.5475771,2118,0,8
1778661967.549713,2021,0,8
1778661967.556271,2044,0,8
1778661967.5564659,2166,0,8
1778661967.556982,2047,0,8
1778661967.557311,1654,0,8
1778661967.559659,1941,0,8
1778661967.5610251,2089,0,8
1778661967.5636292,2140,0,8
1778661967.5661252,2030,0,8
1778661967.567453,2110,0,8
1778661967.570113,2155,0,8
1778661967.5768452,2036,0,8
1778661967.5931048,1715,0,8
1778661967.593306,1833,0,8
1778661967.593343,2048,0,8
1778661967.593374,2141,0,8
1778661967.5934029,2004,0,8
1778661967.593432,1799,0,8
1778661967.593461,2010,0,8
1778661967.593708,2209,0,8
1778661967.59374,1858,0,8
1778661967.59377,1772,0,8
1778661967.5937989,1991,0,8
1778661967.595254,2081,0,8
1778661967.598075,2067,0,8
1778661967.600157,2003,0,8
1778661967.606847,2081,0,8
1778661967.607904,2095,0,8
1778661967.608505,2075,0,8
1778661967.610145,1829,0,8
1778661967.6131232,1851,0,8
1778661967.614711,1996,0,8
1778661967.6162298,2094,0,8
1778661967.618096,2046,0,8
1778661967.623011,2036,0,8
1778661967.623412,2107,0,8
1778661967.62381,1995,0,8
1778661967.624071,2020,0,8
1778661967.626644,1805,0,8
1778661967.628107,1974,0,8
1778661967.630025,2063,0,8
1778661967.6314251,2015,0,8
1778661967.634014,1925,0,8
1778661967.635387,2013,0,8
1778661967.636957,2164,0,8
1778661967.647263,1844,0,8
1778661967.649237,1780,0,8
1778661967.649726,2005,0,8
1778661967.650218,2077,0,8
1778661967.6508071,2088,0,8
1778661967.6516821,2057,0,8
1778661967.6594439,2147,0,8
1778661967.6603122,2194,0,8
1778661967.662716,1913,0,8
1778661967.662784,1639,0,8
1778661967.662818,1900,0,8
1778661967.66326,2030,0,8
1778661967.663525,2095,0,8
1778661967.665003,2110,0,8
1778661967.6679502,2100,0,8
1778661967.688971,2173,0,8
1778661967.6897438,1989,0,8
1778661967.6898172,1832,0,8
1778661967.689854,1833,0,8
1778661967.689964,2030,0,8
1778661967.689995,2170,0,8
1778661967.690058,2112,0,8
1778661967.690144,1989,0,8
1778661967.6902132,2154,0,8
1778661967.690306,2046,0,8
1778661967.690397,1834,0,8
1778661967.69176,1739,0,8
1778661967.693125,2189,0,8
1778661967.695786,2158,0,8
1778661967.6971,1988,0,8
1778661967.6996858,1917,0,8
1778661967.705867,2083,0,8
1778661967.707104,2209,0,8
1778661967.708547,1960,0,8
1778661967.708909,1691,0,8
1778661967.7133079,1860,0,8
1778661967.715085,2065,0,8
1778661967.7153122,2104,0,8
1778661967.7217321,2069,0,8
1778661967.722047,2229,0,8
1778661967.7221398,2135,0,8
1778661967.72222,1859,0,8
1778661967.723558,1821,0,8
1778661967.726273,1872,0,8
1778661967.730316,1996,0,8
1778661967.7312279,2176,0,8
1778661967.7321851,2183,0,8
1778661967.733938,2030,0,8
1778661967.736832,1938,0,8
1778661967.737814,1866,0,8
1778661967.743445,1921,0,8
1778661967.743943,1881,0,8
1778661967.7441092,2025,0,8
1778661967.746122,2240,0,8
1778661967.747471,2072,0,8
1778661967.750069,1800,0,8
1778661967.75142,2086,0,8
1778661967.7541919,2080,0,8
1778661967.75556,2012,0,8
1778661967.7615879,1840,0,8
1778661967.762031,1915,0,8
1778661967.762485,1979,0,8
1778661967.764501,2047,0,8
1778661967.7679412,2074,0,8
1778661967.770786,2031,0,8
1778661967.770997,2086,0,8
1778661967.774558,1992,0,8
1778661967.774831,1771,0,8
1778661967.7750862,1856,0,8
1778661967.777429,1916,0,8
1778661967.779906,1858,0,8
1778661967.7812228,1894,0,8
1778661967.7887769,2019,0,8
1778661967.790261,2249,0,8
1778661967.790466,1990,0,8
1778661967.7905438,1961,0,8
1778661967.7921941,1790,0,8
1778661967.796284,1935,0,8
1778661967.796363,2011,0,8
1778661967.799608,2005,0,8
1778661967.799893,1937,0,8
1778661967.802319,2078,0,8
1778661967.8037,2128,0,8
1778661967.804998,2018,0,8
1778661967.8075688,1777,0,8
1778661967.8088698,1825,0,8
1778661967.811436,1925,0,8
1778661967.8163688,1975,0,8
1778661967.8168478,1934,0,8
1778661967.817329,1959,0,8
1778661967.819995,2046,0,8
1778661967.822002,1984,0,8
1778661967.8240352,1872,0,8
1778661967.8261251,1852,0,8
1778661967.8293068,2000,0,8
1778661967.8295481,2098,0,8
1778661967.831891,1982,0,8
1778661967.833194,1973,0,8
1778661967.835904,2102,0,8
1778661967.841297,2018,0,8
1778661967.842088,1796,0,8
1778661967.842622,1705,0,8
1778661967.845536,1992,0,8
1778661967.846109,2061,0,8
1778661967.8480508,1923,0,8
1778661967.849885,2046,0,8
1778661967.8536608,2005,0,8
1778661967.853848,1868,0,8
1778661967.855757,1870,0,8
1778661967.857067,1835,0,8
1778661967.8594098,1832,0,8
1778661967.861965,1894,0,8
1778661967.8632529,2010,0,8
1778661967.870322,2029,0,8
1778661967.871111,2007,0,8
1778661967.872392,2070,0,8
1778661967.8738618,2006,0,8
1778661967.874241,1843,0,8
1778661967.876138,1784,0,8
1778661967.877972,1971,0,8
1778661967.880843,2021,0,8
1778661967.881176,2045,0,8
1778661967.883272,2061,0,8
1778661967.885874,2105,0,8
1778661967.8871732,2069,0,8
1778661967.891306,1907,0,8
1778661967.892176,1748,0,8
1778661967.8944519,1951,0,8
1778661967.896235,2017,0,8
1778661967.897929,2085,0,8
1778661967.8996952,1967,0,8
1778661967.90434,1986,0,8
1778661967.904981,2102,0,8
1778661967.905018,1997,0,8
1778661967.9075682,1886,0,8
1778661967.908938,1965,0,8
1778661967.911547,1928,0,8
1778661967.912936,2072,0,8
1778661967.922128,2019,0,8
1778661967.922354,2066,0,8
1778661967.922504,2091,0,8
1778661967.922658,1990,0,8
1778661967.925317,1873,0,8
1778661967.9257898,1811,0,8
1778661967.931604,2023,0,8
1778661967.9316878,2140,0,8
1778661967.931932,2132,0,8
1778661967.93413,2064,0,8
1778661967.935526,2142,0,8
1778661967.93698,2136,0,8
1778661967.944341,1751,0,8
1778661967.947273,1643,0,8
1778661967.947387,1879,0,8
1778661967.947841,2004,0,8
1778661967.948351,2151,0,8
1778661967.950046,1960,0,8
1778661967.951488,2008,0,8
1778661967.9542542,2133,0,8
1778661967.956413,2026,0,8
1778661967.957721,1935,0,8
1778661967.959029,1940,0,8
1778661967.961626,2041,0,8
1778661967.96293,2091,0,8
1778661967.965487,1993,0,8
1778661967.971158,2034,0,8
1778661967.9712498,2211,0,8
1778661967.9716322,2024,0,8
1778661967.973802,1953,0,8
1778661967.976019,1837,0,8
1778661967.979397,1965,0,8
1778661967.9795141,2052,0,8
1778661967.984417,2103,0,8
1778661967.9845068,1992,0,8
1778661967.985825,2114,0,8
1778661967.987228,2070,0,8
1778661967.994773,1888,0,8
1778661967.9969978,1973,0,8
1778661967.9971368,2197,0,8
1778661967.997238,1880,0,8
1778661967.99739,2004,0,8
1778661967.99951,2015,0,8
1778661968.001625,2067,0,8
1778661968.005569,2035,0,8
1778661968.005673,1839,0,8
1778661968.007956,1770,0,8
1778661968.009286,1876,0,8
1778661968.0122418,2052,0,8
1778661968.0135381,2023,0,8
1778661968.014859,2055,0,8
1778661968.0174139,2413,0,8
1778661968.022264,2083,0,8
1778661968.023561,1897,0,8
1778661968.024512,2069,0,8
1778661968.0258791,1799,0,8
1778661968.028634,1952,0,8
1778661968.031481,2039,0,8
1778661968.031608,2008,0,8
1778661968.034126,1972,0,8
1778661968.036708,2072,0,8
1778661968.036843,2043,0,8
1778661968.0394309,1855,0,8
1778661968.0408452,1791,0,8
1778661968.045783,2092,0,8
1778661968.046303,2089,0,8
1778661968.048557,2084,0,8
1778661968.0500932,1993,0,8
1778661968.053875,2076,0,8
1778661968.054007,2223,0,8
1778661968.0564039,1963,0,8
1778661968.058527,1680,0,8
1778661968.0598311,1825,0,8
1778661968.061227,2031,0,8
1778661968.063791,2168,0,8
1778661968.06509,2158,0,8
1778661968.067638,1937,0,8
1778661968.072813,2027,0,8
1778661968.0748749,2009,0,8
1778661968.0764859,1860,0,8
1778661968.076975,1852,0,8
1778661968.0781069,2048,0,8
1778661968.0825658,2080,0,8
1778661968.082793,2160,0,8
1778661968.0829382,2016,0,8
1778661968.08574,2109,0,8
1778661968.0872588,1997,0,8
1778661968.093906,1925,0,8
1778661968.0961769,1821,0,8
1778661968.096274,2060,0,8
1778661968.098284,2058,0,8
1778661968.099091,1930,0,8
1778661968.099541,2030,0,8
1778661968.101681,2158,0,8
1778661968.1045928,2148,0,8
1778661968.106336,1924,0,8
1778661968.107636,1689,0,8
1778661968.108926,2038,0,8
1778661968.111551,2097,0,8
1778661968.112853,2105,0,8
1778661968.115422,2024,0,8
1778661968.1211689,1986,0,8
1778661968.12156,2252,0,8
1778661968.121975,2068,0,8
1778661968.1253629,1783,0,8
1778661968.126209,1808,0,8
1778661968.128829,2019,0,8
1778661968.131361,2128,0,8
1778661968.1334221,2133,0,8
1778661968.133512,1902,0,8
1778661968.134835,2086,0,8
1778661968.1374311,2123,0,8
1778661968.1432052,1990,0,8
1778661968.152065,1863,0,8
1778661968.152313,1965,0,8
1778661968.154461,2068,0,8
1778661968.1545548,2108,0,8
1778661968.154589,2037,0,8
1778661968.154616,2061,0,8
1778661968.154641,2160,0,8
1778661968.154706,2068,0,8
1778661968.157295,1860,0,8
1778661968.1587222,1994,0,8
1778661968.161524,2097,0,8
1778661968.163054,2009,0,8
1778661968.1836119,1882,0,8
1778661968.18375,2018,0,8
1778661968.18379,2151,0,8
1778661968.18385,2098,0,8
1778661968.184,1819,0,8
1778661968.1840599,1781,0,8
1778661968.1840892,2019,0,8
1778661968.184117,2163,0,8
1778661968.184145,2113,0,8
1778661968.18417,2058,0,8
1778661968.185366,2156,0,8
1778661968.186742,2084,0,8
1778661968.192009,1922,0,8
1778661968.196615,1820,0,8
1778661968.19712,2035,0,8
1778661968.197666,2182,0,8
1778661968.198306,2215,0,8
1778661968.2051048,1924,0,8
1778661968.205804,2076,0,8
1778661968.205853,2140,0,8
1778661968.205894,1812,0,8
1778661968.207307,1759,0,8
1778661968.2099378,1901,0,8
1778661968.2112472,1989,0,8
1778661968.214057,2023,0,8
1778661968.215358,2033,0,8
1778661968.225145,2149,0,8
1778661968.2272441,2167,0,8
1778661968.233212,2123,0,8
1778661968.233344,1992,0,8
1778661968.2334359,1834,0,8
1778661968.2335958,2016,0,8
1778661968.23388,2239,0,8
1778661968.233998,2025,0,8
1778661968.234092,1994,0,8
1778661968.2361019,2164,0,8
1778661968.237419,2160,0,8
1778661968.2387252,1953,0,8
1778661968.245701,1739,0,8
1778661968.246279,2095,0,8
1778661968.246847,2011,0,8
1778661968.247848,2186,0,8
1778661968.249207,2062,0,8
1778661968.251981,2028,0,8
1778661968.2549329,2189,0,8
1778661968.255032,2141,0,8
1778661968.257451,1781,0,8
1778661968.2594292,1984,0,8
1778661968.26073,2135,0,8
1778661968.2633789,1992,0,8
1778661968.264689,1923,0,8
1778661968.2672489,2057,0,8
1778661968.269809,2240,0,8
1778661968.275394,2117,0,8
1778661968.2763038,1731,0,8
1778661968.2768059,1883,0,8
1778661968.277301,2049,0,8
1778661968.278729,2171,0,8
1778661968.281365,2150,0,8
1778661968.282999,1975,0,8
1778661968.286975,2128,0,8
1778661968.287518,2073,0,8
1778661968.2892401,2122,0,8
1778661968.2918122,1856,0,8
1778661968.292907,1850,0,8
1778661968.295477,2096,0,8
1778661968.296777,2002,0,8
1778661968.301949,2049,0,8
1778661968.302944,2113,0,8
1778661968.303144,2182,0,8
1778661968.307677,2032,0,8
1778661968.3080919,1804,0,8
1778661968.30969,1906,0,8
1778661968.31162,2144,0,8
1778661968.3141341,2090,0,8
1778661968.3167949,1994,0,8
1778661968.316868,2045,0,8
1778661968.319547,2199,0,8
1778661968.320919,2108,0,8
1778661968.323744,1842,0,8
1778661968.325073,1803,0,8
1778661968.332959,2039,0,8
1778661968.3335779,2148,0,8
1778661968.335435,2118,0,8
1778661968.3383522,2022,0,8
1778661968.339007,2117,0,8
1778661968.3401332,2115,0,8
1778661968.342734,1983,0,8
1778661968.346399,1835,0,8
1778661968.346663,1942,0,8
1778661968.347046,2082,0,8
1778661968.347299,2157,0,8
1778661968.349306,2007,0,8
1778661968.3506272,2053,0,8
1778661968.353191,2117,0,8
1778661968.355922,1987,0,8
1778661968.363957,1955,0,8
1778661968.36449,2071,0,8
1778661968.364761,2000,0,8
1778661968.3671901,1963,0,8
1778661968.367765,2179,0,8
1778661968.368004,2228,0,8
1778661968.3699808,1984,0,8
1778661968.372159,2211,0,8
1778661968.374885,1876,0,8
1778661968.3753228,1156,0,8
1778661968.377902,1963,0,8
1778661968.379303,2559,0,8
1778661968.381984,2155,0,8
1778661968.383355,1748,0,8
1778661968.3847182,2164,0,8
1778661968.3873332,2144,0,8
1778661968.388659,2276,0,8
1778661968.400649,2478,0,8
1778661968.4021819,1502,0,8
1778661968.404567,2077,0,8
1778661968.407583,1663,0,8
1778661968.407855,2021,0,8
1778661968.4104729,2188,0,8
1778661968.410655,1610,0,8
1778661968.4106948,1727,0,8
1778661968.410752,2105,0,8
1778661968.410809,2270,0,8
1778661968.410887,1687,0,8
1778661968.413513,2108,0,8
1778661968.414752,2503,0,8
1778661968.42183,1877,0,8
1778661968.425322,1678,0,8
1778661968.429798,2400,0,8
1778661968.432807,2146,0,8
1778661968.432965,816,0,8
1778661968.4333,2020,0,8
1778661968.43398,1948,0,8
1778661968.436316,1365,0,8
1778661968.43646,1993,0,8
1778661968.436613,2183,0,8
1778661968.436712,1717,0,8
1778661968.439352,476,0,8
1778661968.440701,1911,0,8
1778661968.443316,1909,0,8
1778661968.444719,1980,0,8
1778661968.447528,2349,0,8
1778661968.4564302,1763,0,8
1778661968.456692,2035,0,8
1778661968.459353,1820,0,8
1778661968.4595509,2097,0,8
1778661968.460323,2024,0,8
1778661968.461812,1784,0,8
1778661968.462979,1494,0,8
1778661968.4648361,1984,0,8
1778661968.465133,2092,0,8
1778661968.46809,1934,0,8
1778661968.4701812,1876,0,8
1778661968.4715168,2211,0,8
1778661968.472851,1622,0,8
1778661968.475424,2015,0,8
1778661968.483007,1603,0,8
1778661968.485301,1675,0,8
1778661968.487227,2209,0,8
1778661968.487404,2288,0,8
1778661968.488492,1850,0,8
1778661968.49037,1862,0,8
1778661968.4909172,1821,0,8
1778661968.493958,2012,0,8
1778661968.494474,2045,0,8
1778661968.497718,1858,0,8
1778661968.4980721,2293,0,8
1778661968.500958,1924,0,8
1778661968.501031,1843,0,8
1778661968.503755,2218,0,8
1778661968.505117,2060,0,8
1778661968.507712,1672,0,8
1778661968.5090182,1744,0,8
1778661968.511668,1584,0,8
1778661968.517005,2465,0,8
1778661968.5171468,1820,0,8
1778661968.518199,2975,0,8
1778661968.520596,2213,0,8
1778661968.520768,1466,0,8
1778661968.522679,2084,0,8
1778661968.527222,2085,0,8
1778661968.527314,2303,0,8
1778661968.53011,2424,0,8
1778661968.532723,1160,0,8
1778661968.5327969,2070,0,8
1778661968.5356202,2110,0,8
1778661968.53702,1966,0,8
1778661968.542641,2416,0,8
1778661968.544097,2183,0,8
1778661968.546035,2259,0,8
1778661968.546209,1643,0,8
1778661968.54999,2411,0,8
1778661968.550108,2545,0,8
1778661968.5550961,2212,0,8
1778661968.555404,1406,0,8
1778661968.555558,1627,0,8
1778661968.557882,2661,0,8
1778661968.5591922,2573,0,8
1778661968.560834,1687,0,8
1778661968.563422,1900,0,8
1778661968.564729,2403,0,8
1778661968.567294,2261,0,8
1778661968.572253,1543,0,8
1778661968.572767,3240,0,8
1778661968.5732732,2305,0,8
1778661968.575671,1416,0,8
1778661968.577863,2242,0,8
1778661968.579712,2172,0,8
1778661968.581425,2895,0,8
1778661968.584258,1609,0,8
1778661968.586475,2537,0,8
1778661968.5866082,2869,0,8
1778661968.589168,725,0,8
1778661968.590583,2138,0,8
1778661968.595758,2754,0,8
1778661968.598382,1590,0,8
1778661968.598645,1841,0,8
1778661968.6003351,2440,0,8
1778661968.6045141,2548,0,8
1778661968.6047392,2290,0,8
1778661968.607562,2488,0,8
1778661968.608011,2313,0,8
1778661968.6101649,1861,0,8
1778661968.611496,1243,0,8
1778661968.612874,3344,0,8
1778661968.615474,2211,0,8
1778661968.616875,1431,0,8
1778661968.6196969,3117,0,8
1778661968.625076,2560,0,8
1778661968.626422,2052,0,8
1778661968.627372,2310,0,8
1778661968.630599,1606,0,8
1778661968.6315,3221,0,8
1778661968.6319768,2008,0,8
1778661968.633464,1928,0,8
1778661968.63496,3340,0,8
1778661968.638091,1932,0,8
1778661968.640327,1992,0,8
1778661968.641739,1151,0,8
1778661968.643274,1872,0,8
1778661968.6447968,3140,0,8
1778661968.649825,2458,0,8
1778661968.649906,2458,0,8
1778661968.652718,2631,0,8
1778661968.655116,2834,0,8
1778661968.6555588,2264,0,8
1778661968.65732,1996,0,8
1778661968.658847,1520,0,8
1778661968.661678,2776,0,8
1778661968.663506,2296,0,8
1778661968.664804,1907,0,8
1778661968.667375,2108,0,8
1778661968.668685,3128,0,8
1778661968.6712582,2500,0,8
1778661968.6726131,965,0,8
1778661968.6794062,2365,0,8
1778661968.6816819,2085,0,8
1778661968.684038,3664,0,8
1778661968.6845481,2579,0,8
1778661968.684983,410,0,8
1778661968.688405,1687,0,8
1778661968.691523,2929,0,8
1778661968.6916249,2856,0,8
1778661968.691791,3194,0,8
1778661968.694148,2114,0,8
1778661968.695474,2486,0,8
1778661968.6967769,835,0,8
1778661968.70383,2614,0,8
1778661968.704776,3289,0,8
1778661968.706625,2835,0,8
1778661968.70671,1011,0,8
1778661968.7068899,2122,0,8
1778661968.709897,2937,0,8
1778661968.712342,2720,0,8
1778661968.715461,1976,0,8
1778661968.7156742,3006,0,8
1778661968.717788,1774,0,8
1778661968.719123,3404,0,8
1778661968.7206662,1679,0,8
1778661968.723264,1551,0,8
1778661968.724558,3301,0,8
1778661968.7271638,2912,0,8
1778661968.732158,1532,0,8
1778661968.7322712,2196,0,8
1778661968.734287,2046,0,8
1778661968.737013,3658,0,8
1778661968.737479,740,0,8
1778661968.7398558,841,0,8
1778661968.7429068,3238,0,8
1778661968.743293,2979,0,8
1778661968.7449028,2568,0,8
1778661968.747453,2719,0,8
1778661968.7487419,2057,0,8
1778661968.7541041,2727,0,8
1778661968.7546072,3526,0,8
1778661968.754706,1655,0,8
1778661968.758534,1779,0,8
1778661968.758652,2701,0,8
1778661968.761717,1425,0,8
1778661968.764789,2398,0,8
1778661968.7649071,2136,0,8
1778661968.767105,2365,0,8
1778661968.7684858,2751,0,8
1778661968.771061,2447,0,8
1778661968.773632,2454,0,8
1778661968.7749288,1519,0,8
1778661968.780745,1162,0,8
1778661968.78126,2647,0,8
1778661968.782003,3096,0,8
1778661968.783666,2355,0,8
1778661968.7852118,1753,0,8
1778661968.787553,2501,0,8
1778661968.7888708,2309,0,8
1778661968.792187,1995,0,8
1778661968.794344,1094,0,8
1778661968.794534,3015,0,8
1778661968.797086,2225,0,8
1778661968.798557,538,0,8
1778661968.803353,2230,0,8
1778661968.803815,2828,0,8
1778661968.8056488,2018,0,8
1778661968.8075898,1663,0,8
1778661968.8093219,1504,0,8
1778661968.810969,2250,0,8
1778661968.8145332,1998,0,8
1778661968.814831,1639,0,8
1778661968.817653,1022,0,8
1778661968.818957,3112,0,8
1778661968.821324,2259,0,8
1778661968.822622,2024,0,8
1778661968.825181,2309,0,8
1778661968.826487,1116,0,8
1778661968.8328772,2113,0,8
1778661968.833032,2292,0,8
1778661968.8330991,1975,0,8
1778661968.83548,2206,0,8
1778661968.8387258,2179,0,8
1778661968.842127,1099,0,8
1778661968.842228,1805,0,8
1778661968.843955,1872,0,8
1778661968.8452501,2115,0,8
1778661968.8465412,2325,0,8
1778661968.851912,2191,0,8
1778661968.853278,1484,0,8
1778661968.854961,1878,0,8
1778661968.855196,2349,0,8
1778661968.8572931,1759,0,8
1778661968.859041,1496,0,8
1778661968.863806,1614,0,8
1778661968.863978,2294,0,8
1778661968.865537,1876,0,8
1778661968.8671548,2652,0,8
1778661968.8685749,1980,0,8
1778661968.8711638,1527,0,8
1778661968.8725271,2560,0,8
1778661968.87872,2328,0,8
1778661968.879508,2142,0,8
1778661968.879594,2424,0,8
1778661968.8814049,2663,0,8
1778661968.883164,2214,0,8
1778661968.884723,2371,0,8
1778661968.8898938,3038,0,8
1778661968.889994,1814,0,8
1778661968.8919868,1325,0,8
1778661968.893285,2593,0,8
1778661968.894576,2369,0,8
1778661968.9002419,1995,0,8
1778661968.900364,1756,0,8
1778661968.900775,2645,0,8
1778661968.9025788,2709,0,8
1778661968.906324,1364,0,8
1778661968.906455,2392,0,8
1778661968.911078,1944,0,8
1778661968.911453,2350,0,8
1778661968.913396,3135,0,8
1778661968.914696,2257,0,8
1778661968.917252,2418,0,8
1778661968.918645,2263,0,8
1778661968.9212081,2262,0,8
1778661968.9227269,2384,0,8
1778661968.926711,2199,0,8
1778661968.927634,1061,0,8
1778661968.9295459,2619,0,8
1778661968.931436,1291,0,8
1778661968.933344,2289,0,8
1778661968.938433,2694,0,8
1778661968.938647,2653,0,8
1778661968.938792,2057,0,8
1778661968.941571,2134,0,8
1778661968.942862,2118,0,8
1778661968.949858,2253,0,8
1778661968.949929,2448,0,8
1778661968.9516952,2255,0,8
1778661968.953943,1888,0,8
1778661968.954458,1812,0,8
1778661968.955174,2533,0,8
1778661968.957066,1583,0,8
1778661968.960642,1080,0,8
1778661968.9610271,2517,0,8
1778661968.9630132,2562,0,8
1778661968.9655669,2335,0,8
1778661968.9669042,1984,0,8
1778661968.969557,1961,0,8
1778661968.970874,2059,0,8
1778661968.977249,1850,0,8
1778661968.977782,1917,0,8
1778661968.979522,2273,0,8
1778661968.9820201,2387,0,8
1778661968.983475,2089,0,8
1778661968.9848561,1884,0,8
1778661968.984918,2268,0,8
1778661968.988991,2950,0,8
1778661968.9892192,1343,0,8
1778661968.990763,2447,0,8
1778661968.9933262,1510,0,8
1778661968.994623,2488,0,8
1778661968.999016,2534,0,8
1778661968.999402,1660,0,8
1778661969.001445,2598,0,8
1778661969.003925,2636,0,8
1778661969.006366,1923,0,8
1778661969.00648,1827,0,8
1778661969.010159,1708,0,8
1778661969.011762,2625,0,8
1778661969.0130508,2670,0,8
1778661969.014394,2208,0,8
1778661969.016952,1307,0,8
1778661969.018357,977,0,8
1778661969.020927,3425,0,8
1778661969.025276,2984,0,8
1778661969.0253592,1508,0,8
1778661969.027719,1294,0,8
1778661969.029842,3393,0,8
1778661969.031491,3415,0,8
1778661969.0364969,97,0,8
1778661969.0367308,3239,0,8
1778661969.036868,3128,0,8
1778661969.038908,2179,0,8
1778661969.0414588,1887,0,8
1778661969.042864,2103,0,8
1778661969.050729,1895,0,8
1778661969.052472,2295,0,8
1778661969.055007,2335,0,8
1778661969.059247,2401,0,8
1778661969.059731,2317,0,8
1778661969.061507,1896,0,8
1778661969.06213,1781,0,8
1778661969.062293,1907,0,8
1778661969.062405,2127,0,8
1778661969.06247,2080,0,8
1778661969.0651,1764,0,8
1778661969.066483,2852,0,8
1778661969.069124,1562,0,8
1778661969.0705652,1651,0,8
1778661969.077164,2315,0,8
1778661969.078567,1895,0,8
1778661969.07868,1862,0,8
1778661969.0807521,2974,0,8
1778661969.081662,1341,0,8
1778661969.084477,1442,0,8
1778661969.088736,2918,0,8
1778661969.0889459,2225,0,8
1778661969.089031,2000,0,8
1778661969.091191,1858,0,8
1778661969.092594,1520,0,8
1778661969.095333,1893,0,8
1778661969.099745,2699,0,8
1778661969.10236,2203,0,8
1778661969.102696,2088,0,8
1778661969.102941,2042,0,8
1778661969.105227,1906,0,8
1778661969.108437,1738,0,8
1778661969.112912,2092,0,8
1778661969.113146,1978,0,8
1778661969.113719,2137,0,8
1778661969.115888,2092,0,8
1778661969.117245,2253,0,8
1778661969.118634,2322,0,8
1778661969.121469,1870,0,8
1778661969.122844,1785,0,8
1778661969.125219,1772,0,8
1778661969.1310039,2550,0,8
1778661969.131547,1134,0,8
1778661969.133224,2454,0,8
1778661969.13341,2554,0,8
1778661969.136072,2396,0,8
1778661969.138603,2076,0,8
1778661969.1396961,2019,0,8
1778661969.1439848,1923,0,8
1778661969.144576,2096,0,8
1778661969.144825,2227,0,8
1778661969.146833,2267,0,8
1778661969.149475,2041,0,8
1778661969.155807,2077,0,8
1778661969.1568158,2131,0,8
1778661969.1587,1213,0,8
1778661969.1590269,2558,0,8
1778661969.160307,2143,0,8
1778661969.161199,2104,0,8
1778661969.162914,2160,0,8
1778661969.169347,2218,0,8
1778661969.1718059,2044,0,8
1778661969.171846,2323,0,8
1778661969.171875,2020,0,8
1778661969.173246,1895,0,8
1778661969.1746838,2112,0,8
1778661969.177482,2153,0,8
1778661969.1788101,2187,0,8
1778661969.186667,2234,0,8
1778661969.188985,2195,0,8
1778661969.189282,2313,0,8
1778661969.1911302,2260,0,8
1778661969.19167,2067,0,8
1778661969.192576,1849,0,8
1778661969.192807,2021,0,8
1778661969.199914,2051,0,8
1778661969.20035,1866,0,8
1778661969.200564,2118,0,8
1778661969.200927,2390,0,8
1778661969.203085,2334,0,8
1778661969.204431,2087,0,8
1778661969.2072499,1884,0,8
1778661969.211891,2040,0,8
1778661969.2128909,2279,0,8
1778661969.214835,2261,0,8
1778661969.216625,2172,0,8
1778661969.218305,1898,0,8
1778661969.218923,2271,0,8
1778661969.221029,2256,0,8
1778661969.225546,1687,0,8
1778661969.225894,1734,0,8
1778661969.2282891,2122,0,8
1778661969.228367,2065,0,8
1778661969.2311769,2224,0,8
1778661969.2326012,2184,0,8
1778661969.235256,2266,0,8
1778661969.236761,2266,0,8
1778661969.2440379,2039,0,8
1778661969.2446039,1793,0,8
1778661969.246594,2106,0,8
1778661969.2469041,2188,0,8
1778661969.2490501,2157,0,8
1778661969.250381,2016,0,8
1778661969.250926,2079,0,8
1778661969.261375,2143,0,8
1778661969.261469,2096,0,8
1778661969.261524,2025,0,8
1778661969.2615721,1957,0,8
1778661969.2616189,1851,0,8
1778661969.263026,2017,0,8
1778661969.2643762,2236,0,8
1778661969.289282,1801,0,8
1778661969.289851,1964,0,8
1778661969.2902012,2120,0,8
1778661969.290314,2084,0,8
1778661969.290389,1851,0,8
1778661969.290453,1754,0,8
1778661969.290504,2145,0,8
1778661969.2905521,2113,0,8
1778661969.2905998,1888,0,8
1778661969.291213,2058,0,8
1778661969.291272,1978,0,8
1778661969.291321,1699,0,8
1778661969.291368,1573,0,8
1778661969.29355,1619,0,8
1778661969.295253,1737,0,8
1778661969.296632,2121,0,8
1778661969.3203032,1891,0,8
1778661969.3203998,2049,0,8
1778661969.320456,1857,0,8
1778661969.32051,1545,0,8
1778661969.320619,1926,0,8
1778661969.320778,1832,0,8
1778661969.320849,1959,0,8
1778661969.32093,1945,0,8
1778661969.32098,1957,0,8
1778661969.321034,1879,0,8
1778661969.321198,1881,0,8
1778661969.321248,2054,0,8
1778661969.3226712,1831,0,8
1778661969.340949,1648,0,8
1778661969.343458,1857,0,8
1778661969.343762,1947,0,8
1778661969.343883,1975,0,8
1778661969.343977,1722,0,8
1778661969.344105,2114,0,8
1778661969.344176,1998,0,8
1778661969.3442528,1793,0,8
1778661969.34434,1761,0,8
1778661969.34444,1840,0,8
1778661969.344498,1954,0,8
1778661969.347147,2007,0,8
1778661969.348642,1944,0,8
1778661969.351294,2034,0,8
1778661969.3526888,2128,0,8
1778661969.3593678,2019,0,8
1778661969.360317,1657,0,8
1778661969.362357,1741,0,8
1778661969.3639228,1911,0,8
1778661969.364788,1958,0,8
1778661969.36489,2049,0,8
1778661969.3671622,1983,0,8
1778661969.368736,1865,0,8
1778661969.373759,2182,0,8
1778661969.374012,1973,0,8
1778661969.375946,1698,0,8
1778661969.3777559,2074,0,8
1778661969.379097,2052,0,8
1778661969.380546,2096,0,8
1778661969.386354,1962,0,8
1778661969.38866,2092,0,8
1778661969.3889139,2091,0,8
1778661969.390938,1903,0,8
1778661969.3914921,1703,0,8
1778661969.3952231,1942,0,8
1778661969.395463,1977,0,8
1778661969.4004679,2011,0,8
1778661969.400862,2097,0,8
1778661969.401129,2126,0,8
1778661969.403509,2050,0,8
1778661969.404881,2017,0,8
1778661969.406261,1772,0,8
1778661969.408884,1782,0,8
1778661969.4102972,2081,0,8
1778661969.412987,2181,0,8
1778661969.4201238,2136,0,8
1778661969.4218612,2085,0,8
1778661969.42203,2250,0,8
1778661969.424288,2142,0,8
1778661969.42484,1910,0,8
1778661969.425351,1834,0,8
1778661969.428415,2068,0,8
1778661969.428674,2122,0,8
1778661969.433697,2126,0,8
1778661969.434029,2052,0,8
1778661969.43426,2199,0,8
1778661969.437174,2200,0,8
1778661969.438616,2036,0,8
1778661969.448308,1837,0,8
1778661969.450677,1960,0,8
1778661969.451277,2056,0,8
1778661969.4595132,2146,0,8
1778661969.4602208,2051,0,8
1778661969.46255,2119,0,8
1778661969.462666,2190,0,8
1778661969.462763,2109,0,8
1778661969.462804,1883,0,8
1778661969.462834,1916,0,8
1778661969.462861,2124,0,8
1778661969.462924,2234,0,8
1778661969.464384,2184,0,8
1778661969.467159,2080,0,8
1778661969.468559,2177,0,8
1778661969.471315,2038,0,8
1778661969.473027,2019,0,8
1778661969.487104,1941,0,8
1778661969.492109,2139,0,8
1778661969.492699,2207,0,8
1778661969.4930902,2126,0,8
1778661969.4933949,2098,0,8
1778661969.4936478,2059,0,8
1778661969.4938781,2165,0,8
1778661969.496198,2055,0,8
1778661969.4963021,1842,0,8
1778661969.496356,1951,0,8
1778661969.496407,2086,0,8
1778661969.496455,2279,0,8
1778661969.499081,2163,0,8
1778661969.500761,2078,0,8
1778661969.506467,2188,0,8
1778661969.507659,2100,0,8
1778661969.5097558,1937,0,8
1778661969.513292,1888,0,8
1778661969.514804,1990,0,8
1778661969.515808,2145,0,8
1778661969.522911,2101,0,8
1778661969.523081,2144,0,8
1778661969.5231621,2228,0,8
1778661969.5233102,2108,0,8
1778661969.5237901,1967,0,8
1778661969.526538,1803,0,8
1778661969.526606,1989,0,8
1778661969.5292852,2159,0,8
1778661969.530721,2083,0,8
1778661969.5324311,2081,0,8
1778661969.535261,2145,0,8
1778661969.537065,2224,0,8
1778661969.544806,2236,0,8
1778661969.546367,1902,0,8
1778661969.546846,2077,0,8
1778661969.5471208,2316,0,8
1778661969.547418,2047,0,8
1778661969.553416,2081,0,8
1778661969.558604,2148,0,8
1778661969.558959,1907,0,8
1778661969.559382,1763,0,8
1778661969.559974,1780,0,8
1778661969.560369,1761,0,8
1778661969.5640771,2057,0,8
1778661969.564129,2195,0,8
1778661969.564161,2201,0,8
1778661969.566895,2099,0,8
1778661969.5682912,2264,0,8
1778661969.57412,2271,0,8
1778661969.5748448,2068,0,8
1778661969.57548,1917,0,8
1778661969.57736,2102,0,8
1778661969.5802848,2207,0,8
1778661969.580842,2199,0,8
1778661969.58378,2006,0,8
1778661969.5884311,2070,0,8
1778661969.588759,2187,0,8
1778661969.5891168,1975,0,8
1778661969.591369,1896,0,8
1778661969.5927591,2021,0,8
1778661969.594151,2115,0,8
1778661969.596797,2139,0,8
1778661969.5982091,2074,0,8
1778661969.600853,2159,0,8
1778661969.602603,2138,0,8
1778661969.6134322,2000,0,8
1778661969.6190348,1800,0,8
1778661969.619298,1743,0,8
1778661969.6243,2094,0,8
1778661969.6270971,2157,0,8
1778661969.62725,2031,0,8
1778661969.6273122,2039,0,8
1778661969.6274061,2139,0,8
1778661969.6274638,2156,0,8
1778661969.6275148,1920,0,8
1778661969.6275651,1644,0,8
1778661969.627616,1943,0,8
1778661969.629076,2018,0,8
1778661969.630573,2169,0,8
1778661969.638796,1884,0,8
1778661969.640845,1872,0,8
1778661969.641226,1990,0,8
1778661969.645167,1952,0,8
1778661969.6462111,1827,0,8
1778661969.646948,1978,0,8
1778661969.653368,2029,0,8
1778661969.6540318,1967,0,8
1778661969.656713,1973,0,8
1778661969.6568398,2101,0,8
1778661969.6571038,2052,0,8
1778661969.6572092,2006,0,8
1778661969.657266,1911,0,8
1778661969.658605,1867,0,8
1778661969.660148,2081,0,8
1778661969.66375,2296,0,8
1778661969.66519,1985,0,8
1778661969.6665258,1736,0,8
1778661969.6774049,2195,0,8
1778661969.6811929,2105,0,8
1778661969.681819,1923,0,8
1778661969.6847801,1644,0,8
1778661969.689379,1872,0,8
1778661969.689791,2015,0,8
1778661969.690302,2348,0,8
1778661969.692805,2240,0,8
1778661969.692937,2154,0,8
1778661969.693014,2398,0,8
1778661969.693095,1863,0,8
1778661969.693161,1646,0,8
1778661969.693226,1964,0,8
1778661969.6945941,1973,0,8
1778661969.697323,2049,0,8
1778661969.7061892,1966,0,8
1778661969.7066119,2220,0,8
1778661969.709555,2193,0,8
1778661969.710686,1958,0,8
1778661969.71121,2037,0,8
1778661969.7114282,1934,0,8
1778661969.712057,1983,0,8
1778661969.7126029,2095,0,8
1778661969.714328,1894,0,8
1778661969.7190452,1842,0,8
1778661969.721343,2089,0,8
1778661969.721469,2086,0,8
1778661969.722815,2007,0,8
1778661969.724119,1978,0,8
1778661969.726801,2113,0,8
1778661969.7280798,2162,0,8
1778661969.7307022,2062,0,8
1778661969.733644,1958,0,8
1778661969.73943,2045,0,8
1778661969.739648,2066,0,8
1778661969.742941,2009,0,8
1778661969.746162,1836,0,8
1778661969.7471628,1931,0,8
1778661969.748631,2074,0,8
1778661969.750415,2252,0,8
1778661969.7549381,2114,0,8
1778661969.757689,2062,0,8
1778661969.758101,2158,0,8
1778661969.758166,2015,0,8
1778661969.758199,1821,0,8
1778661969.758262,1807,0,8
1778661969.7609909,2165,0,8
1778661969.762385,2340,0,8
1778661969.7712052,2265,0,8
1778661969.774045,1660,0,8
1778661969.7757308,1979,0,8
1778661969.776972,2102,0,8
1778661969.777612,1939,0,8
1778661969.783023,1796,0,8
1778661969.783412,1968,0,8
1778661969.783964,2068,0,8
1778661969.7842119,2195,0,8
1778661969.784361,1909,0,8
1778661969.7846432,2098,0,8
1778661969.787314,2150,0,8
1778661969.788712,2101,0,8
1778661969.790119,1866,0,8
1778661969.792726,1904,0,8
1778661969.794105,2024,0,8
1778661969.796772,2012,0,8
1778661969.798406,2054,0,8
1778661969.807102,2108,0,8
1778661969.807233,2204,0,8
1778661969.807331,2118,0,8
1778661969.807374,1911,0,8
1778661969.811551,1807,0,8
1778661969.814791,1918,0,8
1778661969.818435,2008,0,8
1778661969.822027,2125,0,8
1778661969.822114,2064,0,8
1778661969.822169,2331,0,8
1778661969.822219,2175,0,8
1778661969.8222668,1814,0,8
1778661969.824956,1972,0,8
1778661969.8266299,2118,0,8
1778661969.833518,1984,0,8
1778661969.841412,1764,0,8
1778661969.848622,1910,0,8
1778661969.849323,2096,0,8
1778661969.8496199,2201,0,8
1778661969.8530922,1796,0,8
1778661969.8532228,1740,0,8
1778661969.853398,2141,0,8
1778661969.8538098,2136,0,8
1778661969.8539069,2360,0,8
1778661969.853939,2168,0,8
1778661969.854002,2125,0,8
1778661969.854073,2124,0,8
1778661969.8541088,1974,0,8
1778661969.856738,1938,0,8
1778661969.858023,1777,0,8
1778661969.860717,1951,0,8
1778661969.8620741,2112,0,8
1778661969.864619,2134,0,8
1778661969.866057,2031,0,8
1778661969.868431,2157,0,8
1778661969.87112,2110,0,8
1778661969.8723168,1985,0,8
1778661969.874948,2054,0,8
1778661969.876131,2127,0,8
1778661969.878847,2011,0,8
1778661969.8801851,1968,0,8
1778661969.882891,1921,0,8
1778661969.88418,2147,0,8
1778661969.886868,2124,0,8
1778661969.8885162,2009,0,8
1778661969.896595,1781,0,8
1778661969.89782,1883,0,8
1778661969.912908,2050,0,8
1778661969.9161658,2186,0,8
1778661969.923595,2148,0,8
1778661969.9243882,2137,0,8
1778661969.924511,2201,0,8
1778661969.924861,2080,0,8
1778661969.927338,1961,0,8
1778661969.927443,1839,0,8
1778661969.927496,2018,0,8
1778661969.9275498,2070,0,8
1778661969.9275992,2070,0,8
1778661969.927778,2042,0,8
1778661969.927888,2159,0,8
1778661969.9279518,2060,0,8
1778661969.928046,1946,0,8
1778661969.928124,1795,0,8
1778661969.9281821,2036,0,8
1778661969.928336,2071,0,8
1778661969.930927,2102,0,8
1778661969.932157,2123,0,8
1778661969.934724,2057,0,8
1778661969.936199,2089,0,8
1778661969.938986,1961,0,8
1778661969.94018,1864,0,8
1778661969.942584,1945,0,8
1778661969.9534569,2024,0,8
1778661969.958813,2120,0,8
1778661969.960938,2066,0,8
1778661969.964237,1999,0,8
1778661969.9645288,2140,0,8
1778661969.964571,1999,0,8
1778661969.964603,1876,0,8
1778661969.964774,1911,0,8
1778661969.964927,2107,0,8
1778661969.967365,2066,0,8
1778661969.967722,2066,0,8
1778661969.9678102,2055,0,8
1778661969.969167,2149,0,8
1778661969.9705632,2164,0,8
1778661969.9719539,1888,0,8
1778661969.974798,1752,0,8
1778661969.975988,1999,0,8
1778661969.984771,2073,0,8
1778661969.98914,2200,0,8
1778661969.990832,2145,0,8
1778661969.993192,2057,0,8
1778661969.99353,2129,0,8
1778661969.994187,2109,0,8
1778661969.996215,1824,0,8
1778661969.999541,1744,0,8
1778661969.999851,2266,0,8
1778661970.0003421,2148,0,8
1778661970.000606,2062,0,8
1778661970.0008051,2043,0,8
1778661970.003492,2076,0,8
1778661970.004998,2078,0,8
1778661970.006407,1957,0,8
1778661970.00931,1889,0,8
1778661970.0162911,2130,0,8
1778661970.0180202,2071,0,8
1778661970.0207958,2064,0,8
1778661970.021141,2001,0,8
1778661970.0224938,2206,0,8
1778661970.02268,2146,0,8
1778661970.0233028,1926,0,8
1778661970.025585,1849,0,8
1778661970.029126,2170,0,8
1778661970.029453,2076,0,8
1778661970.032105,2022,0,8
1778661970.032223,2019,0,8
1778661970.034869,2077,0,8
1778661970.036221,2182,0,8
1778661970.038833,2088,0,8
1778661970.040174,1873,0,8
1778661970.042884,1884,0,8
1778661970.049907,1997,0,8
1778661970.05192,2149,0,8
1778661970.054017,2088,0,8
1778661970.055037,2059,0,8
1778661970.056181,2185,0,8
1778661970.059063,2086,0,8
1778661970.0619898,2008,0,8
1778661970.062428,1789,0,8
1778661970.0627131,1940,0,8
1778661970.063072,2144,0,8
1778661970.0653582,2100,0,8
1778661970.066756,1966,0,8
1778661970.06811,2094,0,8
1778661970.07686,2010,0,8
1778661970.078673,1855,0,8
1778661970.078992,1700,0,8
1778661970.081089,2071,0,8
1778661970.0886059,2146,0,8
1778661970.089233,2044,0,8
1778661970.089661,2156,0,8
1778661970.089917,2247,0,8
1778661970.0902889,2001,0,8
1778661970.090647,1951,0,8
1778661970.0931358,1827,0,8
1778661970.093638,1988,0,8
1778661970.093872,2115,0,8
1778661970.096502,2127,0,8
1778661970.097892,1994,0,8
1778661970.100652,2022,0,8
1778661970.102019,2129,0,8
1778661970.104815,2071,0,8
1778661970.1122692,1924,0,8
1778661970.11433,1909,0,8
1778661970.1145332,2135,0,8
1778661970.116436,1974,0,8
1778661970.117481,2103,0,8
1778661970.118017,2181,0,8
1778661970.121137,2082,0,8
1778661970.123832,2132,0,8
1778661970.1241012,1989,0,8
1778661970.124419,1762,0,8
1778661970.1266391,2010,0,8
1778661970.128034,2089,0,8
1778661970.130712,2089,0,8
1778661970.132318,2019,0,8
1778661970.141491,2126,0,8
1778661970.144298,2145,0,8
1778661970.145927,1959,0,8
1778661970.1460638,1799,0,8
1778661970.146212,2071,0,8
1778661970.1486,2186,0,8
1778661970.148843,2053,0,8
1778661970.1489651,1908,0,8
1778661970.1511931,2042,0,8
1778661970.152627,2176,0,8
1778661970.153974,2103,0,8
1778661970.1565351,1956,0,8
1778661970.1578581,1875,0,8
1778661970.160415,2028,0,8
1778661970.1670332,2089,0,8
1778661970.167137,2092,0,8
1778661970.16769,2073,0,8
1778661970.168581,2193,0,8
1778661970.1725628,2083,0,8
1778661970.172676,1933,0,8
1778661970.174548,2076,0,8
1778661970.17616,2005,0,8
1778661970.178585,1806,0,8
1778661970.1808388,2045,0,8
1778661970.182145,2020,0,8
1778661970.184719,2080,0,8
1778661970.186056,2098,0,8
1778661970.190454,1946,0,8
1778661970.191061,1809,0,8
1778661970.193365,1931,0,8
1778661970.195222,2103,0,8
1778661970.197907,2137,0,8
1778661970.199502,2121,0,8
1778661970.202283,2115,0,8
1778661970.202803,2187,0,8
1778661970.204424,2008,0,8
1778661970.206999,1903,0,8
1778661970.208501,1941,0,8
1778661970.209913,2100,0,8
1778661970.212526,1958,0,8
1778661970.2138429,2070,0,8
1778661970.22131,2101,0,8
1778661970.222165,2055,0,8
1778661970.223574,2029,0,8
1778661970.2254982,1933,0,8
1778661970.226047,1809,0,8
1778661970.227293,1999,0,8
1778661970.230029,2069,0,8
1778661970.23236,2193,0,8
1778661970.232555,2129,0,8
1778661970.235007,2139,0,8
1778661970.236311,2136,0,8
1778661970.2388139,2011,0,8
1778661970.243253,1858,0,8
1778661970.244529,1917,0,8
1778661970.245012,2068,0,8
1778661970.246619,2140,0,8
1778661970.249065,2065,0,8
1778661970.2504792,2070,0,8
1778661970.254633,2179,0,8
1778661970.254753,2085,0,8
1778661970.256674,1856,0,8
1778661970.257979,1840,0,8
1778661970.260552,2069,0,8
1778661970.2618518,2265,0,8
1778661970.2644212,2029,0,8
1778661970.266989,1984,0,8
1778661970.271841,2159,0,8
1778661970.271911,2174,0,8
1778661970.272494,1905,0,8
1778661970.274836,1560,0,8
1778661970.2766662,2037,0,8
1778661970.278146,2180,0,8
1778661970.28059,1817,0,8
1778661970.283029,2151,0,8
1778661970.285099,2222,0,8
1778661970.286484,1996,0,8
1778661970.287806,1745,0,8
1778661970.294376,2301,0,8
1778661970.295103,2082,0,8
1778661970.295168,1958,0,8
1778661970.2978601,1896,0,8
1778661970.2982998,1941,0,8
1778661970.300218,1792,0,8
1778661970.3037372,2291,0,8
1778661970.3038101,1291,0,8
1778661970.3068979,2285,0,8
1778661970.30821,2520,0,8
1778661970.3108218,1590,0,8
1778661970.312041,2375,0,8
1778661970.3145869,1927,0,8
1778661970.320174,1440,0,8
1778661970.320991,2656,0,8
1778661970.321078,2184,0,8
1778661970.3240829,2278,0,8
1778661970.3241842,1793,0,8
1778661970.326078,1456,0,8
1778661970.329605,2229,0,8
1778661970.331276,2413,0,8
1778661970.332575,2142,0,8
1778661970.333868,1797,0,8
1778661970.339349,2275,0,8
1778661970.340357,1897,0,8
1778661970.3408,876,0,8
1778661970.343002,2314,0,8
1778661970.3448472,2367,0,8
1778661970.346773,1651,0,8
1778661970.350394,1655,0,8
1778661970.350527,2613,0,8
1778661970.352604,2402,0,8
1778661970.3539,2015,0,8
1778661970.3564641,1807,0,8
1778661970.359025,1837,0,8
1778661970.3603132,1684,0,8
1778661970.365876,2150,0,8
1778661970.366385,1986,0,8
1778661970.366501,1482,0,8
1778661970.36888,2052,0,8
