timestamp,ch1,ch2,label
1778662001.56624,1991,0,9
1778662001.5663,2189,0,9
1778662001.566381,2128,0,9
1778662001.56831,1968,0,9
1778662001.570545,1962,0,9
1778662001.5731242,2061,0,9
1778662001.577376,2102,0,9
1778662001.5776682,2160,0,9
1778662001.578306,2100,0,9
1778662001.580506,2121,0,9
1778662001.581812,2108,0,9
1778662001.584377,1935,0,9
1778662001.5858428,1863,0,9
1778662001.588424,2045,0,9
1778662001.5897431,2034,0,9
1778662001.5960839,2118,0,9
1778662001.596885,2020,0,9
1778662001.59696,2147,0,9
1778662001.5987442,2210,0,9
1778662001.600331,1879,0,9
1778662001.6024928,1804,0,9
1778662001.604276,2030,0,9
1778662001.607214,2170,0,9
1778662001.607392,2126,0,9
1778662001.6099489,2051,0,9
1778662001.6113122,2043,0,9
1778662001.613868,2160,0,9
1778662001.6164238,2052,0,9
1778662001.6216462,1952,0,9
1778662001.62253,1875,0,9
1778662001.624083,2087,0,9
1778662001.624217,2257,0,9
1778662001.62575,2093,0,9
1778662001.6275258,1927,0,9
1778662001.629531,2152,0,9
1778662001.632448,2154,0,9
1778662001.6337569,2027,0,9
1778662001.636422,1851,0,9
1778662001.637844,1977,0,9
1778662001.640413,2070,0,9
1778662001.641709,2129,0,9
1778662001.646247,2034,0,9
1778662001.6463518,2075,0,9
1778662001.648715,2245,0,9
1778662001.650481,1953,0,9
1778662001.653669,1747,0,9
1778662001.6537962,2098,0,9
1778662001.6566138,2062,0,9
1778662001.657883,2044,0,9
1778662001.6604002,2060,0,9
1778662001.6617322,2088,0,9
1778662001.664293,2190,0,9
1778662001.6655822,2100,0,9
1778662001.670241,1965,0,9
1778662001.671013,1947,0,9
1778662001.67246,1996,0,9
1778662001.673957,2116,0,9
1778662001.6758132,2105,0,9
1778662001.677542,2097,0,9
1778662001.680017,2131,0,9
1778662001.681325,2069,0,9
1778662001.683872,1895,0,9
1778662001.686377,1772,0,9
1778662001.68802,2105,0,9
1778662001.689309,2078,0,9
1778662001.694817,2074,0,9
1778662001.695301,2129,0,9
1778662001.695384,2148,0,9
1778662001.698889,2109,0,9
1778662001.701625,1992,0,9
1778662001.702723,1900,0,9
1778662001.704371,1963,0,9
1778662001.7056692,2057,0,9
1778662001.708229,2152,0,9
1778662001.709522,2044,0,9
1778662001.712089,1964,0,9
1778662001.713383,2225,0,9
1778662001.717526,2092,0,9
1778662001.7176042,1930,0,9
1778662001.720072,1951,0,9
1778662001.721914,2107,0,9
1778662001.724957,2110,0,9
1778662001.727935,2143,0,9
1778662001.727969,2183,0,9
1778662001.729256,2202,0,9
1778662001.731801,2078,0,9
1778662001.7343519,1827,0,9
1778662001.735789,1809,0,9
1778662001.74152,2044,0,9
1778662001.741985,2122,0,9
1778662001.742802,2125,0,9
1778662001.746203,2014,0,9
1778662001.746614,2084,0,9
1778662001.749196,2047,0,9
1778662001.750268,2176,0,9
1778662001.752656,2012,0,9
1778662001.753982,1925,0,9
1778662001.755274,1977,0,9
1778662001.757844,2122,0,9
1778662001.759278,2038,0,9
1778662001.7656078,2043,0,9
1778662001.766387,2195,0,9
1778662001.766488,2009,0,9
1778662001.767894,1813,0,9
1778662001.770427,1986,0,9
1778662001.772945,2263,0,9
1778662001.775837,2109,0,9
1778662001.7760088,2058,0,9
1778662001.777301,2130,0,9
1778662001.779863,2187,0,9
1778662001.781228,2044,0,9
1778662001.78378,1951,0,9
1778662001.785266,1844,0,9
1778662001.789234,2040,0,9
1778662001.789614,2101,0,9
1778662001.791756,2105,0,9
1778662001.7946272,2030,0,9
1778662001.7965188,2204,0,9
1778662001.799093,2292,0,9
1778662001.800401,1937,0,9
1778662001.801703,1736,0,9
1778662001.804353,1743,0,9
1778662001.8056462,2160,0,9
1778662001.808191,2343,0,9
1778662001.813519,2030,0,9
1778662001.813997,1974,0,9
1778662001.814083,2123,0,9
1778662001.816963,2152,0,9
1778662001.818537,1960,0,9
1778662001.8206651,1972,0,9
1778662001.822114,2115,0,9
1778662001.8238232,1991,0,9
1778662001.826391,2019,0,9
1778662001.827754,2038,0,9
1778662001.830306,2135,0,9
1778662001.831594,2098,0,9
1778662001.837986,1892,0,9
1778662001.8384051,1916,0,9
1778662001.8384588,2139,0,9
1778662001.840123,2140,0,9
1778662001.841571,2106,0,9
1778662001.844992,2029,0,9
1778662001.847649,2128,0,9
1778662001.848027,2127,0,9
1778662001.849323,1988,0,9
1778662001.852244,1854,0,9
1778662001.8535738,1959,0,9
1778662001.855993,2060,0,9
1778662001.861965,2115,0,9
1778662001.8627279,2042,0,9
1778662001.864216,2037,0,9
1778662001.864328,2145,0,9
1778662001.866069,2232,0,9
1778662001.867991,1866,0,9
1778662001.870498,1902,0,9
1778662001.8725839,2024,0,9
1778662001.873881,2044,0,9
1778662001.87522,2144,0,9
1778662001.877813,2055,0,9
1778662001.8792582,2139,0,9
1778662001.882105,2077,0,9
1778662001.887139,1947,0,9
1778662001.887254,1932,0,9
1778662001.8877308,2143,0,9
1778662001.890645,1923,0,9
1778662001.8937469,2090,0,9
1778662001.893874,2058,0,9
1778662001.896984,2098,0,9
1778662001.898284,2135,0,9
1778662001.899582,1945,0,9
1778662001.902129,1827,0,9
1778662001.903489,2162,0,9
1778662001.906058,2075,0,9
1778662001.910215,2122,0,9
1778662001.911298,2122,0,9
1778662001.911813,2159,0,9
1778662001.914794,2083,0,9
1778662001.917866,1988,0,9
1778662001.91801,1946,0,9
1778662001.920963,1850,0,9
1778662001.922283,2091,0,9
1778662001.923581,2172,0,9
1778662001.926144,2210,0,9
1778662001.927436,1998,0,9
1778662001.929983,2045,0,9
1778662001.9341052,2215,0,9
1778662001.934556,1978,0,9
1778662001.936621,1808,0,9
1778662001.9380732,2023,0,9
1778662001.9398332,2045,0,9
1778662001.944278,2122,0,9
1778662001.944371,2007,0,9
1778662001.945678,2059,0,9
1778662001.9482272,2185,0,9
1778662001.949516,2145,0,9
1778662001.952062,1933,0,9
1778662001.9533608,2000,0,9
1778662001.957899,1987,0,9
1778662001.958285,2002,0,9
1778662001.960052,2115,0,9
1778662001.962018,2160,0,9
1778662001.9646442,2111,0,9
1778662001.966068,2042,0,9
1778662001.967938,1899,0,9
1778662001.969345,1853,0,9
1778662002.000021,2098,0,9
1778662002.000063,2219,0,9
1778662002.0000892,2080,0,9
1778662002.000113,1977,0,9
1778662002.0001369,2075,0,9
1778662002.00016,2153,0,9
1778662002.000183,2084,0,9
1778662002.000602,1849,0,9
1778662002.000635,1896,0,9
1778662002.00066,2177,0,9
1778662002.000684,2153,0,9
1778662002.0007071,2093,0,9
1778662002.00073,2156,0,9
1778662002.000753,2093,0,9
1778662002.000776,2066,0,9
1778662002.002083,1799,0,9
1778662002.006019,2057,0,9
1778662002.00605,2119,0,9
1778662002.007597,2006,0,9
1778662002.026339,2123,0,9
1778662002.026381,2112,0,9
1778662002.026408,2140,0,9
1778662002.0266502,2067,0,9
1778662002.026816,1915,0,9
1778662002.0268412,1978,0,9
1778662002.026866,2136,0,9
1778662002.02689,2068,0,9
1778662002.026913,2121,0,9
1778662002.028384,2056,0,9
1778662002.0307531,2145,0,9
1778662002.0341172,2004,0,9
1778662002.034147,1876,0,9
1778662002.035583,1990,0,9
1778662002.040695,1935,0,9
1778662002.051609,1927,0,9
1778662002.0516539,2201,0,9
1778662002.05168,2102,0,9
1778662002.0517042,2138,0,9
1778662002.051727,2148,0,9
1778662002.05175,2075,0,9
1778662002.0517728,1965,0,9
1778662002.056611,1981,0,9
1778662002.0566452,2079,0,9
1778662002.05794,2138,0,9
1778662002.059246,2063,0,9
1778662002.065665,2143,0,9
1778662002.066144,2220,0,9
1778662002.0669272,2072,0,9
1778662002.0707572,1842,0,9
1778662002.071208,1840,0,9
1778662002.072374,2054,0,9
1778662002.075155,2143,0,9
1778662002.075265,2046,0,9
1778662002.0784261,1887,0,9
1778662002.07972,2265,0,9
1778662002.082264,2168,0,9
1778662002.083554,1921,0,9
1778662002.086211,1911,0,9
1778662002.092433,2060,0,9
1778662002.092569,2069,0,9
1778662002.092791,2232,0,9
1778662002.095123,2006,0,9
1778662002.095625,2044,0,9
1778662002.097867,2122,0,9
1778662002.099411,2006,0,9
1778662002.102421,1878,0,9
1778662002.103745,1961,0,9
1778662002.1063108,2081,0,9
1778662002.107606,2154,0,9
1778662002.1100821,2000,0,9
1778662002.114273,2065,0,9
1778662002.114741,2224,0,9
1778662002.1170518,2028,0,9
1778662002.1172009,1913,0,9
1778662002.119877,2043,0,9
1778662002.1222222,2104,0,9
1778662002.12367,2072,0,9
1778662002.125628,2109,0,9
1778662002.128205,2052,0,9
1778662002.129493,2158,0,9
1778662002.13205,2157,0,9
1778662002.133353,1958,0,9
1778662002.138471,1799,0,9
1778662002.139384,1989,0,9
1778662002.1397939,2096,0,9
1778662002.1414242,2133,0,9
1778662002.143521,1985,0,9
1778662002.1463292,2100,0,9
1778662002.147858,2179,0,9
1778662002.1495411,2039,0,9
1778662002.152262,1874,0,9
1778662002.1534898,1950,0,9
1778662002.156071,2068,0,9
1778662002.157364,2137,0,9
1778662002.163328,2071,0,9
1778662002.1637802,2087,0,9
1778662002.164783,2193,0,9
1778662002.1675992,2096,0,9
1778662002.16768,1936,0,9
1778662002.169614,1818,0,9
1778662002.172491,2091,0,9
1778662002.174495,2168,0,9
1778662002.1757991,2066,0,9
1778662002.177122,2033,0,9
1778662002.17964,2208,0,9
1778662002.182192,2136,0,9
1778662002.1872241,1982,0,9
1778662002.18776,1835,0,9
1778662002.187831,2014,0,9
1778662002.189858,2090,0,9
1778662002.191299,2101,0,9
1778662002.1935081,2004,0,9
1778662002.19623,2096,0,9
1778662002.1981351,2251,0,9
1778662002.199446,2035,0,9
1778662002.2019079,1766,0,9
1778662002.2032058,2014,0,9
1778662002.205774,2373,0,9
1778662002.207114,2166,0,9
1778662002.211859,1772,0,9
1778662002.211936,1764,0,9
1778662002.214067,2330,0,9
1778662002.216321,2197,0,9
1778662002.217824,2020,0,9
1778662002.220929,1772,0,9
1778662002.222668,1906,0,9
1778662002.223972,2082,0,9
1778662002.2252648,2265,0,9
1778662002.227832,2200,0,9
1778662002.2291179,2110,0,9
1778662002.231661,2257,0,9
1778662002.2371142,1904,0,9
1778662002.237546,1784,0,9
1778662002.238774,2037,0,9
1778662002.241,2103,0,9
1778662002.241767,2161,0,9
1778662002.243934,2366,0,9
1778662002.245615,1680,0,9
1778662002.247224,1444,0,9
1778662002.2497852,2779,0,9
1778662002.2511182,2220,0,9
1778662002.2536771,1581,0,9
1778662002.2562501,1995,0,9
1778662002.260937,2296,0,9
1778662002.261371,2536,0,9
1778662002.261775,1724,0,9
1778662002.263621,1977,0,9
1778662002.265454,2172,0,9
1778662002.270143,1911,0,9
1778662002.270302,1574,0,9
1778662002.2722461,1938,0,9
1778662002.273539,2187,0,9
1778662002.276085,2571,0,9
1778662002.2774248,1578,0,9
1778662002.27997,1671,0,9
1778662002.284271,2428,0,9
1778662002.284364,2300,0,9
1778662002.28685,2616,0,9
1778662002.289085,1866,0,9
1778662002.289782,1666,0,9
1778662002.293194,2012,0,9
1778662002.293258,1805,0,9
1778662002.295157,2280,0,9
1778662002.297714,2113,0,9
1778662002.3003929,2009,0,9
1778662002.301666,1585,0,9
1778662002.3032472,1895,0,9
1778662002.308398,2307,0,9
1778662002.308734,2423,0,9
1778662002.310226,1312,0,9
1778662002.312108,2264,0,9
1778662002.3163788,2311,0,9
1778662002.316448,2317,0,9
1778662002.3180742,1213,0,9
1778662002.320145,1341,0,9
1778662002.321443,1854,0,9
1778662002.3239229,1983,0,9
1778662002.325205,893,0,9
1778662002.330904,1861,0,9
1778662002.3313532,2250,0,9
1778662002.332426,2114,0,9
1778662002.334938,647,0,9
1778662002.337049,1825,0,9
1778662002.338402,2785,0,9
1778662002.3402932,2214,0,9
1778662002.341835,1225,0,9
1778662002.343143,2307,0,9
1778662002.345689,2397,0,9
1778662002.346993,1748,0,9
1778662002.3495522,1921,0,9
1778662002.3543549,1562,0,9
1778662002.354767,1791,0,9
1778662002.3569238,978,0,9
1778662002.3587892,1815,0,9
1778662002.360596,2406,0,9
1778662002.3635242,2548,0,9
1778662002.363669,2072,0,9
1778662002.3655522,2006,0,9
1778662002.368104,2179,0,9
1778662002.3694751,2052,0,9
1778662002.372094,1805,0,9
1778662002.373385,2218,0,9
1778662002.37922,2132,0,9
1778662002.379592,1775,0,9
1778662002.380655,2135,0,9
1778662002.382339,1540,0,9
1778662002.387347,1820,0,9
1778662002.3874822,2290,0,9
1778662002.387603,2082,0,9
1778662002.389141,1403,0,9
1778662002.391695,2197,0,9
1778662002.3942459,2096,0,9
1778662002.3954298,2514,0,9
1778662002.3980658,2229,0,9
1778662002.40131,1712,0,9
1778662002.401645,1760,0,9
1778662002.4039528,2370,0,9
1778662002.405985,2293,0,9
1778662002.4073951,2216,0,9
1778662002.4104471,1612,0,9
1778662002.4123251,2026,0,9
1778662002.413609,2564,0,9
1778662002.41616,2206,0,9
1778662002.417556,2008,0,9
1778662002.4201128,1747,0,9
1778662002.425178,2450,0,9
1778662002.425611,1741,0,9
1778662002.426003,1873,0,9
1778662002.428449,2748,0,9
1778662002.429824,1710,0,9
1778662002.431583,2119,0,9
1778662002.433718,1815,0,9
1778662002.435712,1551,0,9
1778662002.4370828,2466,0,9
1778662002.4396338,2272,0,9
1778662002.440993,2259,0,9
1778662002.4436228,2206,0,9
1778662002.4488692,2418,0,9
1778662002.44995,1850,0,9
1778662002.451179,1931,0,9
1778662002.451355,1869,0,9
1778662002.453354,1758,0,9
1778662002.455006,2715,0,9
1778662002.458443,2832,0,9
1778662002.460335,1330,0,9
1778662002.461633,831,0,9
1778662002.463012,2990,0,9
1778662002.46556,2212,0,9
1778662002.468111,2042,0,9
1778662002.4729018,1854,0,9
1778662002.4729679,1836,0,9
1778662002.4734101,2085,0,9
1778662002.47542,2240,0,9
1778662002.478701,2697,0,9
1778662002.4821188,2560,0,9
1778662002.482282,2460,0,9
1778662002.484158,2251,0,9
1778662002.485461,992,0,9
1778662002.488043,1409,0,9
1778662002.4893289,2373,0,9
1778662002.491877,2210,0,9
1778662002.493173,2404,0,9
1778662002.497257,2162,0,9
1778662002.497698,2792,0,9
1778662002.499754,1608,0,9
1778662002.5015209,1738,0,9
1778662002.5045161,2653,0,9
1778662002.507138,1804,0,9
1778662002.507303,2155,0,9
1778662002.510027,2029,0,9
1778662002.511313,1994,0,9
1778662002.513869,2418,0,9
1778662002.515255,2242,0,9
1778662002.521323,2147,0,9
1778662002.521693,2198,0,9
1778662002.52209,2087,0,9
1778662002.523755,2489,0,9
1778662002.526541,2505,0,9
1778662002.528644,1799,0,9
1778662002.531187,1131,0,9
1778662002.531407,2503,0,9
1778662002.5344288,2521,0,9
1778662002.535964,2015,0,9
1778662002.537332,1417,0,9
1778662002.539977,2900,0,9
1778662002.5413241,1821,0,9
1778662002.547349,2583,0,9
1778662002.547604,1940,0,9
1778662002.549729,2457,0,9
1778662002.551892,1487,0,9
1778662002.552078,1913,0,9
1778662002.557558,2017,0,9
1778662002.557815,2841,0,9
1778662002.558078,2005,0,9
1778662002.5600471,355,0,9
1778662002.5614011,2631,0,9
1778662002.563287,2918,0,9
1778662002.570765,2271,0,9
1778662002.570954,1626,0,9
1778662002.57309,1751,0,9
1778662002.5736582,2923,0,9
1778662002.5744839,1622,0,9
1778662002.576907,2133,0,9
1778662002.579843,3224,0,9
1778662002.5801442,1753,0,9
1778662002.582229,1380,0,9
1778662002.583433,2425,0,9
1778662002.5860841,2653,0,9
1778662002.587467,1641,0,9
1778662002.590104,1445,0,9
1778662002.5915258,2098,0,9
1778662002.60037,2307,0,9
1778662002.6019268,2473,0,9
1778662002.606745,3131,0,9
1778662002.6070762,1280,0,9
1778662002.6087449,1950,0,9
1778662002.60933,2511,0,9
1778662002.609469,2217,0,9
1778662002.609548,2058,0,9
1778662002.60965,1237,0,9
1778662002.611047,1796,0,9
1778662002.618607,2741,0,9
1778662002.620053,2396,0,9
1778662002.620268,776,0,9
1778662002.6204789,3499,0,9
1778662002.625706,549,0,9
1778662002.628629,1205,0,9
1778662002.629144,4095,0,9
1778662002.629405,1556,0,9
1778662002.6312609,2488,0,9
1778662002.6315331,2021,0,9
1778662002.634316,1516,0,9
1778662002.635693,2370,0,9
1778662002.637032,1905,0,9
1778662002.640843,2181,0,9
1778662002.646357,2289,0,9
1778662002.64898,1666,0,9
1778662002.6491258,2082,0,9
1778662002.649367,1464,0,9
1778662002.649656,1884,0,9
1778662002.651679,2744,0,9
1778662002.6584342,965,0,9
1778662002.658745,2300,0,9
1778662002.658993,2579,0,9
1778662002.6592152,2552,0,9
1778662002.661024,2258,0,9
1778662002.663701,1805,0,9
1778662002.665108,3014,0,9
1778662002.671168,1076,0,9
1778662002.673414,1762,0,9
1778662002.675616,2857,0,9
1778662002.6764438,2087,0,9
1778662002.677017,1978,0,9
1778662002.678265,2293,0,9
1778662002.679839,2534,0,9
1778662002.683417,1773,0,9
1778662002.6837509,2405,0,9
1778662002.685932,2611,0,9
1778662002.6873019,2205,0,9
1778662002.689926,2113,0,9
1778662002.691278,2366,0,9
1778662002.6938932,1215,0,9
1778662002.6952739,2755,0,9
1778662002.701181,2334,0,9
1778662002.703556,2741,0,9
1778662002.703739,1483,0,9
1778662002.703984,2410,0,9
1778662002.706115,1368,0,9
1778662002.713005,1940,0,9
1778662002.713547,3339,0,9
1778662002.7150981,2950,0,9
1778662002.715765,2636,0,9
1778662002.7158499,2021,0,9
1778662002.717251,2638,0,9
1778662002.719878,1838,0,9
1778662002.7257411,3136,0,9
1778662002.727849,1351,0,9
1778662002.731732,2619,0,9
1778662002.7371562,2785,0,9
1778662002.7398982,1841,0,9
1778662002.7402098,2015,0,9
1778662002.74034,2403,0,9
1778662002.7403991,1843,0,9
1778662002.7404852,2850,0,9
1778662002.7405791,2965,0,9
1778662002.7419379,2782,0,9
1778662002.74335,1838,0,9
1778662002.745249,2128,0,9
1778662002.747904,2835,0,9
1778662002.749281,2398,0,9
1778662002.756059,1027,0,9
1778662002.757607,2360,0,9
1778662002.760909,1913,0,9
1778662002.762264,3038,0,9
1778662002.7627451,1578,0,9
1778662002.7644548,1597,0,9
1778662002.768781,2806,0,9
1778662002.7711701,2750,0,9
1778662002.7712471,2056,0,9
1778662002.771317,1463,0,9
1778662002.771416,1985,0,9
1778662002.772875,3106,0,9
1778662002.775566,1903,0,9
1778662002.780847,1897,0,9
1778662002.783165,2958,0,9
1778662002.783565,1188,0,9
1778662002.788246,2202,0,9
1778662002.7899709,2126,0,9
1778662002.794139,2384,0,9
1778662002.794506,2001,0,9
1778662002.794781,1583,0,9
1778662002.795014,2483,0,9
1778662002.7951932,1739,0,9
1778662002.797419,1866,0,9
1778662002.800044,2244,0,9
1778662002.801373,2369,0,9
1778662002.804002,1702,0,9
1778662002.805402,1597,0,9
1778662002.813759,1921,0,9
1778662002.815655,2682,0,9
1778662002.815891,2348,0,9
1778662002.8160992,1846,0,9
1778662002.819911,1571,0,9
1778662002.82053,2979,0,9
1778662002.822521,2278,0,9
1778662002.822696,1574,0,9
1778662002.827136,1423,0,9
1778662002.8274372,2328,0,9
1778662002.829411,1576,0,9
1778662002.830146,2480,0,9
1778662002.831548,2404,0,9
1778662002.8329349,2194,0,9
1778662002.839693,762,0,9
1778662002.8407419,1920,0,9
1778662002.841234,2180,0,9
1778662002.842865,2593,0,9
1778662002.84561,1993,0,9
1778662002.846223,1776,0,9
1778662002.8491719,2173,0,9
1778662002.8557131,2530,0,9
1778662002.856045,1882,0,9
1778662002.856126,1180,0,9
1778662002.856222,2431,0,9
1778662002.8575969,2198,0,9
1778662002.858935,2094,0,9
1778662002.861631,2047,0,9
1778662002.8629918,2031,0,9
1778662002.865685,2033,0,9
1778662002.8717499,1610,0,9
1778662002.874444,1778,0,9
1778662002.8747149,2242,0,9
1778662002.877128,1810,0,9
1778662002.877584,2488,0,9
1778662002.877792,1913,0,9
1778662002.88521,1958,0,9
1778662002.8854861,1935,0,9
1778662002.8857422,2123,0,9
1778662002.888253,2012,0,9
1778662002.888555,1801,0,9
1778662002.8900192,2372,0,9
1778662002.891357,2405,0,9
1778662002.900434,1370,0,9
1778662002.900806,1767,0,9
1778662002.904625,2516,0,9
1778662002.9056,2501,0,9
1778662002.9072251,1729,0,9
1778662002.907582,1553,0,9
1778662002.911652,2189,0,9
1778662002.911979,2610,0,9
1778662002.912174,2191,0,9
1778662002.9123719,2099,0,9
1778662002.914707,2302,0,9
1778662002.914877,1670,0,9
1778662002.917548,1663,0,9
1778662002.919057,1841,0,9
1778662002.9217331,1574,0,9
1778662002.923108,2418,0,9
1778662002.930414,2173,0,9
1778662002.933069,1942,0,9
1778662002.933436,2051,0,9
1778662002.935446,2139,0,9
1778662002.9368699,2320,0,9
1778662002.937491,2132,0,9
1778662002.938508,1207,0,9
1778662002.940348,2321,0,9
1778662002.944849,2003,0,9
1778662002.944993,2147,0,9
1778662002.945399,2079,0,9
1778662002.9477499,2037,0,9
1778662002.9491441,2117,0,9
1778662002.951657,2059,0,9
1778662002.957515,1728,0,9
1778662002.958049,2046,0,9
1778662002.962419,2220,0,9
1778662002.9629672,2034,0,9
1778662002.963991,2056,0,9
1778662002.964177,1952,0,9
1778662002.971203,1779,0,9
1778662002.971444,2575,0,9
1778662002.971665,1857,0,9
1778662002.97201,1529,0,9
1778662002.974559,2369,0,9
1778662002.9759748,2097,0,9
1778662002.977327,1725,0,9
1778662002.9801412,2229,0,9
1778662002.98152,1967,0,9
1778662002.982947,2418,0,9
1778662002.985695,1694,0,9
1778662002.994955,1926,0,9
1778662002.995467,1980,0,9
1778662002.998192,2192,0,9
1778662002.9988139,2259,0,9
1778662002.999941,1855,0,9
1778662003.000567,2207,0,9
1778662003.0011468,2159,0,9
1778662003.0029938,1695,0,9
1778662003.0079029,1983,0,9
1778662003.008231,1926,0,9
1778662003.008663,2452,0,9
1778662003.011246,1392,0,9
1778662003.011348,1631,0,9
1778662003.014011,2300,0,9
1778662003.015421,2783,0,9
1778662003.021993,1985,0,9
1778662003.022979,1651,0,9
1778662003.0246751,1956,0,9
1778662003.024875,2409,0,9
1778662003.025234,2373,0,9
1778662003.027462,1831,0,9
1778662003.0292459,1970,0,9
1778662003.031758,2740,0,9
1778662003.037025,2048,0,9
1778662003.037338,1621,0,9
1778662003.0378208,1861,0,9
1778662003.040226,2247,0,9
1778662003.041759,2450,0,9
1778662003.043224,2120,0,9
1778662003.0458398,2162,0,9
1778662003.047293,1879,0,9
1778662003.0498729,852,0,9
1778662003.05141,2675,0,9
1778662003.05757,1933,0,9
1778662003.0581949,2247,0,9
1778662003.060116,2203,0,9
1778662003.062748,2187,0,9
1778662003.063423,2142,0,9
1778662003.064537,2437,0,9
1778662003.067486,2238,0,9
1778662003.072355,1920,0,9
1778662003.07308,2011,0,9
1778662003.0754812,1469,0,9
1778662003.075642,2315,0,9
1778662003.075739,2196,0,9
1778662003.077127,1936,0,9
1778662003.079799,2440,0,9
1778662003.0863202,2184,0,9
1778662003.0882409,2049,0,9
1778662003.090626,1959,0,9
1778662003.092271,1796,0,9
1778662003.0925078,1774,0,9
1778662003.093013,1957,0,9
1778662003.0935822,2374,0,9
1778662003.095922,2104,0,9
1778662003.101388,2127,0,9
1778662003.101932,2088,0,9
1778662003.1044962,1936,0,9
1778662003.104674,1889,0,9
1778662003.106066,2195,0,9
1778662003.10741,1717,0,9
1778662003.110019,2014,0,9
1778662003.111378,2244,0,9
1778662003.113914,2177,0,9
1778662003.1155798,2173,0,9
1778662003.1240032,1880,0,9
1778662003.126601,1860,0,9
1778662003.1282141,2115,0,9
1778662003.128907,2182,0,9
1778662003.136776,2182,0,9
1778662003.1372921,2163,0,9
1778662003.137471,1943,0,9
1778662003.137867,1859,0,9
1778662003.138221,2143,0,9
1778662003.140086,1913,0,9
1778662003.140778,1831,0,9
1778662003.140846,2210,0,9
1778662003.1409369,2238,0,9
1778662003.143668,2095,0,9
1778662003.145043,1716,0,9
1778662003.151656,2338,0,9
1778662003.154163,2214,0,9
1778662003.154308,1742,0,9
1778662003.157281,1810,0,9
1778662003.1579251,2079,0,9
1778662003.1586041,2096,0,9
1778662003.161458,2140,0,9
1778662003.166613,2046,0,9
1778662003.16695,2153,0,9
1778662003.167294,2038,0,9
1778662003.167605,1767,0,9
1778662003.1702259,1872,0,9
1778662003.1715882,1995,0,9
1778662003.172957,2136,0,9
1778662003.1755571,1986,0,9
1778662003.176974,1618,0,9
1778662003.179498,2495,0,9
1778662003.18711,2274,0,9
1778662003.1896992,1992,0,9
1778662003.191596,1804,0,9
1778662003.192132,1902,0,9
1778662003.1939049,1944,0,9
1778662003.194464,1980,0,9
1778662003.195561,2081,0,9
1778662003.197438,1807,0,9
1778662003.1977851,2365,0,9
1778662003.2052832,2218,0,9
1778662003.205606,1866,0,9
1778662003.205698,1672,0,9
1778662003.205776,1804,0,9
1778662003.207499,1851,0,9
1778662003.208877,2247,0,9
1778662003.216374,2266,0,9
1778662003.217441,2194,0,9
1778662003.2195368,1838,0,9
1778662003.222121,1958,0,9
1778662003.222925,1820,0,9
1778662003.224088,2018,0,9
1778662003.224659,2134,0,9
1778662003.225246,2182,0,9
1778662003.232668,2057,0,9
1778662003.232924,1866,0,9
1778662003.233163,1994,0,9
1778662003.2333,2016,0,9
1778662003.235359,1800,0,9
1778662003.236811,1867,0,9
1778662003.239389,2011,0,9
1778662003.240821,2108,0,9
1778662003.2435179,2070,0,9
1778662003.2449439,2156,0,9
1778662003.252213,2166,0,9
1778662003.254276,1861,0,9
1778662003.255884,1848,0,9
1778662003.2563531,1885,0,9
1778662003.258326,1917,0,9
1778662003.258841,1961,0,9
1778662003.259434,2079,0,9
1778662003.2615318,1980,0,9
1778662003.268342,2060,0,9
1778662003.2686841,2029,0,9
1778662003.27106,1873,0,9
1778662003.271627,1765,0,9
1778662003.271965,1949,0,9
1778662003.273373,2040,0,9
1778662003.2747982,2063,0,9
1778662003.2771862,1921,0,9
1778662003.28266,1984,0,9
1778662003.28323,2111,0,9
1778662003.2842612,1942,0,9
1778662003.288401,1746,0,9
1778662003.29081,1839,0,9
1778662003.2931259,1989,0,9
1778662003.293271,2033,0,9
1778662003.2936902,1945,0,9
1778662003.2987251,2113,0,9
1778662003.299305,2095,0,9
1778662003.301294,1765,0,9
1778662003.30211,1818,0,9
1778662003.3035352,1771,0,9
1778662003.304992,1938,0,9
1778662003.307612,2021,0,9
1778662003.308987,2078,0,9
1778662003.311666,1908,0,9
1778662003.313045,2000,0,9
1778662003.31944,2105,0,9
1778662003.32185,1949,0,9
1778662003.322069,1605,0,9
1778662003.322211,1916,0,9
1778662003.324037,2045,0,9
1778662003.3256059,2041,0,9
1778662003.3282309,1800,0,9
1778662003.333051,1796,0,9
1778662003.333206,1910,0,9
1778662003.333337,1871,0,9
1778662003.335285,1726,0,9
1778662003.337877,1712,0,9
1778662003.339177,1940,0,9
1778662003.344765,1999,0,9
1778662003.3456151,1828,0,9
1778662003.34603,1884,0,9
1778662003.34754,2156,0,9
1778662003.349167,2077,0,9
1778662003.351069,1796,0,9
1778662003.357496,1770,0,9
1778662003.357733,2197,0,9
1778662003.3579588,2385,0,9
1778662003.360157,2224,0,9
1778662003.361461,2099,0,9
1778662003.362784,2652,0,9
1778662003.365351,2502,0,9
1778662003.3667672,2009,0,9
1778662003.369618,1934,0,9
1778662003.37436,2185,0,9
1778662003.374868,1935,0,9
1778662003.375347,1963,0,9
1778662003.377629,2399,0,9
1778662003.3797078,2384,0,9
1778662003.381553,2211,0,9
1778662003.3833642,2060,0,9
1778662003.387746,1990,0,9
1778662003.38796,2085,0,9
1778662003.390187,2203,0,9
1778662003.391489,2117,0,9
1778662003.3927932,2403,0,9
1778662003.3989818,2653,0,9
1778662003.3991182,1693,0,9
1778662003.4,2041,0,9
1778662003.401918,2227,0,9
1778662003.404054,2091,0,9
1778662003.40539,1927,0,9
1778662003.4076412,2092,0,9
1778662003.411917,2157,0,9
1778662003.4121442,2036,0,9
1778662003.414172,2351,0,9
1778662003.4154692,2220,0,9
1778662003.4167612,2121,0,9
1778662003.419369,1719,0,9
1778662003.420672,2195,0,9
1778662003.423229,2564,0,9
1778662003.428837,2195,0,9
1778662003.4292638,1934,0,9
1778662003.4297578,2160,0,9
1778662003.431809,2297,0,9
1778662003.4339252,2067,0,9
1778662003.435377,1826,0,9
1778662003.437697,2086,0,9
1778662003.4420118,1966,0,9
1778662003.442119,2333,0,9
1778662003.444381,2274,0,9
1778662003.445703,2206,0,9
1778662003.446996,2413,0,9
1778662003.454575,2259,0,9
1778662003.4547641,1778,0,9
1778662003.454921,2057,0,9
1778662003.456398,2271,0,9
1778662003.4578109,2137,0,9
1778662003.46012,2215,0,9
1778662003.4640908,2234,0,9
1778662003.464235,1905,0,9
1778662003.46589,2346,0,9
1778662003.46719,2359,0,9
1778662003.4697149,1695,0,9
1778662003.4710588,2133,0,9
1778662003.4736362,2417,0,9
1778662003.474931,2282,0,9
1778662003.480314,1770,0,9
1778662003.480432,2199,0,9
1778662003.482805,2400,0,9
1778662003.4828942,1746,0,9
1778662003.486938,1634,0,9
1778662003.487007,2168,0,9
1778662003.492291,2068,0,9
1778662003.4925818,1908,0,9
1778662003.494157,2133,0,9
1778662003.495456,1822,0,9
1778662003.496744,2156,0,9
1778662003.504141,2563,0,9
1778662003.50541,1992,0,9
1778662003.505579,1853,0,9
1778662003.505847,1961,0,9
1778662003.507723,2073,0,9
1778662003.509711,2008,0,9
1778662003.5110679,1971,0,9
1778662003.514957,2048,0,9
1778662003.515063,1802,0,9
1778662003.516704,1802,0,9
1778662003.5194361,1558,0,9
1778662003.520766,1742,0,9
1778662003.523328,1926,0,9
1778662003.52589,2071,0,9
1778662003.530762,1934,0,9
1778662003.531148,1925,0,9
1778662003.531573,2038,0,9
1778662003.533251,1895,0,9
1778662003.535158,1713,0,9
1778662003.5423439,1857,0,9
1778662003.542628,1994,0,9
1778662003.542745,2027,0,9
1778662003.542867,2060,0,9
1778662003.5456588,2005,0,9
1778662003.5469499,2102,0,9
1778662003.553208,2107,0,9
1778662003.554037,1889,0,9
1778662003.5544178,1841,0,9
1778662003.5560892,1938,0,9
1778662003.558068,2093,0,9
1778662003.5596778,2039,0,9
1778662003.561366,1980,0,9
1778662003.5649338,2120,0,9
1778662003.565121,2131,0,9
1778662003.5672362,1921,0,9
1778662003.569844,1691,0,9
1778662003.571009,1960,0,9
1778662003.57358,2119,0,9
1778662003.5748742,2126,0,9
1778662003.581341,2014,0,9
1778662003.581814,2055,0,9
1778662003.582238,2148,0,9
1778662003.584203,2009,0,9
1778662003.5865269,1806,0,9
1778662003.5880802,1883,0,9
1778662003.589501,2064,0,9
1778662003.5930822,2152,0,9
1778662003.593246,2112,0,9
1778662003.5948029,2057,0,9
1778662003.5973802,2130,0,9
1778662003.5986712,2097,0,9
1778662003.605313,1945,0,9
1778662003.605469,1904,0,9
1778662003.605676,2082,0,9
1778662003.6070259,2019,0,9
1778662003.610373,1931,0,9
1778662003.6136131,1999,0,9
1778662003.613725,2120,0,9
1778662003.615366,2033,0,9
1778662003.6177301,1906,0,9
1778662003.6190379,1748,0,9
1778662003.6215959,1916,0,9
1778662003.622886,2051,0,9
1778662003.630023,2132,0,9
1778662003.630732,2064,0,9
1778662003.631962,2183,0,9
1778662003.632234,2209,0,9
1778662003.635602,1943,0,9
1778662003.63805,1760,0,9
1778662003.638196,1861,0,9
1778662003.64158,2090,0,9
1778662003.641694,2110,0,9
1778662003.6437051,2160,0,9
1778662003.64504,1971,0,9
1778662003.647735,2191,0,9
1778662003.651711,2060,0,9
1778662003.652123,1926,0,9
1778662003.65419,1799,0,9
1778662003.656142,2027,0,9
1778662003.662566,2078,0,9
1778662003.662695,2093,0,9
1778662003.6628768,2207,0,9
1778662003.6629848,2051,0,9
1778662003.66488,1995,0,9
1778662003.6675682,2103,0,9
1778662003.668925,1773,0,9
1778662003.671585,2069,0,9
1778662003.672919,1984,0,9
1778662003.681144,1992,0,9
1778662003.682911,2041,0,9
1778662003.6831071,2055,0,9
1778662003.683306,2166,0,9
1778662003.683609,2006,0,9
1778662003.686944,1846,0,9
1778662003.687489,1982,0,9
1778662003.693444,2098,0,9
1778662003.6940281,2075,0,9
1778662003.6942348,2024,0,9
1778662003.6965802,2000,0,9
1778662003.696671,2158,0,9
1778662003.6992378,2109,0,9
1778662003.70067,1871,0,9
1778662003.707191,1785,0,9
1778662003.709298,1998,0,9
1778662003.711725,2074,0,9
1778662003.71238,2117,0,9
1778662003.713751,2039,0,9
1778662003.7158232,2103,0,9
1778662003.719191,2057,0,9
1778662003.7196941,1974,0,9
1778662003.71985,1810,0,9
1778662003.722104,2174,0,9
1778662003.723444,2053,0,9
1778662003.724771,1820,0,9
1778662003.727424,2187,0,9
1778662003.728766,2151,0,9
1778662003.731947,2013,0,9
1778662003.747763,2023,0,9
1778662003.74798,1892,0,9
1778662003.748168,1649,0,9
1778662003.748363,2142,0,9
1778662003.74856,2336,0,9
1778662003.750897,1935,0,9
1778662003.751062,1859,0,9
1778662003.7511208,2128,0,9
1778662003.7511702,2142,0,9
1778662003.7512178,1935,0,9
1778662003.752799,1908,0,9
1778662003.756086,2017,0,9
1778662003.761184,2283,0,9
1778662003.762808,2202,0,9
1778662003.764231,1998,0,9
1778662003.7646022,2038,0,9
1778662003.7648268,2114,0,9
1778662003.767009,1987,0,9
1778662003.7741172,1742,0,9
1778662003.774644,1880,0,9
1778662003.775018,2048,0,9
1778662003.775347,2182,0,9
1778662003.777087,1855,0,9
1778662003.779712,2088,0,9
1778662003.781098,2283,0,9
1778662003.783755,2367,0,9
1778662003.7850828,2091,0,9
1778662003.7876322,1699,0,9
1778662003.7973912,1987,0,9
1778662003.797614,2322,0,9
1778662003.7986,1969,0,9
1778662003.799605,2016,0,9
1778662003.8022149,2196,0,9
1778662003.8024719,2106,0,9
1778662003.802606,1902,0,9
1778662003.8057659,1876,0,9
1778662003.806035,1998,0,9
1778662003.8086631,2103,0,9
1778662003.808736,2178,0,9
1778662003.811445,2095,0,9
1778662003.8129861,2167,0,9
1778662003.81852,2189,0,9
1778662003.8192158,1925,0,9
1778662003.821097,1936,0,9
1778662003.821523,2235,0,9
1778662003.82346,1991,0,9
1778662003.825374,1935,0,9
1778662003.82779,2169,0,9
1778662003.83107,2322,0,9
1778662003.83123,2149,0,9
1778662003.833696,1928,0,9
1778662003.83507,1575,0,9
1778662003.837724,1882,0,9
1778662003.839099,2108,0,9
1778662003.841727,2293,0,9
1778662003.843083,2115,0,9
1778662003.849777,1742,0,9
1778662003.85117,2036,0,9
1778662003.852789,2266,0,9
1778662003.854805,1959,0,9
1778662003.8549619,1817,0,9
1778662003.855755,2068,0,9
1778662003.859942,2060,0,9
1778662003.863264,2098,0,9
1778662003.865663,2058,0,9
1778662003.865948,2185,0,9
1778662003.866015,2216,0,9
1778662003.86737,2039,0,9
1778662003.8687181,1817,0,9
1778662003.877014,1949,0,9
1778662003.8772511,2073,0,9
1778662003.877429,2146,0,9
1778662003.878043,2102,0,9
1778662003.879636,2157,0,9
1778662003.882699,2244,0,9
1778662003.883744,2072,0,9
1778662003.886297,1849,0,9
1778662003.8898509,1845,0,9
1778662003.890178,2022,0,9
1778662003.8928761,2153,0,9
1778662003.892937,2064,0,9
1778662003.895581,2020,0,9
1778662003.8969338,2161,0,9
1778662003.899578,2064,0,9
1778662003.900915,1937,0,9
1778662003.903583,1722,0,9
1778662003.909397,2020,0,9
1778662003.912593,2133,0,9
1778662003.91287,2069,0,9
1778662003.914826,2012,0,9
1778662003.9158,2097,0,9
1778662003.9164119,2125,0,9
1778662003.920033,2051,0,9
1778662003.923369,1844,0,9
1778662003.923855,1981,0,9
1778662003.924233,2137,0,9
1778662003.926267,2119,0,9
1778662003.927646,2002,0,9
1778662003.929024,2058,0,9
1778662003.932037,2189,0,9
1778662003.940841,2067,0,9
1778662003.9411972,1889,0,9
1778662003.943825,1890,0,9
1778662003.944546,2057,0,9
1778662003.945209,2091,0,9
1778662003.946696,2097,0,9
1778662003.9472299,2012,0,9
1778662003.9474628,2097,0,9
1778662003.949182,2111,0,9
1778662003.9529321,1963,0,9
1778662003.953392,1838,0,9
1778662003.956039,1986,0,9
1778662003.95748,2191,0,9
1778662003.958839,2023,0,9
1778662003.9618208,2009,0,9
1778662003.963218,2125,0,9
1778662003.96458,2134,0,9
1778662003.9669602,1957,0,9
1778662003.97399,1844,0,9
1778662003.980555,2002,0,9
1778662003.981319,2134,0,9
1778662003.981517,2105,0,9
1778662003.982628,1995,0,9
1778662003.983233,2147,0,9
1778662003.988697,2177,0,9
1778662003.988993,2030,0,9
1778662003.9916701,1817,0,9
1778662003.9917781,1889,0,9
1778662003.9918132,1929,0,9
1778662003.9918442,2013,0,9
1778662003.9932532,2094,0,9
1778662003.995021,2037,0,9
1778662004.0166469,2214,0,9
1778662004.0167658,2164,0,9
1778662004.019052,1945,0,9
1778662004.019305,1896,0,9
1778662004.020403,2083,0,9
1778662004.044832,2045,0,9
1778662004.047456,2075,0,9
1778662004.047799,1999,0,9
1778662004.048567,2048,0,9
1778662004.0486321,2254,0,9
1778662004.048683,1955,0,9
1778662004.0487309,1660,0,9
1778662004.0487769,1994,0,9
1778662004.048823,2237,0,9
1778662004.0488698,2281,0,9
1778662004.0489159,1976,0,9
1778662004.048962,2027,0,9
1778662004.0490072,2038,0,9
1778662004.052723,2054,0,9
1778662004.052862,1856,0,9
1778662004.0650759,1851,0,9
1778662004.0685298,2015,0,9
1778662004.072169,2096,0,9
1778662004.072683,2102,0,9
1778662004.072831,2057,0,9
1778662004.0747259,2198,0,9
1778662004.074903,2137,0,9
1778662004.0757298,1959,0,9
1778662004.0757918,1799,0,9
1778662004.0758421,2022,0,9
1778662004.0758889,2082,0,9
1778662004.075937,2098,0,9
1778662004.075983,2065,0,9
1778662004.0760288,2060,0,9
1778662004.076076,2117,0,9
1778662004.076124,2064,0,9
1778662004.076173,1747,0,9
1778662004.076223,1940,0,9
1778662004.0763059,2028,0,9
1778662004.076419,2130,0,9
1778662004.076542,2038,0,9
1778662004.078528,2080,0,9
1778662004.0813062,2314,0,9
1778662004.0826712,2102,0,9
1778662004.085323,1879,0,9
1778662004.0870452,1609,0,9
1778662004.0935109,1785,0,9
1778662004.096171,2225,0,9
1778662004.096491,2259,0,9
1778662004.099488,1809,0,9
1778662004.1001139,2151,0,9
1778662004.100754,2052,0,9
1778662004.101891,1949,0,9
1778662004.104084,2176,0,9
1778662004.107341,2262,0,9
1778662004.1077251,1886,0,9
1778662004.110406,2001,0,9
1778662004.110531,1812,0,9
1778662004.1131961,1242,0,9
1778662004.121202,2825,0,9
1778662004.123762,2202,0,9
1778662004.124002,1707,0,9
1778662004.1261811,1579,0,9
1778662004.128717,2301,0,9
1778662004.129754,2444,0,9
1778662004.131574,1073,0,9
1778662004.131776,2255,0,9
1778662004.132003,2183,0,9
1778662004.134998,1243,0,9
1778662004.135287,2146,0,9
1778662004.138389,2010,0,9
1778662004.1385112,1657,0,9
1778662004.141175,2268,0,9
1778662004.142572,2328,0,9
1778662004.145281,2297,0,9
1778662004.1466439,2353,0,9
1778662004.149289,1821,0,9
1778662004.150657,1838,0,9
1778662004.153366,1830,0,9
1778662004.154749,1997,0,9
1778662004.162524,1075,0,9
1778662004.1644192,2233,0,9
1778662004.164576,2472,0,9
1778662004.167,2113,0,9
1778662004.167168,2221,0,9
1778662004.167287,2163,0,9
1778662004.169912,1984,0,9
1778662004.1717162,1770,0,9
1778662004.174865,2300,0,9
1778662004.1751628,2556,0,9
1778662004.1775439,1465,0,9
1778662004.1788642,1720,0,9
1778662004.181451,2293,0,9
1778662004.182965,2428,0,9
1778662004.188718,2035,0,9
1778662004.189586,1861,0,9
1778662004.191008,2146,0,9
1778662004.191127,2336,0,9
1778662004.194549,2351,0,9
1778662004.1960928,2205,0,9
1778662004.19825,2089,0,9
1778662004.2012742,2450,0,9
1778662004.2018108,1481,0,9
1778662004.204381,1634,0,9
1778662004.2045639,2262,0,9
1778662004.2071989,1784,0,9
1778662004.208547,1989,0,9
1778662004.211228,2548,0,9
1778662004.212586,2404,0,9
1778662004.215316,2405,0,9
1778662004.2215402,2174,0,9
1778662004.224801,2046,0,9
1778662004.227772,2055,0,9
1778662004.228833,1900,0,9
1778662004.2290392,2266,0,9
1778662004.229821,2503,0,9
1778662004.230647,2820,0,9
1778662004.23137,1389,0,9
1778662004.236597,1756,0,9
1778662004.236829,2265,0,9
1778662004.237142,2145,0,9
1778662004.239817,2265,0,9
1778662004.241228,2271,0,9
1778662004.242624,2132,0,9
1778662004.2515478,2089,0,9
1778662004.264949,2142,0,9
1778662004.265118,2226,0,9
1778662004.265194,2153,0,9
1778662004.265246,1786,0,9
1778662004.265296,1396,0,9
1778662004.265345,2287,0,9
1778662004.265397,2981,0,9
1778662004.265444,1914,0,9
1778662004.2654898,1951,0,9
1778662004.265625,1784,0,9
1778662004.2671518,2381,0,9
1778662004.2685199,2310,0,9
1778662004.2715478,2309,0,9
1778662004.272928,2247,0,9
1778662004.2757802,1351,0,9
1778662004.277214,1917,0,9
1778662004.286824,2394,0,9
1778662004.290378,2427,0,9
1778662004.29114,2115,0,9
1778662004.2975628,1795,0,9
1778662004.300423,2365,0,9
1778662004.300556,1665,0,9
1778662004.300661,2541,0,9
1778662004.3008242,2761,0,9
1778662004.300925,2647,0,9
1778662004.301089,1655,0,9
1778662004.301219,1452,0,9
1778662004.301413,2609,0,9
1778662004.302756,2348,0,9
1778662004.305459,2094,0,9
1778662004.311496,1751,0,9
1778662004.312232,1979,0,9
1778662004.3142998,2430,0,9
1778662004.3147461,2321,0,9
1778662004.3182342,1960,0,9
1778662004.318804,2631,0,9
1778662004.3190248,2117,0,9
1778662004.321919,1929,0,9
1778662004.3253918,2164,0,9
1778662004.325658,2469,0,9
1778662004.328223,1248,0,9
1778662004.329483,3165,0,9
1778662004.330822,3109,0,9
1778662004.3334,2380,0,9
1778662004.334743,1208,0,9
1778662004.337415,1748,0,9
1778662004.338773,2701,0,9
1778662004.346244,2280,0,9
1778662004.3486369,1513,0,9
1778662004.352345,1780,0,9
1778662004.353638,2796,0,9
1778662004.354229,1757,0,9
1778662004.354883,2184,0,9
1778662004.35508,1937,0,9
1778662004.356946,2393,0,9
1778662004.361022,1822,0,9
1778662004.361695,2419,0,9
1778662004.36203,2442,0,9
1778662004.364667,2197,0,9
1778662004.364744,2572,0,9
1778662004.367451,1932,0,9
1778662004.3688262,1724,0,9
1778662004.377708,1948,0,9
1778662004.3783739,2326,0,9
1778662004.380159,2167,0,9
1778662004.380507,2523,0,9
1778662004.380797,2420,0,9
1778662004.384127,2328,0,9
1778662004.386323,1976,0,9
1778662004.388889,2893,0,9
1778662004.389081,782,0,9
1778662004.3893702,2585,0,9
1778662004.39324,2700,0,9
1778662004.393358,2166,0,9
1778662004.396142,1858,0,9
1778662004.397612,2316,0,9
1778662004.3990011,970,0,9
1778662004.4016562,2602,0,9
1778662004.402993,2563,0,9
1778662004.4056242,2653,0,9
1778662004.406971,1517,0,9
1778662004.414979,980,0,9
1778662004.4177978,2756,0,9
1778662004.418265,1937,0,9
1778662004.418491,1847,0,9
1778662004.418793,692,0,9
1778662004.423501,1215,0,9
1778662004.4241998,1071,0,9
1778662004.424441,976,0,9
1778662004.4270442,736,0,9
1778662004.427212,1459,0,9
1778662004.430959,0,0,9
1778662004.431339,920,0,9
1778662004.433721,1738,0,9
1778662004.435061,0,0,9
1778662004.4377432,758,0,9
1778662004.439132,1203,0,9
1778662004.4468281,1956,0,9
1778662004.448551,1881,0,9
1778662004.44887,316,0,9
1778662004.449114,1804,0,9
1778662004.4512398,1739,0,9
1778662004.452078,1856,0,9
1778662004.454019,1298,0,9
1778662004.46114,2022,0,9
1778662004.46132,743,0,9
1778662004.461899,1666,0,9
1778662004.462284,2323,0,9
1778662004.465004,1909,0,9
1778662004.4651031,1576,0,9
1778662004.4665,1943,0,9
1778662004.469146,1701,0,9
1778662004.4705632,1777,0,9
1778662004.4733791,1827,0,9
1778662004.474802,2295,0,9
1778662004.47759,1486,0,9
1778662004.484264,1756,0,9
1778662004.4844108,2553,0,9
1778662004.487355,1911,0,9
1778662004.4878101,1669,0,9
1778662004.491159,1957,0,9
1778662004.49198,2027,0,9
1778662004.493675,2444,0,9
1778662004.4960709,1869,0,9
1778662004.500138,2223,0,9
1778662004.5004952,2740,0,9
1778662004.500684,1571,0,9
1778662004.5008378,1958,0,9
1778662004.50372,3352,0,9
1778662004.5051441,3329,0,9
1778662004.5065432,1513,0,9
1778662004.509291,3835,0,9
1778662004.516822,3493,0,9
1778662004.5187058,3687,0,9
1778662004.519008,3145,0,9
1778662004.519263,3471,0,9
1778662004.519391,3751,0,9
1778662004.523178,2706,0,9
1778662004.526855,2609,0,9
1778662004.526997,2848,0,9
1778662004.5271199,3489,0,9
1778662004.531141,1908,0,9
1778662004.531414,2976,0,9
1778662004.534852,3255,0,9
1778662004.5349581,1981,0,9
1778662004.537567,2365,0,9
1778662004.538882,2735,0,9
1778662004.541589,2112,0,9
1778662004.543026,2011,0,9
1778662004.544459,2232,0,9
1778662004.5471349,1886,0,9
1778662004.5549152,2673,0,9
1778662004.559863,1109,0,9
1778662004.561961,1525,0,9
1778662004.563433,2218,0,9
1778662004.570394,2275,0,9
1778662004.5709271,2339,0,9
1778662004.571378,1726,0,9
1778662004.57172,1541,0,9
1778662004.574262,2104,0,9
1778662004.574495,2598,0,9
1778662004.574749,2067,0,9
1778662004.574819,1488,0,9
1778662004.574872,1640,0,9
1778662004.5749261,1734,0,9
1778662004.577686,2471,0,9
1778662004.57905,2526,0,9
1778662004.587508,1495,0,9
1778662004.5893278,626,0,9
1778662004.589605,2110,0,9
1778662004.590079,2988,0,9
1778662004.592614,1520,0,9
1778662004.5934389,1149,0,9
1778662004.594244,2228,0,9
1778662004.598001,2131,0,9
1778662004.598189,2383,0,9
1778662004.602574,2780,0,9
1778662004.602924,2217,0,9
1778662004.603298,1597,0,9
1778662004.605479,1924,0,9
1778662004.6068218,1801,0,9
1778662004.6094232,2415,0,9
1778662004.610774,2627,0,9
1778662004.613388,2407,0,9
1778662004.6147342,1637,0,9
1778662004.617333,1847,0,9
1778662004.6188889,2469,0,9
1778662004.6251142,1427,0,9
1778662004.62694,771,0,9
1778662004.6289332,3635,0,9
1778662004.631061,3091,0,9
1778662004.631754,1411,0,9
1778662004.632902,2492,0,9
1778662004.6336598,2220,0,9
1778662004.637789,2852,0,9
1778662004.642672,1452,0,9
1778662004.643232,1841,0,9
1778662004.643483,2700,0,9
1778662004.643682,2458,0,9
1778662004.646029,2270,0,9
1778662004.647403,1576,0,9
1778662004.6487591,2353,0,9
1778662004.651455,2206,0,9
1778662004.659002,2027,0,9
1778662004.6591291,3029,0,9
1778662004.6596968,1946,0,9
1778662004.6598232,2124,0,9
1778662004.662126,2388,0,9
1778662004.6646578,2690,0,9
1778662004.665173,2407,0,9
1778662004.667199,2232,0,9
1778662004.668886,2007,0,9
1778662004.672891,2230,0,9
1778662004.672927,2237,0,9
1778662004.675667,2646,0,9
1778662004.67697,2175,0,9
1778662004.679459,2538,0,9
1778662004.680767,2752,0,9
1778662004.683349,2090,0,9
1778662004.684811,2512,0,9
1778662004.687712,2389,0,9
1778662004.69615,2482,0,9
1778662004.698519,2558,0,9
1778662004.699647,2519,0,9
1778662004.700834,2346,0,9
1778662004.702158,2648,0,9
1778662004.7027562,3111,0,9
1778662004.709322,2421,0,9
1778662004.709763,1645,0,9
1778662004.712407,2581,0,9
1778662004.71287,2539,0,9
1778662004.712945,2249,0,9
1778662004.7130759,3175,0,9
1778662004.713134,2443,0,9
1778662004.7144918,2425,0,9
1778662004.717142,1967,0,9
1778662004.724736,2608,0,9
1778662004.726938,2678,0,9
1778662004.727283,2272,0,9
1778662004.727633,2774,0,9
1778662004.730155,2113,0,9
1778662004.731781,2372,0,9
1778662004.733288,2499,0,9
1778662004.733398,2433,0,9
1778662004.7353349,2724,0,9
1778662004.739934,2089,0,9
1778662004.740289,1514,0,9
1778662004.74082,1861,0,9
1778662004.743385,2242,0,9
1778662004.744786,2617,0,9
1778662004.74755,1192,0,9
1778662004.748965,1283,0,9
1778662004.7504141,2894,0,9
1778662004.753622,2107,0,9
1778662004.76326,2146,0,9
1778662004.765453,2254,0,9
1778662004.766617,2257,0,9
1778662004.767756,2218,0,9
1778662004.768471,2506,0,9
1778662004.7710888,1681,0,9
1778662004.771529,2165,0,9
1778662004.771751,2063,0,9
1778662004.776103,1685,0,9
1778662004.776374,2155,0,9
1778662004.776783,2155,0,9
1778662004.7771258,2351,0,9
1778662004.779103,2140,0,9
1778662004.781009,2257,0,9
1778662004.7824159,2325,0,9
1778662004.785085,2267,0,9
1778662004.789977,2075,0,9
1778662004.7900748,1938,0,9
1778662004.79324,2203,0,9
1778662004.793695,2416,0,9
1778662004.796484,2576,0,9
1778662004.797195,2030,0,9
1778662004.800552,2360,0,9
1778662004.8052459,2233,0,9
1778662004.805656,1339,0,9
1778662004.80588,2195,0,9
1778662004.808508,2159,0,9
1778662004.808655,2551,0,9
1778662004.811429,2269,0,9
1778662004.812813,2220,0,9
1778662004.8154612,2435,0,9
1778662004.816832,2308,0,9
1778662004.824569,2507,0,9
1778662004.826195,1750,0,9
1778662004.8280609,2194,0,9
1778662004.828529,2241,0,9
1778662004.830878,2966,0,9
1778662004.831454,2086,0,9
1778662004.83214,921,0,9
1778662004.835526,2755,0,9
1778662004.840169,2299,0,9
1778662004.840516,2308,0,9
1778662004.84076,2046,0,9
1778662004.840978,2429,0,9
1778662004.843568,2309,0,9
1778662004.844942,2192,0,9
1778662004.846412,2302,0,9
1778662004.855437,2628,0,9
1778662004.857124,2510,0,9
1778662004.857425,2056,0,9
1778662004.859856,1697,0,9
1778662004.8620899,2239,0,9
1778662004.8642619,2445,0,9
1778662004.868848,2465,0,9
1778662004.869319,2072,0,9
1778662004.869549,2769,0,9
1778662004.8741279,1866,0,9
1778662004.8742242,1752,0,9
1778662004.874269,2460,0,9
1778662004.874478,2887,0,9
1778662004.874511,2108,0,9
1778662004.877606,1815,0,9
1778662004.8791208,2355,0,9
1778662004.880588,2697,0,9
1778662004.883626,2368,0,9
1778662004.8897111,1911,0,9
1778662004.892398,1918,0,9
1778662004.894442,2305,0,9
1778662004.896181,2291,0,9
1778662004.896756,2275,0,9
1778662004.898288,1696,0,9
1778662004.900126,2574,0,9
1778662004.905056,2358,0,9
1778662004.905556,2140,0,9
1778662004.905846,2147,0,9
1778662004.908412,1606,0,9
1778662004.908747,2070,0,9
1778662004.908824,2506,0,9
1778662004.911628,2137,0,9
1778662004.913013,2309,0,9
1778662004.921932,2330,0,9
1778662004.922375,2432,0,9
1778662004.924052,1933,0,9
1778662004.9251132,1820,0,9
1778662004.9257689,1990,0,9
1778662004.927264,2219,0,9
1778662004.927903,2111,0,9
1778662004.930209,2157,0,9
1778662004.9377291,2424,0,9
1778662004.937829,1964,0,9
1778662004.937921,1830,0,9
1778662004.938022,1953,0,9
1778662004.9393432,2687,0,9
1778662004.940693,810,0,9
1778662004.943273,2369,0,9
1778662004.944664,2269,0,9
1778662004.9472718,2236,0,9
1778662004.948738,2160,0,9
1778662004.961322,1984,0,9
1778662004.9685,1839,0,9
1778662004.971072,2066,0,9
1778662004.971371,2228,0,9
1778662004.971447,2373,0,9
1778662004.9715,2110,0,9
1778662004.971551,1772,0,9
1778662004.9715998,2189,0,9
1778662004.971647,2155,0,9
1778662004.971694,1693,0,9
1778662004.971788,1932,0,9
1778662004.973195,2279,0,9
1778662004.974695,1520,0,9
1778662004.9856331,2445,0,9
1778662004.98863,2028,0,9
1778662004.9987981,1932,0,9
1778662005.001733,2280,0,9
1778662005.001867,2072,0,9
1778662005.0019991,1828,0,9
1778662005.002132,2049,0,9
1778662005.0024152,2212,0,9
1778662005.00266,2358,0,9
1778662005.002742,1935,0,9
1778662005.002898,1928,0,9
1778662005.003108,1593,0,9
1778662005.003229,2454,0,9
1778662005.0034938,1767,0,9
1778662005.00509,2072,0,9
1778662005.006485,2067,0,9
1778662005.009821,2386,0,9
1778662005.011308,1695,0,9
1778662005.013046,2286,0,9
1778662005.014473,2244,0,9
1778662005.0232,2023,0,9
1778662005.025574,1766,0,9
1778662005.027532,1766,0,9
1778662005.028585,1998,0,9
1778662005.029263,2190,0,9
1778662005.029461,2209,0,9
1778662005.031255,2034,0,9
1778662005.036454,2223,0,9
1778662005.037088,2084,0,9
1778662005.037173,1867,0,9
1778662005.037376,1639,0,9
1778662005.0399518,1908,0,9
1778662005.0412958,2147,0,9
1778662005.042597,2202,0,9
1778662005.050184,1960,0,9
1778662005.050516,2206,0,9
1778662005.0516212,2170,0,9
1778662005.053916,1347,0,9
1778662005.056198,1927,0,9
1778662005.0579221,2020,0,9
1778662005.0594811,2065,0,9
1778662005.061836,2050,0,9
1778662005.0621738,2087,0,9
1778662005.0697181,2055,0,9
1778662005.069796,2196,0,9
1778662005.0698502,2045,0,9
1778662005.0699,1819,0,9
1778662005.071278,1765,0,9
1778662005.072621,1891,0,9
1778662005.0752242,1924,0,9
1778662005.0765529,1967,0,9
1778662005.07923,1934,0,9
1778662005.0805,2138,0,9
1778662005.087423,2069,0,9
1778662005.090448,1861,0,9
1778662005.090713,1684,0,9
1778662005.09306,1861,0,9
1778662005.0963929,1936,0,9
1778662005.098465,2009,0,9
1778662005.104036,1879,0,9
1778662005.104715,1995,0,9
1778662005.105047,1917,0,9
1778662005.1051881,1780,0,9
1778662005.105521,1642,0,9
1778662005.108213,1762,0,9
1778662005.1082938,1846,0,9
1778662005.1083462,1833,0,9
1778662005.110965,1776,0,9
1778662005.119254,1742,0,9
1778662005.1225579,1789,0,9
1778662005.1228359,1847,0,9
1778662005.122998,1744,0,9
1778662005.123199,1549,0,9
1778662005.123372,1690,0,9
1778662005.1259,1859,0,9
1778662005.127916,1893,0,9
1778662005.1308868,1881,0,9
1778662005.1366248,2020,0,9
1778662005.137263,1852,0,9
1778662005.137563,1673,0,9
1778662005.140464,1538,0,9
1778662005.140537,1822,0,9
1778662005.140588,1910,0,9
1778662005.1431959,1876,0,9
1778662005.144535,1793,0,9
1778662005.1471732,1965,0,9
1778662005.148545,2006,0,9
1778662005.15115,1813,0,9
1778662005.1528451,1703,0,9
1778662005.159636,1833,0,9
1778662005.160448,1927,0,9
1778662005.160612,2068,0,9
1778662005.1611881,1951,0,9
1778662005.1630468,2020,0,9
1778662005.1659148,2075,0,9
1778662005.167812,1943,0,9
1778662005.170654,1820,0,9
1778662005.170905,1850,0,9
1778662005.176519,2024,0,9
1778662005.1769888,2167,0,9
1778662005.177275,2005,0,9
1778662005.180168,1941,0,9
1778662005.1814451,2063,0,9
1778662005.1827571,2003,0,9
1778662005.1852002,1899,0,9
1778662005.1920252,1707,0,9
1778662005.192781,1915,0,9
1778662005.192988,2170,0,9
1778662005.1952178,2157,0,9
1778662005.1954901,2028,0,9
1778662005.199637,2089,0,9
1778662005.19979,2044,0,9
1778662005.203016,2022,0,9
1778662005.208274,1740,0,9
1778662005.208714,1987,0,9
1778662005.209155,2135,0,9
1778662005.209475,2084,0,9
1778662005.212013,2008,0,9
1778662005.213359,2037,0,9
1778662005.214729,2137,0,9
1778662005.2173362,2160,0,9
1778662005.218723,1961,0,9
1778662005.22141,1811,0,9
1778662005.222753,1928,0,9
1778662005.231421,1907,0,9
1778662005.232241,1937,0,9
1778662005.234615,1947,0,9
1778662005.2348511,2253,0,9
1778662005.237161,2067,0,9
1778662005.23864,1865,0,9
1778662005.238812,1830,0,9
1778662005.240003,1949,0,9
1778662005.243547,2061,0,9
1778662005.243681,2163,0,9
1778662005.248802,2112,0,9
1778662005.249115,2008,0,9
1778662005.2496471,1826,0,9
1778662005.252359,1981,0,9
1778662005.252658,1917,0,9
1778662005.255285,2083,0,9
1778662005.2566621,2183,0,9
1778662005.26446,2412,0,9
1778662005.264689,2278,0,9
1778662005.2676961,2489,0,9
1778662005.267911,2423,0,9
1778662005.2710001,2022,0,9
1778662005.271132,1946,0,9
1778662005.273342,1982,0,9
1778662005.274146,2355,0,9
1778662005.276893,2201,0,9
1778662005.282395,1957,0,9
1778662005.282775,1975,0,9
1778662005.282987,1986,0,9
1778662005.283254,1953,0,9
1778662005.286032,1813,0,9
1778662005.287508,1744,0,9
1778662005.288887,1924,0,9
1778662005.290285,2112,0,9
1778662005.292942,2045,0,9
1778662005.294455,1898,0,9
1778662005.296981,2151,0,9
1778662005.2985442,2226,0,9
1778662005.304756,2185,0,9
1778662005.3065338,1902,0,9
1778662005.308482,1950,0,9
1778662005.3087108,2139,0,9
1778662005.3088682,2173,0,9
1778662005.3119302,2028,0,9
1778662005.3141918,2133,0,9
1778662005.322121,2479,0,9
1778662005.322499,2338,0,9
1778662005.322805,1737,0,9
1778662005.323234,1663,0,9
1778662005.3236039,1976,0,9
1778662005.326303,2045,0,9
1778662005.326599,2036,0,9
1778662005.329225,2079,0,9
1778662005.3305862,2495,0,9
1778662005.33786,1916,0,9
1778662005.338549,1771,0,9
1778662005.3393111,1671,0,9
1778662005.341964,1972,0,9
1778662005.342124,2042,0,9
1778662005.3464901,2143,0,9
1778662005.348375,2071,0,9
1778662005.3502479,1872,0,9
1778662005.3504791,1910,0,9
1778662005.3507898,2063,0,9
1778662005.355755,1994,0,9
1778662005.3559868,2115,0,9
1778662005.3583171,2104,0,9
1778662005.3591082,2004,0,9
1778662005.360458,2086,0,9
1778662005.3630972,2059,0,9
1778662005.364501,2189,0,9
1778662005.367203,2070,0,9
1778662005.36853,1862,0,9
1778662005.3710551,1838,0,9
1778662005.383337,2038,0,9
1778662005.3836968,2147,0,9
1778662005.386047,2119,0,9
1778662005.3869839,2003,0,9
1778662005.3895922,2069,0,9
1778662005.3946428,2148,0,9
1778662005.3949282,2175,0,9
1778662005.3951738,1863,0,9
1778662005.395336,1932,0,9
1778662005.395763,2154,0,9
1778662005.399014,2128,0,9
1778662005.3990998,1906,0,9
1778662005.399153,2022,0,9
1778662005.399202,2214,0,9
1778662005.400567,1964,0,9
1778662005.4032261,1705,0,9
1778662005.404743,1915,0,9
1778662005.41109,2123,0,9
1778662005.4145012,2136,0,9
1778662005.414762,2086,0,9
1778662005.414916,2222,0,9
1778662005.415091,2205,0,9
1778662005.417891,2116,0,9
1778662005.427309,1886,0,9
1778662005.427728,1715,0,9
1778662005.4280992,2109,0,9
1778662005.428666,2180,0,9
1778662005.4289122,2188,0,9
1778662005.429194,1910,0,9
1778662005.431301,2138,0,9
1778662005.432678,2246,0,9
1778662005.4352891,1919,0,9
1778662005.436686,1777,0,9
1778662005.439358,2055,0,9
1778662005.440733,2196,0,9
1778662005.44339,2078,0,9
1778662005.450612,1927,0,9
1778662005.451172,1986,0,9
1778662005.453135,2193,0,9
1778662005.453491,1959,0,9
1778662005.453639,1887,0,9
1778662005.455443,2071,0,9
1778662005.4570081,2029,0,9
1778662005.4598389,1990,0,9
1778662005.4636009,2023,0,9
1778662005.4638221,2085,0,9
1778662005.466114,2114,0,9
1778662005.466636,2023,0,9
1778662005.469237,1667,0,9
1778662005.470651,1662,0,9
1778662005.477886,2022,0,9
1778662005.480764,2124,0,9
1778662005.484254,2112,0,9
1778662005.485213,2066,0,9
1778662005.491898,2166,0,9
1778662005.4923599,1986,0,9
1778662005.492724,1851,0,9
1778662005.493375,1947,0,9
1778662005.495871,1943,0,9
1778662005.495946,1976,0,9
1778662005.496004,2033,0,9
1778662005.496072,1953,0,9
1778662005.497424,2065,0,9
1778662005.498796,2114,0,9
1778662005.501455,1937,0,9
1778662005.5028548,1811,0,9
1778662005.5056791,2125,0,9
1778662005.507086,2106,0,9
1778662005.5138948,1897,0,9
1778662005.5166929,1822,0,9
1778662005.520394,1955,0,9
1778662005.523938,2105,0,9
1778662005.527974,2057,0,9
1778662005.528268,1738,0,9
1778662005.5285811,1737,0,9
1778662005.5288908,1893,0,9
1778662005.52926,2051,0,9
1778662005.531935,2133,0,9
1778662005.532081,2059,0,9
1778662005.53217,2151,0,9
1778662005.5322309,2036,0,9
1778662005.534865,1872,0,9
1778662005.536292,1666,0,9
1778662005.542636,1933,0,9
1778662005.54516,2063,0,9
1778662005.545516,2094,0,9
1778662005.5486321,2037,0,9
1778662005.5501819,2056,0,9
1778662005.551389,2160,0,9
1778662005.5534358,2082,0,9
1778662005.557343,1677,0,9
1778662005.5576918,1699,0,9
1778662005.558101,2037,0,9
1778662005.558601,2076,0,9
1778662005.5609448,1996,0,9
1778662005.562359,2034,0,9
1778662005.565312,2104,0,9
1778662005.566793,2010,0,9
1778662005.568182,1900,0,9
1778662005.570934,1911,0,9
1778662005.5783439,2094,0,9
1778662005.579009,2185,0,9
1778662005.581401,1987,0,9
1778662005.584673,1778,0,9
1778662005.585911,2062,0,9
1778662005.589442,2108,0,9
1778662005.5932028,1968,0,9
1778662005.59357,1690,0,9
1778662005.593921,1923,0,9
1778662005.597271,2079,0,9
1778662005.5974212,2089,0,9
1778662005.5974998,2001,0,9
1778662005.597548,2063,0,9
1778662005.599037,2116,0,9
1778662005.6006532,1927,0,9
1778662005.6093829,1723,0,9
1778662005.609963,1940,0,9
1778662005.612614,2038,0,9
1778662005.6137118,2100,0,9
1778662005.615187,2107,0,9
1778662005.615394,2043,0,9
1778662005.6177018,2178,0,9
1778662005.6213791,2074,0,9
1778662005.621826,1812,0,9
1778662005.6241841,1762,0,9
1778662005.624541,2030,0,9
1778662005.6246378,2129,0,9
1778662005.627372,1936,0,9
1778662005.628766,1761,0,9
1778662005.630275,1773,0,9
1778662005.632917,1913,0,9
1778662005.634186,1749,0,9
1778662005.6413271,1492,0,9
1778662005.642553,1642,0,9
1778662005.643206,1841,0,9
1778662005.644902,1896,0,9
1778662005.64518,1805,0,9
1778662005.647485,1955,0,9
1778662005.6490712,2003,0,9
1778662005.651455,1773,0,9
1778662005.654917,1760,0,9
1778662005.6553228,1687,0,9
1778662005.657761,1824,0,9
1778662005.659064,1826,0,9
1778662005.660375,1825,0,9
1778662005.666948,1889,0,9
1778662005.668376,2046,0,9
1778662005.669518,2011,0,9
1778662005.671208,1906,0,9
1778662005.671472,1629,0,9
1778662005.674158,1888,0,9
1778662005.675126,2025,0,9
1778662005.677876,1930,0,9
1778662005.681074,2066,0,9
1778662005.681204,2082,0,9
1778662005.683733,1891,0,9
1778662005.685034,1895,0,9
1778662005.686625,1621,0,9
1778662005.689196,1878,0,9
1778662005.690495,2032,0,9
1778662005.693054,2114,0,9
1778662005.694381,1985,0,9
1778662005.699796,1978,0,9
1778662005.700852,2022,0,9
1778662005.701828,1884,0,9
1778662005.705612,1850,0,9
1778662005.706217,1938,0,9
1778662005.707137,2045,0,9
1778662005.7103739,2034,0,9
1778662005.710567,2016,0,9
1778662005.713826,1988,0,9
1778662005.715838,2116,0,9
1778662005.717547,2207,0,9
1778662005.718961,1866,0,9
1778662005.720309,1792,0,9
1778662005.726593,1963,0,9
1778662005.727325,2098,0,9
1778662005.727812,2135,0,9
1778662005.7296581,1918,0,9
1778662005.731076,2061,0,9
1778662005.7331321,2122,0,9
1778662005.739159,1813,0,9
1778662005.73953,1696,0,9
1778662005.7397141,1906,0,9
1778662005.741996,2056,0,9
1778662005.743314,2127,0,9
1778662005.744704,1994,0,9
1778662005.746113,1982,0,9
1778662005.748715,2224,0,9
1778662005.750114,2160,0,9
1778662005.752795,1919,0,9
1778662005.758759,1722,0,9
1778662005.759327,2043,0,9
1778662005.759982,2159,0,9
1778662005.7624252,2084,0,9
1778662005.762733,1962,0,9
1778662005.765197,2101,0,9
1778662005.766905,2043,0,9
1778662005.7723892,1859,0,9
1778662005.772589,1800,0,9
1778662005.772745,2035,0,9
1778662005.7751539,2065,0,9
1778662005.7765172,2030,0,9
1778662005.779093,1948,0,9
1778662005.78503,2268,0,9
1778662005.7868202,2037,0,9
1778662005.788468,1804,0,9
1778662005.788615,1746,0,9
1778662005.7903302,2069,0,9
1778662005.7916548,2089,0,9
1778662005.793385,2153,0,9
1778662005.795686,1925,0,9
1778662005.799159,2062,0,9
1778662005.799556,2195,0,9
1778662005.802088,1968,0,9
1778662005.8022232,1837,0,9
1778662005.8048158,1903,0,9
1778662005.806129,2045,0,9
1778662005.8086941,2113,0,9
1778662005.81003,2015,0,9
1778662005.812741,2058,0,9
1778662005.822817,2142,0,9
1778662005.825068,2111,0,9
1778662005.8256152,1930,0,9
1778662005.826715,1701,0,9
1778662005.8278651,2000,0,9
1778662005.828479,2100,0,9
1778662005.830816,2187,0,9
1778662005.831085,1945,0,9
1778662005.8341582,2028,0,9
1778662005.8344262,1999,0,9
1778662005.8347058,1936,0,9
1778662005.837318,1788,0,9
1778662005.8386712,1993,0,9
1778662005.8400269,2055,0,9
1778662005.848195,2124,0,9
1778662005.849299,2059,0,9
1778662005.851434,2228,0,9
1778662005.8517098,2127,0,9
1778662005.854327,1925,0,9
1778662005.857446,1807,0,9
1778662005.859366,1859,0,9
1778662005.859585,2009,0,9
1778662005.862761,2077,0,9
1778662005.863132,2111,0,9
1778662005.863467,2028,0,9
1778662005.86593,2072,0,9
1778662005.866328,1946,0,9
1778662005.868762,1925,0,9
1778662005.8711429,1873,0,9
1778662005.872519,2053,0,9
1778662005.8751638,2069,0,9
1778662005.8765671,2098,0,9
1778662005.883082,1966,0,9
1778662005.884084,2209,0,9
1778662005.888625,2241,0,9
1778662005.889334,1948,0,9
1778662005.89309,1768,0,9
1778662005.896066,2028,0,9
1778662005.89643,2020,0,9
1778662005.896949,2041,0,9
1778662005.8993468,1903,0,9
1778662005.8996422,1982,0,9
1778662005.899769,2249,0,9
1778662005.901181,2121,0,9
1778662005.9025211,1907,0,9
1778662005.909816,1830,0,9
1778662005.91041,1980,0,9
1778662005.911909,2086,0,9
1778662005.91358,1954,0,9
1778662005.9139771,2111,0,9
1778662005.91604,2111,0,9
1778662005.917025,1914,0,9
1778662005.918627,1873,0,9
1778662005.923425,1865,0,9
1778662005.923787,2076,0,9
1778662005.926233,2132,0,9
1778662005.926486,2135,0,9
1778662005.929169,2008,0,9
1778662005.9305868,2074,0,9
1778662005.933263,2127,0,9
1778662005.9344661,1956,0,9
1778662005.93604,1796,0,9
1778662005.9431129,1979,0,9
1778662005.9445481,2060,0,9
1778662005.9463098,2119,0,9
1778662005.9490361,2028,0,9
1778662005.9497979,2122,0,9
1778662005.9508631,2239,0,9
1778662005.951482,2096,0,9
1778662005.9536262,1865,0,9
1778662005.956597,1779,0,9
1778662005.957109,2017,0,9
1778662005.959701,1992,0,9
1778662005.961063,2022,0,9
1778662005.9624588,2079,0,9
1778662005.971423,2067,0,9
1778662005.973272,1998,0,9
1778662005.975446,1892,0,9
1778662005.977035,1802,0,9
1778662005.978119,2074,0,9
1778662005.9791172,2148,0,9
1778662005.9809659,2122,0,9
1778662005.983937,1950,0,9
1778662005.984373,2069,0,9
1778662005.984598,2104,0,9
1778662005.985135,2038,0,9
1778662005.988214,1773,0,9
1778662005.988278,1971,0,9
1778662005.9909382,2198,0,9
1778662005.992338,2252,0,9
1778662005.995012,2032,0,9
1778662005.996351,1878,0,9
1778662006.005663,2094,0,9
1778662006.0115929,2076,0,9
1778662006.01877,1828,0,9
1778662006.019239,1800,0,9
1778662006.0193331,2043,0,9
1778662006.0194,2117,0,9
1778662006.01947,2063,0,9
1778662006.01952,2037,0,9
1778662006.019567,2207,0,9
1778662006.019754,2190,0,9
1778662006.019864,1854,0,9
1778662006.021019,1838,0,9
1778662006.0223732,2071,0,9
1778662006.025131,2108,0,9
1778662006.033303,2079,0,9
1778662006.033762,2025,0,9
1778662006.037248,2064,0,9
1778662006.0488698,2110,0,9
1778662006.048987,2003,0,9
1778662006.0491679,1806,0,9
1778662006.049341,1948,0,9
1778662006.049665,2071,0,9
1778662006.04981,2107,0,9
1778662006.049876,2029,0,9
1778662006.049942,2017,0,9
1778662006.049977,2181,0,9
1778662006.050007,2076,0,9
1778662006.052686,1969,0,9
1778662006.054066,1916,0,9
1778662006.056706,2022,0,9
1778662006.058075,1982,0,9
1778662006.0685399,1954,0,9
1778662006.068871,2206,0,9
1778662006.0829198,2172,0,9
1778662006.0830069,2020,0,9
1778662006.08306,1842,0,9
1778662006.0831091,1714,0,9
1778662006.083157,1949,0,9
1778662006.0832052,2287,0,9
1778662006.083253,2202,0,9
1778662006.08387,1947,0,9
1778662006.085631,2136,0,9
1778662006.085696,2154,0,9
1778662006.085869,1861,0,9
1778662006.0859451,1725,0,9
1778662006.094381,2232,0,9
1778662006.109493,2082,0,9
1778662006.109591,1631,0,9
1778662006.1096451,2137,0,9
1778662006.109694,2144,0,9
1778662006.109823,1827,0,9
1778662006.109938,2115,0,9
1778662006.109992,2031,0,9
1778662006.1100411,2187,0,9
1778662006.110262,2195,0,9
1778662006.1103208,1369,0,9
1778662006.110371,2043,0,9
1778662006.1119401,2306,0,9
1778662006.11424,2689,0,9
1778662006.115916,1946,0,9
1778662006.121509,1408,0,9
1778662006.121592,1544,0,9
1778662006.143357,1907,0,9
1778662006.1471329,2297,0,9
1778662006.1472309,2259,0,9
1778662006.147431,1319,0,9
1778662006.1475048,2528,0,9
1778662006.147558,2193,0,9
1778662006.1476061,2136,0,9
1778662006.1615648,1693,0,9
1778662006.164426,1980,0,9
1778662006.1646998,2256,0,9
1778662006.166511,2330,0,9
1778662006.1680262,1714,0,9
1778662006.168463,1873,0,9
1778662006.172535,2185,0,9
1778662006.175292,2260,0,9
1778662006.175474,1456,0,9
1778662006.175819,1919,0,9
1778662006.176458,2318,0,9
1778662006.1787462,2103,0,9
1778662006.1793642,1970,0,9
1778662006.17951,2209,0,9
1778662006.179552,2239,0,9
1778662006.179586,1961,0,9
1778662006.1796181,1979,0,9
1778662006.179651,1774,0,9
1778662006.179681,1958,0,9
1778662006.179848,2125,0,9
1778662006.179927,2048,0,9
1778662006.180001,1958,0,9
1778662006.180033,2032,0,9
1778662006.182605,2180,0,9
1778662006.183996,1946,0,9
1778662006.186626,1601,0,9
1778662006.187954,1908,0,9
1778662006.19034,2084,0,9
1778662006.201657,2216,0,9
1778662006.202847,2156,0,9
1778662006.2036438,2157,0,9
1778662006.210418,2357,0,9
1778662006.211034,1624,0,9
1778662006.2129521,1438,0,9
1778662006.213639,1944,0,9
1778662006.213717,2366,0,9
1778662006.21377,2373,0,9
1778662006.213828,1718,0,9
1778662006.213878,1877,0,9
1778662006.213927,2738,0,9
1778662006.2166731,1863,0,9
1778662006.2180648,2094,0,9
1778662006.235861,1857,0,9
1778662006.237969,1822,0,9
1778662006.239392,2411,0,9
1778662006.239469,1933,0,9
1778662006.239522,2199,0,9
1778662006.2395809,1967,0,9
1778662006.239649,1835,0,9
1778662006.2397199,2258,0,9
1778662006.23979,2109,0,9
1778662006.239826,2164,0,9
1778662006.2399201,2441,0,9
1778662006.242576,749,0,9
1778662006.243922,2328,0,9
1778662006.246655,2978,0,9
1778662006.2480168,1877,0,9
1778662006.250658,1607,0,9
1778662006.258123,2290,0,9
1778662006.260309,2196,0,9
1778662006.260781,2074,0,9
1778662006.263296,2479,0,9
1778662006.264458,1654,0,9
1778662006.265549,1592,0,9
1778662006.265791,2472,0,9
1778662006.26687,2466,0,9
1778662006.271863,2055,0,9
1778662006.272331,2028,0,9
1778662006.272646,1616,0,9
1778662006.2750988,2366,0,9
1778662006.276441,2393,0,9
1778662006.279071,2078,0,9
1778662006.286913,1926,0,9
1778662006.288726,2038,0,9
1778662006.291548,2193,0,9
1778662006.293178,2405,0,9
1778662006.293717,1412,0,9
1778662006.294858,1264,0,9
1778662006.296816,2685,0,9
1778662006.299941,2591,0,9
1778662006.3002958,2440,0,9
1778662006.3004968,2014,0,9
1778662006.300787,2391,0,9
1778662006.3034382,2088,0,9
1778662006.304818,1024,0,9
1778662006.306574,2427,0,9
1778662006.307926,2418,0,9
1778662006.3105621,2482,0,9
1778662006.311894,1266,0,9
1778662006.322078,2027,0,9
1778662006.324436,2336,0,9
1778662006.324692,2120,0,9
1778662006.324888,1951,0,9
1778662006.327224,1806,0,9
1778662006.328614,2386,0,9
1778662006.330462,2343,0,9
1778662006.335383,1995,0,9
1778662006.336075,2140,0,9
1778662006.338867,2560,0,9
1778662006.339023,2143,0,9
1778662006.339124,894,0,9
1778662006.33919,2659,0,9
1778662006.340524,1943,0,9
1778662006.341863,2167,0,9
1778662006.350378,1995,0,9
1778662006.35103,2522,0,9
1778662006.355214,2105,0,9
1778662006.3567328,1679,0,9
1778662006.3573382,1827,0,9
1778662006.358349,2528,0,9
1778662006.36342,1724,0,9
1778662006.363868,2467,0,9
1778662006.364289,2041,0,9
1778662006.364619,1951,0,9
1778662006.366606,2159,0,9
1778662006.366753,2086,0,9
1778662006.368109,2171,0,9
1778662006.37085,1765,0,9
1778662006.372239,2176,0,9
1778662006.374964,1996,0,9
1778662006.376389,1575,0,9
1778662006.3777988,2367,0,9
1778662006.385956,2532,0,9
1778662006.387855,1744,0,9
1778662006.391092,2222,0,9
1778662006.391894,1616,0,9
1778662006.3927839,2961,0,9
1778662006.394538,1789,0,9
1778662006.396554,1336,0,9
1778662006.400079,2414,0,9
1778662006.400661,2336,0,9
1778662006.403347,2093,0,9
1778662006.403786,2185,0,9
1778662006.403847,1896,0,9
1778662006.404036,1984,0,9
1778662006.406649,2272,0,9
1778662006.408013,2554,0,9
1778662006.414918,1877,0,9
1778662006.415699,980,0,9
1778662006.418407,3327,0,9
1778662006.420941,1393,0,9
1778662006.422078,1688,0,9
1778662006.422634,2949,0,9
1778662006.423251,1723,0,9
1778662006.431495,1581,0,9
1778662006.432412,2487,0,9
1778662006.432492,2382,0,9
1778662006.432671,2301,0,9
1778662006.432768,2210,0,9
1778662006.4341278,1824,0,9
1778662006.437263,1358,0,9
1778662006.4386601,2156,0,9
1778662006.439989,2153,0,9
1778662006.442642,2086,0,9
1778662006.444003,2406,0,9
1778662006.451338,1578,0,9
1778662006.451942,2394,0,9
1778662006.456769,2334,0,9
1778662006.457514,1860,0,9
1778662006.459278,1367,0,9
1778662006.4616792,2532,0,9
1778662006.46545,2268,0,9
1778662006.466111,2025,0,9
1778662006.468414,2012,0,9
1778662006.468776,2265,0,9
1778662006.468841,2466,0,9
1778662006.468908,2152,0,9
1778662006.470303,1770,0,9
1778662006.4729111,946,0,9
1778662006.474475,2766,0,9
1778662006.482923,2367,0,9
1778662006.486038,2010,0,9
1778662006.490164,2433,0,9
1778662006.490516,2192,0,9
1778662006.494111,2525,0,9
1778662006.494442,1566,0,9
1778662006.495056,1918,0,9
1778662006.4976482,2137,0,9
1778662006.497771,1607,0,9
1778662006.497805,2206,0,9
1778662006.497835,2705,0,9
1778662006.49789,1241,0,9
1778662006.500566,2134,0,9
1778662006.501914,2211,0,9
1778662006.504571,2238,0,9
1778662006.506024,2278,0,9
1778662006.508739,2148,0,9
1778662006.515726,1494,0,9
1778662006.516808,1550,0,9
1778662006.517319,2718,0,9
1778662006.5192142,3102,0,9
1778662006.521638,1443,0,9
1778662006.523065,1832,0,9
1778662006.5232399,2343,0,9
1778662006.524906,1007,0,9
1778662006.526695,2233,0,9
1778662006.530367,2686,0,9
1778662006.530462,1988,0,9
1778662006.5329542,2188,0,9
1778662006.534266,2359,0,9
1778662006.537407,1456,0,9
1778662006.538003,2093,0,9
1778662006.551836,2625,0,9
1778662006.55525,2042,0,9
1778662006.5557241,600,0,9
1778662006.5560188,2830,0,9
1778662006.556331,2718,0,9
1778662006.558101,2344,0,9
1778662006.558553,1402,0,9
1778662006.5587368,1400,0,9
1778662006.558835,2440,0,9
1778662006.558932,2756,0,9
1778662006.560369,2091,0,9
1778662006.561785,2415,0,9
1778662006.564518,1989,0,9
1778662006.565857,1144,0,9
1778662006.5685399,1599,0,9
1778662006.570003,1936,0,9
1778662006.575517,2266,0,9
1778662006.5761468,2285,0,9
1778662006.578372,2558,0,9
1778662006.580319,1810,0,9
1778662006.5817652,1991,0,9
1778662006.5822191,2072,0,9
1778662006.584702,2329,0,9
1778662006.588216,1483,0,9
1778662006.588414,1870,0,9
1778662006.5906932,2296,0,9
1778662006.592127,2021,0,9
1778662006.5947928,2093,0,9
1778662006.5961878,2297,0,9
1778662006.60353,2435,0,9
1778662006.6036968,2184,0,9
1778662006.605162,1779,0,9
1778662006.60607,2004,0,9
1778662006.606171,2241,0,9
1778662006.613014,2614,0,9
1778662006.613378,2207,0,9
1778662006.613537,1900,0,9
1778662006.615894,2501,0,9
1778662006.6159859,1677,0,9
1778662006.6187131,1714,0,9
1778662006.620127,1847,0,9
1778662006.622595,2105,0,9
1778662006.623893,1790,0,9
1778662006.630643,2400,0,9
1778662006.630786,2325,0,9
1778662006.631225,1511,0,9
1778662006.6336331,2057,0,9
1778662006.637493,2797,0,9
1778662006.638359,2697,0,9
1778662006.638432,1678,0,9
1778662006.643593,1929,0,9
1778662006.643958,1963,0,9
1778662006.644222,1696,0,9
1778662006.6475148,2133,0,9
1778662006.648854,2392,0,9
1778662006.650193,2319,0,9
1778662006.6576838,1714,0,9
1778662006.657826,1986,0,9
1778662006.659578,2297,0,9
1778662006.6597471,2597,0,9
1778662006.659862,1725,0,9
1778662006.6635919,1995,0,9
1778662006.665366,2362,0,9
1778662006.66878,2369,0,9
1778662006.669218,2131,0,9
1778662006.671425,1565,0,9
1778662006.672729,1597,0,9
1778662006.674027,2452,0,9
1778662006.676915,2519,0,9
1778662006.678321,1983,0,9
1778662006.680907,2197,0,9
1778662006.6822689,1759,0,9
1778662006.688173,2328,0,9
1778662006.68917,1569,0,9
1778662006.6906629,1611,0,9
1778662006.6908438,2569,0,9
1778662006.6930199,1907,0,9
1778662006.6969469,2249,0,9
1778662006.697082,1530,0,9
1778662006.7008379,2315,0,9
1778662006.701251,2187,0,9
1778662006.703275,1878,0,9
1778662006.7045,1137,0,9
1778662006.705795,2304,0,9
1778662006.7117078,1997,0,9
1778662006.712517,1932,0,9
1778662006.713429,2397,0,9
1778662006.715051,2704,0,9
1778662006.71733,406,0,9
1778662006.72034,2528,0,9
1778662006.7237382,1956,0,9
1778662006.7240052,1863,0,9
1778662006.724128,2078,0,9
1778662006.726241,1693,0,9
1778662006.728776,1725,0,9
1778662006.730071,2173,0,9
1778662006.732618,2024,0,9
1778662006.733902,1840,0,9
1778662006.741059,2114,0,9
1778662006.7423842,1795,0,9
1778662006.7461,2272,0,9
1778662006.7472289,1800,0,9
1778662006.748112,1896,0,9
1778662006.748563,2061,0,9
1778662006.749974,2601,0,9
1778662006.7501209,2452,0,9
1778662006.755717,1060,0,9
1778662006.756136,1954,0,9
1778662006.7562518,1686,0,9
1778662006.758858,2177,0,9
1778662006.760273,1664,0,9
1778662006.764829,2353,0,9
1778662006.7657442,2264,0,9
1778662006.765835,2323,0,9
1778662006.768214,2062,0,9
1778662006.771314,1865,0,9
1778662006.77381,2270,0,9
1778662006.777289,2143,0,9
1778662006.777455,1865,0,9
1778662006.779791,2115,0,9
1778662006.77986,2405,0,9
1778662006.7824361,1913,0,9
1778662006.783736,1806,0,9
1778662006.786849,2137,0,9
1778662006.788144,1668,0,9
1778662006.7907908,1896,0,9
1778662006.795203,2389,0,9
1778662006.795316,2050,0,9
1778662006.7966678,1647,0,9
1778662006.798055,2308,0,9
1778662006.8011289,2152,0,9
1778662006.806526,1909,0,9
1778662006.80722,1329,0,9
1778662006.808905,2348,0,9
1778662006.80953,2639,0,9
1778662006.8109992,2181,0,9
1778662006.812321,2254,0,9
1778662006.819045,2215,0,9
1778662006.824182,2311,0,9
1778662006.8245819,1996,0,9
1778662006.82499,1452,0,9
1778662006.826386,2110,0,9
1778662006.8265011,2239,0,9
1778662006.830225,2168,0,9
1778662006.830663,1537,0,9
1778662006.83217,2129,0,9
1778662006.8327758,2413,0,9
1778662006.834075,2077,0,9
1778662006.836844,1841,0,9
1778662006.838172,1961,0,9
1778662006.840804,2011,0,9
1778662006.8421,2191,0,9
1778662006.847834,2313,0,9
1778662006.848275,1839,0,9
1778662006.848822,1767,0,9
1778662006.852903,2574,0,9
1778662006.853777,1667,0,9
1778662006.855595,2084,0,9
1778662006.859147,2486,0,9
1778662006.859259,1212,0,9
1778662006.8610492,2121,0,9
1778662006.8622,2469,0,9
1778662006.8647501,2204,0,9
1778662006.870322,2172,0,9
1778662006.87221,1995,0,9
1778662006.8723671,1667,0,9
1778662006.87248,2096,0,9
1778662006.874388,2412,0,9
1778662006.877739,1726,0,9
1778662006.881349,2205,0,9
1778662006.8820071,2147,0,9
1778662006.883604,2216,0,9
1778662006.884078,2193,0,9
1778662006.8866858,1610,0,9
1778662006.887861,1790,0,9
1778662006.8904169,2646,0,9
1778662006.891705,2019,0,9
1778662006.897824,1590,0,9
1778662006.8986728,2474,0,9
1778662006.899141,1307,0,9
1778662006.901022,2117,0,9
1778662006.903907,2478,0,9
1778662006.9040241,2212,0,9
1778662006.906703,1982,0,9
1778662006.910329,1931,0,9
1778662006.9105642,2273,0,9
1778662006.912215,2290,0,9
1778662006.914778,2336,0,9
1778662006.916128,1909,0,9
1778662006.921545,1623,0,9
1778662006.922394,1845,0,9
1778662006.922838,1866,0,9
1778662006.92591,2026,0,9
1778662006.926347,2235,0,9
1778662006.929278,2183,0,9
1778662006.933032,2147,0,9
1778662006.933228,1978,0,9
1778662006.9351768,2134,0,9
1778662006.936529,1909,0,9
1778662006.937921,1679,0,9
1778662006.940484,1884,0,9
1778662006.941785,2161,0,9
1778662006.944404,2286,0,9
1778662006.9491022,2147,0,9
1778662006.9495249,2146,0,9
1778662006.9500039,2201,0,9
1778662006.9534998,1792,0,9
1778662006.953929,1805,0,9
1778662006.957309,1766,0,9
1778662006.961055,2139,0,9
1778662006.9611478,2212,0,9
1778662006.962856,1958,0,9
1778662006.96416,2179,0,9
1778662006.966799,2238,0,9
1778662006.971405,1986,0,9
1778662006.971833,1844,0,9
1778662006.972251,1989,0,9
1778662006.974039,2300,0,9
1778662006.977522,2243,0,9
1778662006.9789839,1543,0,9
1778662006.982396,1584,0,9
1778662006.9826949,2729,0,9
1778662006.9843059,2270,0,9
1778662006.9857259,1599,0,9
1778662006.988333,1921,0,9
1778662006.989723,1884,0,9
1778662006.9922729,2303,0,9
1778662006.99366,2135,0,9
1778662006.99777,2015,0,9
1778662006.998158,2173,0,9
1778662006.999991,2301,0,9
1778662007.003658,1495,0,9
1778662007.005182,1830,0,9
1778662007.008644,2331,0,9
1778662007.008744,2327,0,9
1778662007.01037,1960,0,9
1778662007.01178,1772,0,9
1778662007.014406,2136,0,9
1778662007.018442,2365,0,9
1778662007.018871,2293,0,9
1778662007.020917,1727,0,9
1778662007.022464,1632,0,9
1778662007.024755,2218,0,9
1778662007.029463,2213,0,9
1778662007.029946,1676,0,9
1778662007.0300128,2311,0,9
1778662007.032655,2490,0,9
1778662007.0339499,2143,0,9
1778662007.036623,1070,0,9
1778662007.0377128,1956,0,9
1778662007.0402691,2395,0,9
1778662007.0458088,2609,0,9
1778662007.045897,2281,0,9
1778662007.0459971,2007,0,9
1778662007.047772,2145,0,9
1778662007.050972,1971,0,9
1778662007.056227,2154,0,9
1778662007.05653,1747,0,9
1778662007.056606,2263,0,9
1778662007.058079,2192,0,9
1778662007.0606358,1640,0,9
1778662007.0621881,2012,0,9
1778662007.067014,1889,0,9
1778662007.067402,2347,0,9
1778662007.0689092,2239,0,9
1778662007.071143,1754,0,9
1778662007.073816,1979,0,9
1778662007.073942,2219,0,9
1778662007.0775301,2308,0,9
1778662007.077631,984,0,9
1778662007.080835,2560,0,9
1778662007.082131,2522,0,9
1778662007.084681,2022,0,9
1778662007.0859761,1895,0,9
1778662007.088552,1960,0,9
1778662007.092847,1828,0,9
1778662007.092889,2232,0,9
1778662007.095229,2274,0,9
1778662007.09677,2082,0,9
1778662007.098615,2183,0,9
1778662007.100348,1905,0,9
1778662007.1040199,1926,0,9
1778662007.1042821,1908,0,9
1778662007.105844,2002,0,9
1778662007.108403,2130,0,9
1778662007.109694,2378,0,9
1778662007.1142101,1785,0,9
1778662007.1148548,1768,0,9
1778662007.1163452,2358,0,9
1778662007.117756,2129,0,9
1778662007.121252,1870,0,9
1778662007.124804,2021,0,9
1778662007.124956,1955,0,9
1778662007.12656,2425,0,9
1778662007.127852,1629,0,9
1778662007.1304,1676,0,9
1778662007.131885,2421,0,9
1778662007.134491,2129,0,9
1778662007.1357949,1962,0,9
1778662007.140782,1761,0,9
1778662007.1408908,2081,0,9
1778662007.142943,2195,0,9
1778662007.1446779,2148,0,9
1778662007.146504,2046,0,9
1778662007.151237,2338,0,9
1778662007.151493,2140,0,9
1778662007.151662,1549,0,9
1778662007.1545541,1968,0,9
1778662007.155852,2031,0,9
1778662007.1616929,1997,0,9
1778662007.162128,2146,0,9
1778662007.162836,2064,0,9
1778662007.1656241,2145,0,9
1778662007.166067,2338,0,9
1778662007.172247,1816,0,9
1778662007.17238,1847,0,9
1778662007.1724758,1915,0,9
1778662007.17452,2104,0,9
1778662007.175822,2010,0,9
1778662007.178448,2028,0,9
1778662007.179734,2046,0,9
1778662007.1822772,2086,0,9
1778662007.187861,2153,0,9
1778662007.1882792,1875,0,9
1778662007.1894479,1806,0,9
1778662007.190785,1833,0,9
1778662007.1928298,2201,0,9
1778662007.197304,2215,0,9
1778662007.1976352,1727,0,9
1778662007.197814,2352,0,9
1778662007.2004669,2163,0,9
1778662007.201764,1878,0,9
1778662007.206889,1653,0,9
1778662007.207274,1945,0,9
1778662007.209234,2044,0,9
1778662007.210881,2142,0,9
1778662007.2122838,1929,0,9
1778662007.2139149,2038,0,9
1778662007.217302,2428,0,9
1778662007.219614,1655,0,9
1778662007.2198741,1230,0,9
1778662007.222443,2015,0,9
1778662007.223736,2165,0,9
1778662007.226279,2128,0,9
1778662007.227563,2059,0,9
1778662007.2317839,2122,0,9
1778662007.232158,2210,0,9
1778662007.234234,2135,0,9
1778662007.237141,1802,0,9
1778662007.23904,1867,0,9
1778662007.242514,2010,0,9
1778662007.242704,2048,0,9
1778662007.244128,1951,0,9
1778662007.246688,1940,0,9
1778662007.247979,2120,0,9
1778662007.251717,2101,0,9
1778662007.253425,1929,0,9
1778662007.254585,1769,0,9
1778662007.2560298,1970,0,9
1778662007.258187,2049,0,9
1778662007.259613,2084,0,9
1778662007.265016,1980,0,9
1778662007.265044,2045,0,9
1778662007.266332,2078,0,9
1778662007.267643,1940,0,9
1778662007.270326,1764,0,9
1778662007.2716238,1851,0,9
1778662007.2772028,2014,0,9
1778662007.27792,2085,0,9
1778662007.278293,1955,0,9
1778662007.279756,1978,0,9
1778662007.282905,2214,0,9
1778662007.284418,2138,0,9
1778662007.2878091,1771,0,9
1778662007.287937,1724,0,9
1778662007.2899232,2106,0,9
1778662007.292469,2089,0,9
1778662007.29383,1963,0,9
1778662007.297279,1897,0,9
1778662007.299378,2067,0,9
1778662007.301515,1997,0,9
1778662007.302526,1887,0,9
1778662007.3043141,1784,0,9
1778662007.307754,1981,0,9
1778662007.30805,1980,0,9
1778662007.3106382,1989,0,9
1778662007.311928,1896,0,9
1778662007.3144698,1994,0,9
1778662007.315755,2071,0,9
1778662007.318541,1912,0,9
1778662007.321991,1744,0,9
1778662007.322019,1860,0,9
1778662007.335656,2111,0,9
1778662007.335685,2313,0,9
1778662007.3357089,2121,0,9
1778662007.335733,2137,0,9
1778662007.335755,2354,0,9
1778662007.336263,2206,0,9
1778662007.336287,2043,0,9
1778662007.337901,2021,0,9
1778662007.342504,2201,0,9
1778662007.34253,2267,0,9
1778662007.347967,2321,0,9
1778662007.347996,2152,0,9
1778662007.348021,2350,0,9
1778662007.373803,2303,0,9
1778662007.376207,2125,0,9
1778662007.376628,2005,0,9
1778662007.3777611,2236,0,9
1778662007.377825,2231,0,9
1778662007.3782442,2261,0,9
1778662007.382935,2164,0,9
1778662007.3855171,2328,0,9
1778662007.3856692,2357,0,9
1778662007.3865228,2105,0,9
1778662007.386606,1740,0,9
1778662007.386765,1895,0,9
1778662007.386941,2144,0,9
1778662007.386973,2215,0,9
1778662007.387106,2140,0,9
1778662007.387172,2195,0,9
1778662007.3872252,2286,0,9
1778662007.38728,2333,0,9
1778662007.3874938,2044,0,9
1778662007.38757,1960,0,9
1778662007.3901582,2131,0,9
1778662007.3925881,2215,0,9
1778662007.393884,2130,0,9
1778662007.398753,1890,0,9
1778662007.3992,2404,0,9
1778662007.4012642,2388,0,9
1778662007.404459,1920,0,9
1778662007.4055722,1771,0,9
1778662007.406942,2293,0,9
1778662007.410399,2354,0,9
1778662007.4125152,2312,0,9
1778662007.412714,2275,0,9
1778662007.414009,2105,0,9
1778662007.416624,2172,0,9
1778662007.420877,2022,0,9
1778662007.421729,1854,0,9
1778662007.422215,2031,0,9
1778662007.4236212,2131,0,9
1778662007.426985,2281,0,9
1778662007.4286022,2503,0,9
1778662007.431783,2241,0,9
1778662007.4320629,2020,0,9
1778662007.433816,2435,0,9
1778662007.436519,1662,0,9
1778662007.4377532,1922,0,9
1778662007.4403431,2330,0,9
1778662007.441636,2358,0,9
1778662007.446435,2166,0,9
1778662007.44687,1767,0,9
1778662007.449119,2317,0,9
1778662007.450496,2281,0,9
1778662007.4538481,2091,0,9
1778662007.4539819,2016,0,9
1778662007.457084,2160,0,9
1778662007.45898,2254,0,9
1778662007.460272,2225,0,9
1778662007.461557,2081,0,9
1778662007.464115,1863,0,9
1778662007.4666722,2055,0,9
1778662007.4715688,2193,0,9
1778662007.472337,2174,0,9
1778662007.4727411,2063,0,9
1778662007.4751308,2105,0,9
1778662007.477061,2042,0,9
1778662007.478623,2207,0,9
1778662007.48177,2226,0,9
1778662007.4818602,2330,0,9
1778662007.484682,1973,0,9
1778662007.486073,1884,0,9
1778662007.4886642,2188,0,9
1778662007.4899719,1909,0,9
1778662007.496586,2155,0,9
1778662007.497331,2169,0,9
1778662007.4977548,2140,0,9
1778662007.498869,2325,0,9
1778662007.500326,2148,0,9
1778662007.503677,1981,0,9
1778662007.5037692,1971,0,9
1778662007.506729,2068,0,9
1778662007.5083048,2106,0,9
1778662007.5096052,2089,0,9
1778662007.512149,2038,0,9
1778662007.5134442,2133,0,9
1778662007.515998,2246,0,9
1778662007.5212271,2106,0,9
1778662007.5216908,1990,0,9
1778662007.522082,1849,0,9
1778662007.523655,2041,0,9
1778662007.5265112,2198,0,9
1778662007.5282729,2075,0,9
1778662007.53125,2008,0,9
1778662007.532788,2280,0,9
1778662007.534097,2167,0,9
1778662007.535438,1921,0,9
1778662007.5379431,1860,0,9
1778662007.540493,2088,0,9
1778662007.5417972,2162,0,9
1778662007.545644,2214,0,9
1778662007.546089,2097,0,9
1778662007.548023,2027,0,9
1778662007.549762,2165,0,9
1778662007.555361,2005,0,9
1778662007.5554528,1912,0,9
1778662007.555605,1923,0,9
1778662007.5584168,2013,0,9
1778662007.559704,2222,0,9
1778662007.5622568,2068,0,9
1778662007.563544,2119,0,9
1778662007.5661,2121,0,9
1778662007.5712142,2048,0,9
1778662007.5713012,1932,0,9
1778662007.572466,1821,0,9
1778662007.574223,1952,0,9
1778662007.5759108,2053,0,9
1778662007.577492,2077,0,9
1778662007.5803032,2095,0,9
1778662007.582186,2130,0,9
1778662007.583479,2030,0,9
1778662007.586148,1892,0,9
1778662007.587596,1837,0,9
1778662007.590163,1963,0,9
1778662007.59461,2144,0,9
1778662007.5950139,1907,0,9
1778662007.597249,1822,0,9
1778662007.599024,2006,0,9
1778662007.600827,1932,0,9
1778662007.6047308,1753,0,9
1778662007.604856,1730,0,9
1778662007.606827,1963,0,9
1778662007.608125,1994,0,9
1778662007.609421,1635,0,9
1778662007.6118872,1831,0,9
1778662007.614358,1959,0,9
1778662007.615735,1942,0,9
1778662007.620329,1876,0,9
1778662007.62181,1661,0,9
1778662007.6220858,1768,0,9
1778662007.623473,1858,0,9
1778662007.626592,1976,0,9
1778662007.629262,2029,0,9
1778662007.630829,2065,0,9
1778662007.632127,2118,0,9
1778662007.6334279,2025,0,9
1778662007.6359859,1724,0,9
1778662007.638381,1901,0,9
1778662007.639679,1949,0,9
1778662007.644233,1934,0,9
1778662007.646354,2036,0,9
1778662007.646454,2049,0,9
1778662007.647914,2130,0,9
1778662007.650947,1967,0,9
1778662007.653643,1776,0,9
1778662007.653756,1726,0,9
1778662007.655821,1969,0,9
1778662007.658296,2052,0,9
1778662007.6595929,2105,0,9
1778662007.6621509,2076,0,9
1778662007.663439,2168,0,9
1778662007.6683588,2191,0,9
1778662007.670851,2028,0,9
1778662007.671019,1713,0,9
1778662007.672535,1748,0,9
1778662007.6745589,1985,0,9
1778662007.678346,2076,0,9
1778662007.6784692,1996,0,9
1778662007.680028,1993,0,9
1778662007.68141,2105,0,9
1778662007.683962,2042,0,9
1778662007.686652,1953,0,9
1778662007.687813,1805,0,9
1778662007.692859,2029,0,9
1778662007.6935868,2123,0,9
1778662007.693654,2086,0,9
1778662007.6955972,1987,0,9
1778662007.6989162,2067,0,9
1778662007.703223,2073,0,9
1778662007.7033432,1902,0,9
1778662007.703485,1898,0,9
1778662007.706066,2072,0,9
1778662007.7074182,1855,0,9
1778662007.709973,2091,0,9
1778662007.712523,1993,0,9
1778662007.716875,1975,0,9
1778662007.716944,2078,0,9
1778662007.72113,1893,0,9
1778662007.721916,1711,0,9
1778662007.7222831,1999,0,9
1778662007.7246358,2162,0,9
1778662007.727371,2104,0,9
1778662007.727602,1914,0,9
1778662007.730442,2075,0,9
1778662007.73173,2275,0,9
1778662007.734277,2133,0,9
1778662007.735559,1836,0,9
1778662007.7382882,1834,0,9
1778662007.741934,2056,0,9
1778662007.742006,2029,0,9
1778662007.744235,2062,0,9
1778662007.7463639,1932,0,9
1778662007.74915,2242,0,9
1778662007.751576,2185,0,9
1778662007.75185,1993,0,9
1778662007.75381,1775,0,9
1778662007.756403,1775,0,9
1778662007.757618,2038,0,9
1778662007.760114,2131,0,9
1778662007.761439,2173,0,9
1778662007.766328,2067,0,9
1778662007.766693,2084,0,9
1778662007.7688398,1928,0,9
1778662007.7702348,1832,0,9
1778662007.772197,1957,0,9
1778662007.773837,2086,0,9
1778662007.776313,2165,0,9
1778662007.777837,2063,0,9
1778662007.780384,1981,0,9
1778662007.7816682,2151,0,9
1778662007.7842329,2153,0,9
1778662007.785629,2035,0,9
1778662007.791786,1893,0,9
1778662007.7919009,1919,0,9
1778662007.793449,1916,0,9
1778662007.793582,2144,0,9
1778662007.79643,2048,0,9
1778662007.797919,2172,0,9
1778662007.800537,2238,0,9
1778662007.8026109,2084,0,9
1778662007.8039522,1625,0,9
1778662007.8065238,2035,0,9
1778662007.807824,2330,0,9
1778662007.8103669,1946,0,9
1778662007.8147898,1974,0,9
1778662007.815514,2102,0,9
1778662007.8159308,2129,0,9
1778662007.819654,1920,0,9
1778662007.820052,1896,0,9
1778662007.822208,1975,0,9
1778662007.8246999,2099,0,9
1778662007.8265972,2183,0,9
1778662007.827935,2136,0,9
1778662007.830486,2052,0,9
1778662007.831771,2146,0,9
1778662007.834317,2106,0,9
1778662007.8386502,1876,0,9
1778662007.839036,1831,0,9
1778662007.841176,2076,0,9
1778662007.842887,2136,0,9
1778662007.8446012,2147,0,9
1778662007.848057,2042,0,9
1778662007.848185,2183,0,9
1778662007.850059,2117,0,9
1778662007.8515,2047,0,9
1778662007.8540869,1767,0,9
1778662007.8553889,2000,0,9
1778662007.8579462,2170,0,9
1778662007.86358,2168,0,9
1778662007.86727,2042,0,9
1778662007.867392,2120,0,9
1778662007.867908,2159,0,9
1778662007.870628,1975,0,9
1778662007.873307,2011,0,9
1778662007.8736541,1891,0,9
1778662007.873962,1973,0,9
1778662007.877027,2272,0,9
1778662007.878446,2133,0,9
1778662007.8840399,1936,0,9
1778662007.886273,2058,0,9
1778662007.8865762,2167,0,9
1778662007.888341,1904,0,9
1778662007.8892338,1774,0,9
1778662007.892107,2061,0,9
1778662007.8945038,2106,0,9
1778662007.894971,2176,0,9
1778662007.896986,2094,0,9
1778662007.8984141,2239,0,9
1778662007.899806,2364,0,9
1778662007.902412,2040,0,9
1778662007.9038138,1660,0,9
1778662007.91053,1762,0,9
1778662007.9111419,2024,0,9
1778662007.9119282,2152,0,9
1778662007.913837,1995,0,9
1778662007.916277,2005,0,9
1778662007.916802,2160,0,9
1778662007.9220989,2111,0,9
1778662007.922428,1880,0,9
1778662007.922722,2001,0,9
1778662007.9246452,2089,0,9
1778662007.926036,2194,0,9
1778662007.9274392,2049,0,9
1778662007.933839,2062,0,9
1778662007.934717,2123,0,9
1778662007.9362938,2185,0,9
1778662007.938737,1981,0,9
1778662007.939313,1972,0,9
1778662007.94057,2172,0,9
1778662007.94228,2107,0,9
1778662007.945281,2033,0,9
1778662007.9475572,1840,0,9
1778662007.9476821,2050,0,9
1778662007.950345,2036,0,9
1778662007.951635,2080,0,9
1778662007.954297,1782,0,9
1778662007.95568,1916,0,9
1778662007.960434,2103,0,9
1778662007.963795,2214,0,9
1778662007.9652789,2125,0,9
1778662007.966369,2160,0,9
1778662007.967314,2299,0,9
1778662007.968155,2153,0,9
1778662007.972332,1885,0,9
1778662007.972609,2005,0,9
1778662007.974282,2011,0,9
1778662007.9762821,2085,0,9
1778662007.977597,2115,0,9
1778662007.984292,2033,0,9
1778662007.9844348,2218,0,9
1778662007.98629,2042,0,9
1778662007.987881,1874,0,9
1778662007.989577,1796,0,9
1778662007.992307,2011,0,9
1778662007.992526,2155,0,9
1778662007.9952488,2262,0,9
1778662007.9954822,2074,0,9
1778662007.9976919,2039,0,9
1778662008.000385,2186,0,9
1778662008.001631,2014,0,9
1778662008.004101,1967,0,9
1778662008.005495,1949,0,9
1778662008.012565,1973,0,9
1778662008.01723,2002,0,9
1778662008.018572,2131,0,9
1778662008.020776,2242,0,9
1778662008.020986,2088,0,9
1778662008.023617,1846,0,9
1778662008.023882,1979,0,9
1778662008.0240798,1955,0,9
1778662008.024368,2101,0,9
1778662008.026649,2134,0,9
1778662008.028019,2110,0,9
1778662008.029444,2102,0,9
1778662008.034872,2186,0,9
1778662008.035359,2093,0,9
1778662008.0376298,1912,0,9
1778662008.037833,1816,0,9
1778662008.041386,2069,0,9
1778662008.0422442,2164,0,9
1778662008.0461152,2174,0,9
1778662008.0464268,2010,0,9
1778662008.048685,2103,0,9
1778662008.050089,2115,0,9
1778662008.051475,1984,0,9
1778662008.054154,1836,0,9
1778662008.055562,1952,0,9
1778662008.058283,2051,0,9
1778662008.064227,2105,0,9
1778662008.066025,2017,0,9
1778662008.0687659,2052,0,9
1778662008.070904,2213,0,9
1778662008.0724921,2254,0,9
1778662008.0752609,1999,0,9
1778662008.075636,1650,0,9
1778662008.077455,1788,0,9
1778662008.078051,2280,0,9
1778662008.078311,2128,0,9
1778662008.0797231,2133,0,9
1778662008.082432,2217,0,9
1778662008.087347,1895,0,9
1778662008.0882611,1502,0,9
1778662008.091605,1891,0,9
1778662008.0929012,1910,0,9
1778662008.093817,1929,0,9
1778662008.094623,3037,0,9
1778662008.098303,1851,0,9
1778662008.098712,1484,0,9
1778662008.100545,1981,0,9
1778662008.101933,2234,0,9
1778662008.1032581,2307,0,9
1778662008.106096,1610,0,9
1778662008.1074932,1883,0,9
1778662008.110146,2058,0,9
1778662008.117005,1895,0,9
1778662008.1191812,2484,0,9
1778662008.122292,2050,0,9
1778662008.124189,2308,0,9
1778662008.124303,1613,0,9
1778662008.1243572,1946,0,9
1778662008.128761,2391,0,9
1778662008.129041,2031,0,9
1778662008.130124,1873,0,9
1778662008.130666,2000,0,9
1778662008.13361,2151,0,9
1778662008.133803,1891,0,9
1778662008.13533,1632,0,9
1778662008.138502,1990,0,9
1778662008.146135,1930,0,9
1778662008.150112,1972,0,9
1778662008.155242,2579,0,9
1778662008.156069,2061,0,9
1778662008.158507,2198,0,9
1778662008.158634,2305,0,9
1778662008.158742,1724,0,9
1778662008.158837,2185,0,9
1778662008.158892,1121,0,9
1778662008.158978,1107,0,9
1778662008.160337,2478,0,9
1778662008.161708,2228,0,9
1778662008.1644359,2331,0,9
1778662008.165801,2192,0,9
1778662008.168413,2093,0,9
1778662008.174567,2073,0,9
1778662008.177361,2248,0,9
1778662008.1777952,2357,0,9
1778662008.180513,1560,0,9
1778662008.181626,2150,0,9
1778662008.182581,1784,0,9
1778662008.1831071,1927,0,9
1778662008.1881442,2158,0,9
1778662008.189326,1675,0,9
1778662008.1895418,1653,0,9
1778662008.18985,2441,0,9
1778662008.191731,2373,0,9
1778662008.19445,2211,0,9
1778662008.195806,1930,0,9
1778662008.202921,2017,0,9
1778662008.2048159,2122,0,9
1778662008.207191,2263,0,9
1778662008.2086651,2235,0,9
1778662008.210048,1919,0,9
1778662008.211754,2254,0,9
1778662008.211991,2355,0,9
1778662008.214686,2067,0,9
1778662008.215394,1518,0,9
1778662008.215623,2288,0,9
1778662008.2177641,2279,0,9
1778662008.220435,1620,0,9
1778662008.221795,2188,0,9
1778662008.22318,2086,0,9
1778662008.225847,2375,0,9
1778662008.227249,2399,0,9
1778662008.233655,1920,0,9
1778662008.234282,2328,0,9
1778662008.236373,2271,0,9
1778662008.243488,2047,0,9
1778662008.250356,1894,0,9
1778662008.25054,2035,0,9
1778662008.2506108,2264,0,9
1778662008.2506611,2297,0,9
1778662008.2507079,2185,0,9
1778662008.250754,1953,0,9
1778662008.2508008,2222,0,9
1778662008.252803,2047,0,9
1778662008.281826,1982,0,9
1778662008.2825222,2165,0,9
1778662008.2825851,2039,0,9
1778662008.283081,2155,0,9
1778662008.283189,2204,0,9
1778662008.283239,2158,0,9
1778662008.28337,2223,0,9
1778662008.283686,2086,0,9
1778662008.283927,2131,0,9
1778662008.284197,1735,0,9
1778662008.284269,1964,0,9
1778662008.2845829,2077,0,9
1778662008.284637,2128,0,9
1778662008.284769,2021,0,9
1778662008.284817,2170,0,9
1778662008.284864,2317,0,9
1778662008.295428,2043,0,9
1778662008.295528,1755,0,9
1778662008.295585,2028,0,9
1778662008.295635,2067,0,9
1778662008.295684,1789,0,9
1778662008.2957902,1936,0,9
1778662008.2972171,1805,0,9
1778662008.30019,2341,0,9
1778662008.301589,2248,0,9
1778662008.317931,1854,0,9
1778662008.320447,1765,0,9
1778662008.320809,1514,0,9
1778662008.320888,2910,0,9
1778662008.320951,2446,0,9
1778662008.321045,1838,0,9
1778662008.321124,1935,0,9
1778662008.321228,2428,0,9
1778662008.32129,1689,0,9
1778662008.321368,1354,0,9
1778662008.323988,2602,0,9
1778662008.325519,2548,0,9
1778662008.330801,1866,0,9
1778662008.3323011,573,0,9
1778662008.332523,3108,0,9
1778662008.334003,2553,0,9
1778662008.3373172,1749,0,9
1778662008.3380082,1755,0,9
1778662008.3409338,2026,0,9
1778662008.3442361,2224,0,9
1778662008.3448,2044,0,9
1778662008.3474948,2072,0,9
1778662008.347611,2389,0,9
1778662008.350299,1946,0,9
1778662008.3516722,1851,0,9
1778662008.354337,1662,0,9
1778662008.355764,1842,0,9
1778662008.3572211,2289,0,9
1778662008.364851,2053,0,9
1778662008.366098,1999,0,9
1778662008.366591,2589,0,9
1778662008.368124,1727,0,9
1778662008.372212,2413,0,9
1778662008.373853,1710,0,9
1778662008.3739781,1907,0,9
1778662008.375825,1862,0,9
1778662008.3790941,1663,0,9
1778662008.3794932,2413,0,9
1778662008.379673,2429,0,9
1778662008.382126,2115,0,9
1778662008.383519,2186,0,9
1778662008.386177,2021,0,9
1778662008.3926332,1933,0,9
1778662008.393664,2165,0,9
1778662008.395623,2100,0,9
1778662008.395916,1470,0,9
1778662008.397551,2304,0,9
1778662008.398551,2230,0,9
1778662008.40064,2298,0,9
1778662008.406049,1408,0,9
1778662008.4065301,1798,0,9
1778662008.406694,2283,0,9
1778662008.40919,2645,0,9
1778662008.40933,2278,0,9
1778662008.411981,1872,0,9
1778662008.4133692,2114,0,9
1778662008.416066,2241,0,9
1778662008.4174001,2028,0,9
1778662008.42005,1747,0,9
1778662008.425983,2025,0,9
1778662008.4274921,2469,0,9
1778662008.429312,1960,0,9
1778662008.432106,1111,0,9
1778662008.432797,2510,0,9
1778662008.433826,2447,0,9
1778662008.43446,2035,0,9
1778662008.436735,2743,0,9
1778662008.440114,1760,0,9
1778662008.440222,2298,0,9
1778662008.442954,1673,0,9
1778662008.44437,1964,0,9
1778662008.445764,1711,0,9
1778662008.4471722,2474,0,9
1778662008.455774,2583,0,9
1778662008.456031,1764,0,9
1778662008.4586072,1312,0,9
1778662008.460196,2512,0,9
1778662008.460737,2464,0,9
1778662008.4616761,944,0,9
1778662008.463552,2941,0,9
1778662008.463712,2221,0,9
1778662008.467038,1559,0,9
1778662008.46751,2264,0,9
1778662008.470173,2098,0,9
1778662008.471605,1862,0,9
1778662008.474237,2446,0,9
1778662008.4755409,2338,0,9
1778662008.478116,2114,0,9
1778662008.47947,2444,0,9
1778662008.481301,2254,0,9
1778662008.4871721,1791,0,9
1778662008.4884322,2249,0,9
1778662008.48953,1037,0,9
1778662008.491366,2016,0,9
1778662008.49181,2419,0,9
1778662008.49488,1867,0,9
1778662008.497157,1966,0,9
1778662008.4989629,2059,0,9
1778662008.5024672,2548,0,9
1778662008.5052228,1856,0,9
1778662008.505876,2360,0,9
1778662008.506163,1766,0,9
1778662008.5073411,1485,0,9
1778662008.5099719,3209,0,9
1778662008.5165281,1921,0,9
1778662008.5176058,659,0,9
1778662008.5222468,2008,0,9
1778662008.5229409,2843,0,9
1778662008.5245461,1732,0,9
1778662008.5253131,1265,0,9
1778662008.527615,2080,0,9
1778662008.531179,2302,0,9
1778662008.531451,3868,0,9
1778662008.53166,2184,0,9
1778662008.532064,1762,0,9
1778662008.534622,2083,0,9
1778662008.535997,1888,0,9
1778662008.537407,1992,0,9
1778662008.540061,1693,0,9
1778662008.541397,1667,0,9
1778662008.5440068,2346,0,9
1778662008.54537,1751,0,9
1778662008.55149,2200,0,9
1778662008.551589,2669,0,9
1778662008.55456,1927,0,9
1778662008.5547788,2321,0,9
1778662008.557502,1990,0,9
1778662008.558115,2067,0,9
1778662008.562019,2005,0,9
1778662008.5657978,674,0,9
1778662008.5659058,2579,0,9
1778662008.566304,2386,0,9
1778662008.568919,1489,0,9
1778662008.570274,1546,0,9
1778662008.571638,1469,0,9
1778662008.5809548,1742,0,9
1778662008.582591,2054,0,9
1778662008.582964,1673,0,9
1778662008.584927,1991,0,9
1778662008.586071,2244,0,9
1778662008.587282,1422,0,9
1778662008.587405,1878,0,9
1778662008.588532,1817,0,9
1778662008.594165,2107,0,9
1778662008.594404,2924,0,9
1778662008.594796,2234,0,9
1778662008.5974772,2027,0,9
1778662008.5975811,2760,0,9
1778662008.6002078,3183,0,9
1778662008.6016462,2100,0,9
1778662008.604321,2233,0,9
1778662008.6057012,2962,0,9
1778662008.608626,2265,0,9
1778662008.613805,2429,0,9
1778662008.616995,2725,0,9
1778662008.6174269,2667,0,9
1778662008.617598,2321,0,9
1778662008.6206138,2595,0,9
1778662008.62146,2702,0,9
1778662008.622535,2543,0,9
1778662008.625108,1936,0,9
1778662008.62902,2545,0,9
1778662008.6292648,2331,0,9
1778662008.6295109,2438,0,9
1778662008.632143,2519,0,9
1778662008.6335738,1906,0,9
1778662008.636202,2406,0,9
1778662008.643309,2255,0,9
1778662008.6454458,3061,0,9
1778662008.645757,1046,0,9
1778662008.647637,1989,0,9
1778662008.6478531,2489,0,9
1778662008.648513,1909,0,9
1778662008.650987,3282,0,9
1778662008.6511989,2318,0,9
1778662008.656632,1214,0,9
1778662008.656976,1802,0,9
1778662008.657314,2564,0,9
1778662008.6597152,2682,0,9
1778662008.661126,2133,0,9
1778662008.663778,1916,0,9
1778662008.665151,1644,0,9
1778662008.667825,2492,0,9
1778662008.669166,1293,0,9
1778662008.675831,1819,0,9
1778662008.67729,1916,0,9
1778662008.6793332,2636,0,9
1778662008.679606,1908,0,9
1778662008.681718,1562,0,9
1778662008.68277,2500,0,9
1778662008.684599,2310,0,9
1778662008.69067,1546,0,9
1778662008.691106,1688,0,9
1778662008.691436,2010,0,9
1778662008.6915998,2307,0,9
1778662008.694056,2531,0,9
1778662008.695434,1029,0,9
1778662008.698059,2355,0,9
1778662008.7053351,1727,0,9
1778662008.707378,2638,0,9
1778662008.707805,1633,0,9
1778662008.710572,2020,0,9
1778662008.711976,2112,0,9
1778662008.71266,1551,0,9
1778662008.718564,2298,0,9
1778662008.718826,2728,0,9
1778662008.7192068,941,0,9
1778662008.7198389,2207,0,9
1778662008.7220402,1915,0,9
1778662008.7221482,1414,0,9
1778662008.723546,2400,0,9
1778662008.7262552,2084,0,9
1778662008.7276301,1931,0,9
1778662008.7290618,1930,0,9
1778662008.731787,2411,0,9
1778662008.738076,2582,0,9
1778662008.739167,1581,0,9
1778662008.739881,1669,0,9
1778662008.741437,2207,0,9
1778662008.741557,2090,0,9
1778662008.743597,2036,0,9
1778662008.745481,2235,0,9
1778662008.7479901,1992,0,9
1778662008.752105,2440,0,9
1778662008.752737,1538,0,9
1778662008.755167,2372,0,9
1778662008.755318,1457,0,9
1778662008.757887,2002,0,9
1778662008.75919,1808,0,9
1778662008.764974,1668,0,9
1778662008.765601,2627,0,9
1778662008.7660532,2118,0,9
1778662008.76948,1904,0,9
1778662008.7709498,1801,0,9
1778662008.77157,1619,0,9
1778662008.7737868,2275,0,9
1778662008.7779992,2135,0,9
1778662008.7783191,1934,0,9
1778662008.780055,2061,0,9
1778662008.7813618,2225,0,9
1778662008.783927,2450,0,9
1778662008.785366,1938,0,9
1778662008.78798,1680,0,9
1778662008.78928,2132,0,9
1778662008.795451,1534,0,9
1778662008.795959,2089,0,9
1778662008.796475,2101,0,9
1778662008.798896,2402,0,9
1778662008.8011909,1496,0,9
1778662008.8034189,1950,0,9
1778662008.8039129,2369,0,9
1778662008.805656,2008,0,9
1778662008.809707,1905,0,9
1778662008.811681,2472,0,9
1778662008.8122408,2141,0,9
1778662008.813556,2106,0,9
1778662008.8161652,2189,0,9
1778662008.82766,2233,0,9
1778662008.8285491,1938,0,9
1778662008.830983,1798,0,9
1778662008.835289,1933,0,9
1778662008.8377411,2066,0,9
1778662008.837802,2087,0,9
1778662008.8378382,1696,0,9
1778662008.837866,2247,0,9
1778662008.837929,2523,0,9
1778662008.837962,1707,0,9
1778662008.8379898,1813,0,9
1778662008.8394802,1935,0,9
1778662008.84213,2190,0,9
1778662008.843483,2228,0,9
1778662008.8461282,1679,0,9
1778662008.847498,2111,0,9
1778662008.854765,2158,0,9
1778662008.855757,1681,0,9
1778662008.8572748,2152,0,9
1778662008.857414,1922,0,9
1778662008.857756,2093,0,9
1778662008.860182,2245,0,9
1778662008.8618062,1761,0,9
1778662008.8689191,2164,0,9
1778662008.869218,2361,0,9
1778662008.869737,2196,0,9
1778662008.87186,1724,0,9
1778662008.8725529,1728,0,9
1778662008.873945,1864,0,9
1778662008.8753111,2107,0,9
1778662008.882567,2013,0,9
1778662008.883154,2021,0,9
1778662008.884226,2275,0,9
1778662008.8866591,2192,0,9
1778662008.8893151,2011,0,9
1778662008.890601,1847,0,9
1778662008.89078,1870,0,9
1778662008.894186,2115,0,9
1778662008.898842,2222,0,9
1778662008.899462,1880,0,9
1778662008.8997939,2154,0,9
1778662008.902133,2316,0,9
1778662008.902447,2154,0,9
1778662008.903807,1701,0,9
1778662008.90515,1838,0,9
1778662008.9077902,1708,0,9
1778662008.9090402,2312,0,9
1778662008.911683,2234,0,9
1778662008.9130392,2051,0,9
1778662008.918947,2040,0,9
1778662008.9201841,2199,0,9
1778662008.920893,2125,0,9
1778662008.921516,1387,0,9
1778662008.9258611,2283,0,9
1778662008.926633,1983,0,9
1778662008.92834,2396,0,9
1778662008.930584,1954,0,9
1778662008.935096,2004,0,9
1778662008.935322,2287,0,9
1778662008.935636,1789,0,9
1778662008.9383402,1872,0,9
1778662008.93972,2177,0,9
1778662008.94108,1975,0,9
1778662008.948527,2270,0,9
1778662008.949617,2069,0,9
1778662008.950177,2056,0,9
1778662008.952064,1892,0,9
1778662008.954249,1678,0,9
1778662008.954418,2146,0,9
1778662008.9574988,1609,0,9
1778662008.964053,2021,0,9
1778662008.964534,2261,0,9
1778662008.96695,2389,0,9
1778662008.967027,1944,0,9
1778662008.967077,2347,0,9
1778662008.967125,2329,0,9
1778662008.970208,1984,0,9
1778662008.9724522,1911,0,9
1778662008.974829,2156,0,9
1778662008.974943,1629,0,9
1778662008.977655,1567,0,9
1778662008.9862459,2412,0,9
1778662008.9884312,2315,0,9
1778662008.9908428,1937,0,9
1778662008.991495,1857,0,9
1778662009.00041,1688,0,9
1778662009.000545,2005,0,9
1778662009.000602,1800,0,9
1778662009.0006511,2198,0,9
1778662009.000698,1996,0,9
1778662009.00078,1530,0,9
1778662009.000831,2129,0,9
1778662009.000936,2100,0,9
1778662009.0036008,1894,0,9
1778662009.004996,1316,0,9
1778662009.013742,1599,0,9
1778662009.0159402,2311,0,9
1778662009.017803,2408,0,9
1778662009.018498,2226,0,9
1778662009.028202,2082,0,9
1778662009.0282722,1633,0,9
1778662009.028306,1631,0,9
1778662009.028336,1566,0,9
1778662009.028367,1325,0,9
1778662009.0283961,1644,0,9
1778662009.028425,1711,0,9
1778662009.030232,1562,0,9
1778662009.031569,1220,0,9
1778662009.0329988,1495,0,9
1778662009.0356338,1539,0,9
1778662009.037032,1482,0,9
1778662009.047308,1604,0,9
1778662009.047492,1752,0,9
1778662009.047924,1695,0,9
1778662009.050143,1517,0,9
1778662009.05189,1342,0,9
1778662009.053652,1890,0,9
1778662009.056364,1822,0,9
1778662009.0617118,1770,0,9
1778662009.0627258,1683,0,9
1778662009.0655081,1779,0,9
1778662009.065592,1901,0,9
1778662009.0656462,1756,0,9
1778662009.065697,1667,0,9
1778662009.0657501,2024,0,9
1778662009.0671291,2105,0,9
1778662009.06989,1371,0,9
1778662009.076612,961,0,9
1778662009.0776792,1840,0,9
1778662009.08029,2391,0,9
1778662009.080629,2024,0,9
1778662009.084032,1709,0,9
1778662009.0846899,1830,0,9
1778662009.08532,2010,0,9
1778662009.088224,1750,0,9
1778662009.0929012,1536,0,9
1778662009.093416,2461,0,9
1778662009.093776,1884,0,9
1778662009.094048,1548,0,9
1778662009.096672,1677,0,9
1778662009.0980742,1914,0,9
1778662009.0994089,2310,0,9
1778662009.101996,1447,0,9
1778662009.103317,1240,0,9
1778662009.105911,2016,0,9
1778662009.107223,1946,0,9
1778662009.115762,1938,0,9
1778662009.1185338,2038,0,9
1778662009.118772,2036,0,9
1778662009.122693,2087,0,9
1778662009.123957,2038,0,9
1778662009.124757,1840,0,9
1778662009.1249769,1541,0,9
1778662009.127531,1898,0,9
1778662009.132621,1960,0,9
1778662009.133025,1983,0,9
1778662009.1333802,2010,0,9
1778662009.133693,1611,0,9
1778662009.1339562,1720,0,9
1778662009.136825,2231,0,9
1778662009.13693,1739,0,9
1778662009.139434,1634,0,9
1778662009.1420958,1903,0,9
1778662009.147986,2234,0,9
1778662009.14816,2070,0,9
1778662009.150326,1989,0,9
1778662009.152389,2228,0,9
1778662009.1542988,2053,0,9
1778662009.1550689,1677,0,9
1778662009.156775,1706,0,9
1778662009.157439,1729,0,9
1778662009.160652,2131,0,9
1778662009.166003,1925,0,9
1778662009.166205,2193,0,9
1778662009.166399,2203,0,9
1778662009.169451,1785,0,9
1778662009.169734,2058,0,9
1778662009.171173,1696,0,9
1778662009.173877,2149,0,9
1778662009.175277,2046,0,9
1778662009.1779919,1761,0,9
1778662009.1793652,1923,0,9
1778662009.182097,2141,0,9
1778662009.1916459,2285,0,9
1778662009.1940951,1773,0,9
1778662009.19468,1814,0,9
1778662009.195203,1889,0,9
1778662009.195313,2012,0,9
1778662009.1958442,1760,0,9
1778662009.196467,1915,0,9
1778662009.199281,2091,0,9
1778662009.19935,2034,0,9
1778662009.2037692,1948,0,9
1778662009.204042,1907,0,9
1778662009.206458,1773,0,9
1778662009.2077692,2043,0,9
1778662009.2090728,2149,0,9
1778662009.216801,2105,0,9
1778662009.218571,1950,0,9
1778662009.220484,2107,0,9
1778662009.220705,2069,0,9
1778662009.2227468,1549,0,9
1778662009.223507,1559,0,9
1778662009.2259042,2071,0,9
1778662009.228211,2088,0,9
1778662009.232901,2039,0,9
1778662009.233231,1924,0,9
1778662009.233873,1936,0,9
1778662009.234307,2021,0,9
1778662009.237033,1926,0,9
1778662009.237111,1783,0,9
1778662009.239744,1747,0,9
1778662009.241088,1927,0,9
1778662009.243716,2061,0,9
1778662009.24508,1961,0,9
1778662009.247796,1923,0,9
1778662009.256238,2009,0,9
1778662009.258281,2081,0,9
1778662009.2608798,1693,0,9
1778662009.263081,1730,0,9
1778662009.264145,1973,0,9
1778662009.266124,2080,0,9
1778662009.2706811,2094,0,9
1778662009.271254,1818,0,9
1778662009.271638,1928,0,9
1778662009.271977,2027,0,9
1778662009.274549,1865,0,9
1778662009.274643,1805,0,9
1778662009.2746959,2003,0,9
1778662009.276055,1622,0,9
1778662009.277479,1958,0,9
1778662009.288218,1980,0,9
1778662009.288692,1977,0,9
1778662009.288935,2042,0,9
1778662009.290879,1948,0,9
1778662009.2916749,1736,0,9
1778662009.2922492,1815,0,9
1778662009.292886,1959,0,9
1778662009.2931368,2004,0,9
1778662009.301138,2046,0,9
1778662009.301685,2084,0,9
1778662009.301932,2126,0,9
1778662009.302359,1902,0,9
1778662009.30494,1769,0,9
1778662009.305085,1865,0,9
1778662009.3077178,2022,0,9
1778662009.309055,2019,0,9
1778662009.311852,1948,0,9
1778662009.313359,1970,0,9
1778662009.314828,2004,0,9
1778662009.322531,1767,0,9
1778662009.323128,1670,0,9
1778662009.325261,1655,0,9
1778662009.325671,1974,0,9
1778662009.327778,1953,0,9
1778662009.328793,1971,0,9
1778662009.3290188,1863,0,9
1778662009.3327,1958,0,9
1778662009.332847,1868,0,9
1778662009.337777,1895,0,9
1778662009.338006,1755,0,9
1778662009.340235,1823,0,9
1778662009.341343,1886,0,9
1778662009.343963,1991,0,9
1778662009.345331,1910,0,9
1778662009.353528,2043,0,9
1778662009.354281,2357,0,9
1778662009.3560178,2201,0,9
1778662009.356339,1942,0,9
1778662009.3565388,1993,0,9
1778662009.3597481,2325,0,9
1778662009.3599858,2407,0,9
1778662009.3617878,2152,0,9
1778662009.3687942,2183,0,9
1778662009.3697128,2357,0,9
1778662009.3701608,2223,0,9
1778662009.372896,1998,0,9
1778662009.372981,1980,0,9
1778662009.3730402,2251,0,9
1778662009.375726,2179,0,9
1778662009.3770392,2223,0,9
1778662009.37961,2169,0,9
1778662009.380983,2202,0,9
1778662009.38364,2289,0,9
1778662009.3848078,2015,0,9
1778662009.391297,1849,0,9
1778662009.391944,2058,0,9
1778662009.3927062,2162,0,9
1778662009.393733,2261,0,9
1778662009.395591,2246,0,9
1778662009.398495,2290,0,9
1778662009.4004312,2305,0,9
1778662009.403336,2062,0,9
1778662009.408163,1920,0,9
1778662009.408412,2020,0,9
1778662009.4088619,2208,0,9
1778662009.4090822,2212,0,9
1778662009.4120939,1994,0,9
1778662009.413467,2045,0,9
1778662009.4148118,2239,0,9
1778662009.4233868,2451,0,9
1778662009.424287,2118,0,9
1778662009.424872,1803,0,9
1778662009.425076,2058,0,9
1778662009.4257019,2336,0,9
1778662009.4274921,2403,0,9
1778662009.431284,2140,0,9
1778662009.4335082,2151,0,9
1778662009.435348,2359,0,9
1778662009.4400241,2105,0,9
1778662009.440622,2103,0,9
1778662009.4409258,1867,0,9
1778662009.4412,2018,0,9
1778662009.444043,2406,0,9
1778662009.4453912,2134,0,9
1778662009.4468129,1988,0,9
1778662009.449428,2184,0,9
1778662009.450787,2214,0,9
1778662009.453326,1947,0,9
1778662009.4563708,1827,0,9
1778662009.462483,2047,0,9
1778662009.4633422,2268,0,9
1778662009.463528,2115,0,9
1778662009.468488,2422,0,9
1778662009.471472,2284,0,9
1778662009.478456,2150,0,9
1778662009.478904,2177,0,9
1778662009.4791198,1924,0,9
1778662009.479583,2089,0,9
1778662009.48002,2503,0,9
1778662009.482099,2085,0,9
1778662009.482999,1942,0,9
1778662009.483059,2146,0,9
1778662009.483108,2165,0,9
1778662009.485736,1929,0,9
1778662009.48712,2025,0,9
1778662009.495785,2079,0,9
1778662009.497653,2302,0,9
1778662009.49805,2112,0,9
1778662009.5008159,2292,0,9
1778662009.5009449,2297,0,9
1778662009.504145,2189,0,9
1778662009.506221,1880,0,9
1778662009.511463,1851,0,9
1778662009.5119932,1867,0,9
1778662009.512247,2033,0,9
1778662009.512534,1988,0,9
1778662009.515414,2132,0,9
1778662009.5154948,2207,0,9
1778662009.515546,2241,0,9
1778662009.516872,2237,0,9
1778662009.5195148,1940,0,9
1778662009.520952,2031,0,9
1778662009.5234072,2327,0,9
1778662009.5247722,2186,0,9
1778662009.527453,2054,0,9
1778662009.5340538,2090,0,9
1778662009.5348108,2147,0,9
1778662009.5376132,2148,0,9
1778662009.537975,2176,0,9
1778662009.54031,1985,0,9
1778662009.541586,1942,0,9
1778662009.542374,2172,0,9
1778662009.546255,2312,0,9
1778662009.550616,2137,0,9
1778662009.551342,2066,0,9
1778662009.551796,2238,0,9
1778662009.552222,2192,0,9
1778662009.555072,1975,0,9
1778662009.555151,2030,0,9
1778662009.557821,2021,0,9
1778662009.559801,2058,0,9
1778662009.566973,2148,0,9
1778662009.567636,2114,0,9
1778662009.568733,2232,0,9
1778662009.57319,2196,0,9
1778662009.5759208,2040,0,9
1778662009.5766568,1819,0,9
1778662009.578757,2039,0,9
1778662009.579273,2164,0,9
1778662009.5836082,2121,0,9
1778662009.5839229,2095,0,9
1778662009.5843651,2238,0,9
1778662009.5848188,2250,0,9
1778662009.5873861,2180,0,9
1778662009.5876749,1954,0,9
1778662009.589194,1836,0,9
1778662009.590708,2045,0,9
1778662009.5933928,2219,0,9
1778662009.594769,2147,0,9
1778662009.597395,2106,0,9
1778662009.5987258,2199,0,9
1778662009.6072268,2117,0,9
1778662009.609946,1962,0,9
1778662009.6129081,1841,0,9
1778662009.61311,2139,0,9
1778662009.6138072,2152,0,9
1778662009.614016,2190,0,9
1778662009.614683,2068,0,9
1778662009.6159308,2061,0,9
1778662009.61896,2040,0,9
1778662009.623168,2065,0,9
1778662009.623582,1863,0,9
1778662009.6242461,2016,0,9
1778662009.626988,2127,0,9
1778662009.627048,2143,0,9
1778662009.629685,1987,0,9
1778662009.631073,2017,0,9
1778662009.6385229,2248,0,9
1778662009.639817,2046,0,9
1778662009.6438,1764,0,9
1778662009.6449778,1874,0,9
1778662009.645154,2044,0,9
1778662009.6464279,2083,0,9
1778662009.647561,2020,0,9
1778662009.6488168,2045,0,9
1778662009.649045,2061,0,9
1778662009.651134,2048,0,9
1778662009.655682,1744,0,9
1778662009.656142,1720,0,9
1778662009.659053,1988,0,9
1778662009.659314,1833,0,9
1778662009.660699,1815,0,9
1778662009.663475,1738,0,9
1778662009.664843,2023,0,9
1778662009.6673348,2067,0,9
1778662009.668727,1706,0,9
1778662009.671344,1515,0,9
1778662009.672778,1909,0,9
1778662009.678595,1863,0,9
1778662009.679242,1907,0,9
1778662009.679869,1865,0,9
1778662009.6822348,1972,0,9
1778662009.68493,2078,0,9
1778662009.685035,1916,0,9
1778662009.68929,1747,0,9
1778662009.689518,1795,0,9
1778662009.693068,1916,0,9
1778662009.6932118,1999,0,9
1778662009.695383,2079,0,9
1778662009.696705,2070,0,9
1778662009.699425,2149,0,9
1778662009.700824,2022,0,9
1778662009.709131,1877,0,9
1778662009.7094011,1839,0,9
1778662009.709816,2087,0,9
1778662009.7128398,2177,0,9
1778662009.7143989,2246,0,9
1778662009.7150211,2013,0,9
1778662009.7152052,1976,0,9
1778662009.717429,2074,0,9
1778662009.721142,1941,0,9
1778662009.7215118,1817,0,9
1778662009.724041,2044,0,9
1778662009.725556,2099,0,9
1778662009.7269151,2146,0,9
1778662009.7295759,2095,0,9
1778662009.730934,2179,0,9
1778662009.733546,2197,0,9
1778662009.734897,2107,0,9
1778662009.744543,1888,0,9
1778662009.746797,1997,0,9
1778662009.748436,2105,0,9
1778662009.7504141,2055,0,9
1778662009.750566,2099,0,9
1778662009.7524889,2142,0,9
1778662009.755857,2257,0,9
1778662009.756503,2170,0,9
1778662009.756772,1960,0,9
1778662009.759527,1940,0,9
1778662009.7598789,2243,0,9
1778662009.759948,2231,0,9
1778662009.7613099,2154,0,9
1778662009.76267,2067,0,9
1778662009.77158,2185,0,9
1778662009.7735748,2252,0,9
1778662009.7758982,2082,0,9
1778662009.776958,1926,0,9
1778662009.7775092,2131,0,9
1778662009.778511,2309,0,9
1778662009.779066,2273,0,9
1778662009.780811,2092,0,9
1778662009.7843,2150,0,9
1778662009.784551,2222,0,9
1778662009.785184,2153,0,9
1778662009.787751,1930,0,9
1778662009.789155,1938,0,9
1778662009.791863,2215,0,9
1778662009.793282,2233,0,9
1778662009.794632,2235,0,9
1778662009.797332,2208,0,9
1778662009.798869,2383,0,9
1778662009.806852,2323,0,9
1778662009.807251,2054,0,9
1778662009.807439,1943,0,9
1778662009.809537,2152,0,9
1778662009.810967,2252,0,9
1778662009.811969,2252,0,9
1778662009.817377,2213,0,9
1778662009.817663,2209,0,9
1778662009.8199391,2344,0,9
1778662009.820907,2222,0,9
1778662009.820983,2039,0,9
1778662009.8245928,2188,0,9
1778662009.8247092,2238,0,9
1778662009.8310661,2268,0,9
1778662009.831788,2164,0,9
1778662009.832803,2280,0,9
1778662009.834283,2322,0,9
1778662009.837227,2198,0,9
1778662009.838753,1969,0,9
1778662009.8394098,1984,0,9
1778662009.84159,2207,0,9
1778662009.84484,2259,0,9
1778662009.845067,2189,0,9
1778662009.847656,2238,0,9
1778662009.849015,2364,0,9
1778662009.851676,2218,0,9
1778662009.853034,2033,0,9
1778662009.8556979,1953,0,9
1778662009.857043,2267,0,9
1778662009.864484,2384,0,9
1778662009.867153,2250,0,9
1778662009.86977,2061,0,9
1778662009.8711848,2222,0,9
1778662009.871857,2280,0,9
1778662009.8723998,2228,0,9
1778662009.872492,1900,0,9
1778662009.873536,1953,0,9
1778662009.878137,2211,0,9
1778662009.878334,2256,0,9
1778662009.880877,2196,0,9
1778662009.881226,2379,0,9
1778662009.882614,2255,0,9
1778662009.8853362,2024,0,9
1778662009.89225,1972,0,9
1778662009.8942,2014,0,9
1778662009.897454,2361,0,9
1778662009.898047,2269,0,9
1778662009.8986611,2092,0,9
1778662009.899302,2220,0,9
1778662009.900325,2342,0,9
1778662009.901999,2202,0,9
1778662009.905215,2095,0,9
1778662009.9053419,1999,0,9
1778662009.907972,2176,0,9
1778662009.909388,2194,0,9
1778662009.9107578,2186,0,9
1778662009.9134452,2143,0,9
1778662009.914783,2263,0,9
1778662009.917435,2283,0,9
1778662009.923618,2158,0,9
1778662009.926071,2045,0,9
1778662009.9262211,2149,0,9
1778662009.9279869,2174,0,9
1778662009.930069,2236,0,9
1778662009.930659,2101,0,9
1778662009.931319,2117,0,9
1778662009.933367,2233,0,9
1778662009.938406,2199,0,9
1778662009.938677,2097,0,9
1778662009.939038,2020,0,9
1778662009.941705,1972,0,9
1778662009.94305,2162,0,9
1778662009.945706,2247,0,9
1778662009.9517388,2194,0,9
1778662009.952851,2185,0,9
1778662009.9542341,2167,0,9
1778662009.9544709,1965,0,9
1778662009.954556,1863,0,9
1778662009.95945,2116,0,9
1778662009.960431,2220,0,9
1778662009.961094,2200,0,9
1778662009.963372,2155,0,9
1778662009.966557,2227,0,9
1778662009.9667609,2198,0,9
1778662009.969313,2042,0,9
1778662009.9706938,1882,0,9
1778662009.973309,2083,0,9
1778662009.974642,2167,0,9
1778662009.9772391,2085,0,9
1778662009.978643,2087,0,9
1778662009.986846,2253,0,9
1778662009.9875772,2238,0,9
1778662009.990457,2116,0,9
1778662009.990813,1936,0,9
1778662009.993403,1703,0,9
1778662009.994669,2056,0,9
1778662009.9984782,2200,0,9
1778662010.001548,2079,0,9
1778662010.002082,1995,0,9
1778662010.002366,2350,0,9
1778662010.004629,2164,0,9
1778662010.005631,1579,0,9
1778662010.0057049,1983,0,9
1778662010.0070431,2179,0,9
1778662010.009682,2064,0,9
1778662010.0171578,2447,0,9
1778662010.0213382,1914,0,9
1778662010.0220869,1781,0,9
1778662010.0238771,2462,0,9
1778662010.024897,2556,0,9
1778662010.025099,782,0,9
1778662010.0299342,1433,0,9
1778662010.030582,2853,0,9
1778662010.030751,2114,0,9
1778662010.031038,2059,0,9
1778662010.031502,2209,0,9
1778662010.033972,2320,0,9
1778662010.0354629,2059,0,9
1778662010.036819,1449,0,9
1778662010.039479,1466,0,9
1778662010.040823,2738,0,9
1778662010.043705,1270,0,9
1778662010.0450659,2649,0,9
1778662010.054195,2125,0,9
1778662010.056684,1863,0,9
1778662010.059247,1987,0,9
1778662010.061449,2331,0,9
1778662010.061624,2248,0,9
1778662010.0622442,1995,0,9
1778662010.062387,1641,0,9
1778662010.063628,1948,0,9
1778662010.069112,1960,0,9
1778662010.0696461,1897,0,9
1778662010.0726469,2004,0,9
1778662010.072808,1960,0,9
1778662010.072871,1865,0,9
1778662010.0729222,2242,0,9
1778662010.075646,1791,0,9
