timestamp,sensor_value,label
1772100597.331935,3513,a
1772100597.3320692,577,a
1772100597.341781,3403,a
1772100597.341975,3510,a
1772100597.342069,971,a
1772100597.342128,3411,a
1772100597.342182,3519,a
1772100597.3422341,1254,a
1772100597.342498,2865,a
1772100597.3425531,3490,a
1772100597.342587,1591,a
1772100597.342616,2182,a
1772100597.342645,3468,a
1772100597.343174,2066,a
1772100597.343267,1539,a
1772100597.343331,3405,a
1772100597.3433862,2340,a
1772100597.343433,841,a
1772100597.3434849,3026,a
1772100597.3435369,2685,a
1772100597.343584,251,a
1772100597.343637,2514,a
1772100597.343689,3142,a
1772100597.343735,646,a
1772100597.3437881,2107,a
1772100597.343843,3302,a
1772100597.343897,1331,a
1772100597.34395,1845,a
1772100597.3440042,3373,a
1772100597.344058,1711,a
1772100597.3441112,1553,a
1772100597.344165,3412,a
1772100597.344218,2226,a
1772100597.3442838,1247,a
1772100597.344337,3414,a
1772100597.344388,2703,a
1772100597.3444328,973,a
1772100597.344485,3401,a
1772100597.344536,3326,a
1772100597.3445818,784,a
1772100597.344662,3410,a
1772100597.344725,3517,a
1772100597.344794,427,a
1772100597.3448472,3396,a
1772100597.3448992,3511,a
1772100597.3449442,193,a
1772100597.344995,3401,a
1772100597.345047,3511,a
1772100597.345092,306,a
1772100597.345143,3401,a
1772100597.345195,3512,a
1772100597.345239,631,a
1772100597.345291,3405,a
1772100597.346373,3518,a
1772100597.3464189,917,a
1772100597.346451,2979,a
1772100597.346482,3491,a
1772100597.3465128,1225,a
1772100597.346831,2221,a
1772100597.347757,3468,a
1772100597.3478458,1546,a
1772100597.347906,1720,a
1772100597.348114,3315,a
1772100597.348306,1979,a
1772100597.348715,1006,a
1772100597.348781,2869,a
1772100597.348834,2298,a
1772100597.348904,453,a
1772100597.348949,2426,a
1772100597.34902,2618,a
1772100597.349078,294,a
1772100597.3491352,2088,a
1772100597.34919,2860,a
1772100597.349269,1101,a
1772100597.349417,1914,a
1772100597.349597,2953,a
1772100597.34966,1340,a
1772100597.3497238,1505,a
1772100597.349779,3079,a
1772100597.349833,1873,a
1772100597.349887,1313,a
1772100597.34994,3408,a
1772100597.349997,2348,a
1772100597.3500428,909,a
1772100597.350102,3402,a
1772100597.35026,2931,a
1772100597.350315,793,a
1772100597.350369,3406,a
1772100597.350425,3480,a
1772100597.350473,569,a
1772100597.350525,3404,a
1772100597.3505778,3515,a
1772100597.350623,244,a
1772100597.350676,3403,a
1772100597.350728,3510,a
1772100597.350773,325,a
1772100597.350825,3397,a
1772100597.350879,3517,a
1772100597.350925,684,a
1772100597.3509781,3410,a
1772100597.351031,3509,a
1772100597.351084,1062,a
1772100597.351136,3165,a
1772100597.351188,3505,a
1772100597.35163,1448,a
1772100597.351924,2557,a
1772100597.351999,3481,a
1772100597.352054,1668,a
1772100597.352106,1847,a
1772100597.352561,3412,a
1772100597.3528051,2036,a
1772100597.3528929,1077,a
1772100597.352951,3017,a
1772100597.353007,2477,a
1772100597.3530529,493,a
1772100597.353108,2529,a
1772100597.35316,2752,a
1772100597.353206,375,a
1772100597.353259,2207,a
1772100597.353312,3023,a
1772100597.3533592,992,a
1772100597.353411,1909,a
1772100597.353462,3147,a
1772100597.353514,1539,a
1772100597.353566,1617,a
1772100597.35362,3281,a
1772100597.353672,1914,a
1772100597.353736,1314,a
1772100597.3538291,3388,a
1772100597.353921,2574,a
1772100597.3569229,1188,a
1772100597.357269,3404,a
1772100597.358242,3020,a
1772100597.359833,823,a
1772100597.360265,3408,a
1772100597.3603032,3511,a
1772100597.3603299,578,a
1772100597.360359,3405,a
1772100597.3604732,3513,a
1772100597.360553,285,a
1772100597.369524,3402,a
1772100597.3761349,3511,a
1772100597.387124,230,a
1772100597.398219,3399,a
1772100597.40915,3518,a
1772100597.42013,507,a
1772100597.43119,3401,a
1772100597.444034,3513,a
1772100597.4557178,746,a
1772100597.4657788,3018,a
1772100597.476913,3491,a
1772100597.4861388,1030,a
1772100597.497498,2368,a
1772100597.508134,3476,a
1772100597.519142,1396,a
1772100597.530132,1799,a
1772100597.5416589,3153,a
1772100597.552157,1635,a
1772100597.563164,1126,a
1772100597.574133,2685,a
1772100597.585143,2056,a
1772100597.596014,609,a
1772100597.60726,2270,a
1772100597.618144,2350,a
1772100597.62901,228,a
1772100597.642089,1963,a
1772100597.6511328,2629,a
1772100597.6621819,661,a
1772100597.673138,1823,a
1772100597.68414,2840,a
1772100597.6951401,1226,a
1772100597.70613,1539,a
1772100597.71714,3044,a
1772100597.728147,1735,a
1772100597.739168,1344,a
1772100597.7501261,3289,a
1772100597.762742,2383,a
1772100597.7736719,1084,a
1772100597.790668,3411,a
1772100597.794144,2877,a
1772100597.805064,821,a
1772100597.816137,3406,a
1772100597.827162,3397,a
1772100597.837989,525,a
1772100597.8491368,3399,a
1772100597.8622541,3505,a
1772100597.870991,294,a
1772100597.882421,3404,a
1772100597.893174,3515,a
1772100597.9040132,227,a
1772100597.9151528,3402,a
1772100597.926122,3510,a
1772100597.937003,454,a
1772100597.948427,3396,a
1772100597.965158,3511,a
1772100597.970453,817,a
1772100597.9844322,2901,a
1772100597.99213,3492,a
1772100598.003058,989,a
1772100598.0141492,2281,a
1772100598.025121,3429,a
1772100598.036167,1300,a
1772100598.0471702,1671,a
1772100598.058134,3203,a
1772100598.0691452,1623,a
1772100598.0824199,1156,a
1772100598.0911438,2750,a
1772100598.1026251,2024,a
1772100598.113039,526,a
1772100598.124126,2418,a
1772100598.135133,2338,a
1772100598.146007,209,a
1772100598.157114,2025,a
1772100598.168133,2541,a
1772100598.179015,757,a
1772100598.190121,1829,a
1772100598.201817,2742,a
1772100598.2121222,1201,a
1772100598.22316,1563,a
1772100598.234159,2927,a
1772100598.245149,1705,a
1772100598.256126,1306,a
1772100598.267157,3265,a
1772100598.278152,2322,a
1772100598.2891252,1145,a
1772100598.302478,3406,a
1772100598.311121,2923,a
1772100598.322748,848,a
1772100598.333153,3403,a
1772100598.344125,3341,a
1772100598.3549938,586,a
1772100598.366132,3400,a
1772100598.377145,3507,a
1772100598.387999,302,a
1772100598.399009,3404,a
1772100598.4101188,3512,a
1772100598.4228008,221,a
1772100598.432022,3399,a
1772100598.4430761,3516,a
1772100598.45402,452,a
1772100598.465006,3404,a
1772100598.476011,3509,a
1772100598.4870012,776,a
1772100598.4980469,2916,a
1772100598.509011,3487,a
1772100598.520036,1013,a
1772100598.531024,2344,a
1772100598.5431921,3475,a
1772100598.553015,1231,a
1772100598.564002,1765,a
1772100598.575007,3142,a
1772100598.5860329,1658,a
1772100598.597003,1115,a
1772100598.608006,2755,a
1772100598.619031,2070,a
1772100598.629958,633,a
1772100598.6449559,2329,a
1772100598.651996,2389,a
1772100598.663838,207,a
1772100598.674047,1966,a
1772100598.685466,2605,a
1772100598.697224,776,a
1772100598.7071419,1759,a
1772100598.718032,2757,a
1772100598.7295082,1267,a
1772100598.7400372,1397,a
1772100598.7510478,3034,a
1772100598.762806,1785,a
1772100598.773046,1218,a
1772100598.7840068,3259,a
1772100598.7950358,2374,a
1772100598.8060071,1159,a
1772100598.8170218,3409,a
1772100598.828032,3019,a
1772100598.8388999,823,a
1772100598.849988,3411,a
1772100598.863831,3511,a
1772100598.871897,490,a
1772100598.8837278,3405,a
1772100598.8940291,3511,a
1772100598.904876,227,a
1772100598.915992,3407,a
1772100598.9270039,3515,a
1772100598.937858,272,a
1772100598.948993,3404,a
1772100598.95999,3509,a
1772100598.970867,584,a
1772100598.983859,3375,a
1772100598.992995,3512,a
1772100599.003863,768,a
1772100599.014994,2811,a
1772100599.026001,3489,a
1772100599.036984,1018,a
1772100599.047997,2250,a
1772100599.059006,3436,a
1772100599.069993,1332,a
1772100599.0839171,1688,a
1772100599.092007,3165,a
1772100599.10382,1697,a
1772100599.1139991,1136,a
1772100599.124992,2737,a
1772100599.136,2012,a
1772100599.146878,540,a
1772100599.158005,2376,a
1772100599.168988,2354,a
1772100599.179896,216,a
1772100599.1910121,1997,a
1772100599.203927,2622,a
1772100599.212876,911,a
1772100599.2241302,1748,a
1772100599.235002,2753,a
1772100599.246001,1348,a
1772100599.256981,1462,a
1772100599.267993,3002,a
1772100599.278996,1810,a
1772100599.289981,1231,a
1772100599.303702,3258,a
1772100599.312011,2472,a
1772100599.323395,1030,a
1772100599.333997,3408,a
1772100599.344883,2973,a
1772100599.3558578,827,a
1772100599.366872,3409,a
1772100599.37789,3445,a
1772100599.388865,583,a
1772100599.40334,3407,a
1772100599.410888,3508,a
1772100599.424312,350,a
1772100599.4329002,3404,a
1772100599.443906,3516,a
1772100599.4548962,248,a
1772100599.4659042,3399,a
1772100599.476914,3514,a
1772100599.487892,467,a
1772100599.4989078,3403,a
1772100599.5099142,3515,a
1772100599.5236921,669,a
1772100599.531901,2903,a
1772100599.543488,3489,a
1772100599.553887,1052,a
1772100599.564876,2296,a
1772100599.575899,3468,a
1772100599.5869062,1411,a
1772100599.597881,1633,a
1772100599.6089,3102,a
1772100599.6232169,1933,a
1772100599.6308749,1070,a
1772100599.642839,2658,a
1772100599.652899,2074,a
1772100599.6638699,553,a
1772100599.6749,2336,a
1772100599.685861,2358,a
1772100599.696867,455,a
1772100599.7079198,1992,a
1772100599.7189,2634,a
1772100599.729865,948,a
1772100599.743744,1715,a
1772100599.751889,2874,a
1772100599.763714,1288,a
1772100599.773878,1427,a
1772100599.784889,3126,a
1772100599.79585,1887,a
1772100599.806905,1168,a
1772100599.817864,3299,a
1772100599.8288891,2608,a
1772100599.8398972,1110,a
1772100599.8508952,3407,a
1772100599.86342,3344,a
1772100599.87274,822,a
1772100599.883889,3403,a
1772100599.894896,3506,a
1772100599.905741,588,a
1772100599.916901,3409,a
1772100599.927867,3519,a
1772100599.9387698,296,a
1772100599.949897,3401,a
1772100599.963281,3511,a
1772100599.97174,308,a
1772100599.984055,3403,a
1772100599.9938931,3507,a
1772100600.004791,855,a
1772100600.015894,3410,a
1772100600.02688,3511,a
1772100600.037879,1208,a
1772100600.0488691,3403,a
1772100600.05989,3512,a
1772100600.070878,1709,a
1772100600.083951,2719,a
1772100600.092915,3490,a
1772100600.10388,2206,a
1772100600.114892,1839,a
1772100600.125888,3413,a
1772100600.136863,2773,a
1772100600.147989,1125,a
1772100600.158883,3407,a
1772100600.169869,3351,a
1772100600.183968,385,a
1772100600.1918662,3403,a
1772100600.2035022,3515,a
1772100600.213862,1337,a
1772100600.224873,3134,a
1772100600.235882,3496,a
1772100600.246857,2132,a
1772100600.257854,2536,a
1772100600.2689002,3472,a
1772100600.279853,2654,a
1772100600.290872,2247,a
1772100600.3041332,3474,a
1772100600.312855,3512,a
1772100600.324288,2261,a
1772100600.3348658,3467,a
1772100600.34586,3516,a
1772100600.356884,1738,a
1772100600.367885,3419,a
1772100600.378858,3517,a
1772100600.389853,1140,a
1772100600.404244,3411,a
1772100600.411881,3511,a
1772100600.423677,485,a
1772100600.433771,3402,a
1772100600.444745,3511,a
1772100600.4557629,320,a
1772100600.466736,3405,a
1772100600.477778,3511,a
1772100600.488964,661,a
1772100600.5038662,3409,a
1772100600.510901,3510,a
1772100600.523762,1453,a
1772100600.532773,3418,a
1772100600.544694,3512,a
1772100600.5547352,2104,a
1772100600.5657432,3473,a
1772100600.5767722,3517,a
1772100600.587758,2421,a
1772100600.5987468,3478,a
1772100600.609762,3519,a
1772100600.624424,3392,a
1772100600.631736,2717,a
1772100600.644594,3486,a
1772100600.653756,3515,a
1772100600.664732,1174,a
1772100600.675783,3412,a
1772100600.686731,3513,a
1772100600.697737,530,a
1772100600.708768,3411,a
1772100600.719738,3506,a
1772100600.730774,2104,a
1772100600.743972,3465,a
1772100600.7527459,3515,a
1772100600.763783,3329,a
1772100600.774775,3509,a
1772100600.785759,3523,a
1772100600.796819,3515,a
1772100600.807721,2972,a
1772100600.818731,3501,a
1772100600.82983,3515,a
1772100600.8437881,2382,a
1772100600.8517718,3483,a
1772100600.864588,3519,a
1772100600.873748,1643,a
1772100600.884798,3417,a
1772100600.8957682,3517,a
1772100600.906718,439,a
1772100600.917773,3399,a
1772100600.928763,3509,a
1772100600.939758,294,a
1772100600.950759,3403,a
1772100600.9646568,3509,a
1772100600.97265,293,a
1772100600.984621,3405,a
1772100600.994766,3515,a
1772100601.005622,699,a
1772100601.016762,3415,a
1772100601.027764,3521,a
1772100601.0387251,1132,a
1772100601.049761,3413,a
1772100601.06482,3511,a
1772100601.071729,1533,a
1772100601.084172,3417,a
1772100601.093775,3514,a
1772100601.1048262,1967,a
1772100601.1157591,3151,a
1772100601.1267252,3510,a
1772100601.137748,2469,a
1772100601.1487842,2349,a
1772100601.163782,3471,a
1772100601.170711,3146,a
1772100601.184526,1507,a
1772100601.1927512,3412,a
1772100601.2039082,3340,a
1772100601.214632,589,a
1772100601.225729,3296,a
1772100601.236761,3503,a
1772100601.24773,1111,a
1772100601.258757,2944,a
1772100601.269738,3495,a
1772100601.283917,1801,a
1772100601.291737,2530,a
1772100601.3046951,3479,a
1772100601.313731,2499,a
1772100601.324737,2005,a
1772100601.3357508,3416,a
1772100601.3467362,3269,a
1772100601.357716,1770,a
1772100601.368764,3417,a
1772100601.379777,3512,a
1772100601.390764,1470,a
1772100601.404122,3421,a
1772100601.412755,3513,a
1772100601.424782,954,a
1772100601.434763,3412,a
1772100601.4457312,3511,a
1772100601.456604,499,a
1772100601.4677591,3404,a
1772100601.478755,3516,a
1772100601.489633,297,a
1772100601.504868,3402,a
1772100601.511731,3510,a
1772100601.524859,736,a
1772100601.533757,3405,a
1772100601.544738,3516,a
1772100601.5557609,1152,a
1772100601.566721,3409,a
1772100601.5777762,3519,a
1772100601.588733,1662,a
1772100601.599759,3415,a
1772100601.610621,3510,a
1772100601.6247628,2013,a
1772100601.632621,2817,a
1772100601.645004,3485,a
1772100601.65461,2523,a
1772100601.665632,2065,a
1772100601.6766121,3460,a
1772100601.6876009,3004,a
1772100601.698605,1087,a
1772100601.709634,3404,a
1772100601.724959,3459,a
1772100601.731622,331,a
1772100601.745379,3265,a
1772100601.7535958,3507,a
1772100601.765653,1056,a
1772100601.77564,2786,a
1772100601.7866151,3489,a
1772100601.7976372,1804,a
1772100601.808634,2268,a
1772100601.819607,3463,a
1772100601.830611,2611,a
1772100601.8453708,1882,a
1772100601.8525991,3421,a
1772100601.8649971,3347,a
1772100601.8746061,1639,a
1772100601.885601,3417,a
1772100601.896605,3506,a
1772100601.907594,1223,a
1772100601.918607,3411,a
1772100601.929599,3511,a
1772100601.9447832,785,a
1772100601.9516318,3409,a
1772100601.965986,3508,a
1772100601.973517,499,a
1772100601.9848971,3404,a
1772100601.995596,3515,a
1772100602.006481,348,a
1772100602.0176032,3401,a
1772100602.0286021,3515,a
1772100602.044977,725,a
1772100602.0505989,3409,a
1772100602.0662222,3511,a
1772100602.072607,1229,a
1772100602.085561,3406,a
1772100602.0946062,3513,a
1772100602.105608,1514,a
1772100602.116596,3410,a
1772100602.1276019,3512,a
1772100602.138593,2102,a
1772100602.149606,2789,a
1772100602.1657321,3492,a
1772100602.1715908,2586,a
1772100602.18529,2013,a
1772100602.193606,3417,a
1772100602.205019,3171,a
1772100602.215606,1060,a
1772100602.226596,3405,a
1772100602.237586,3498,a
1772100602.2484941,283,a
1772100602.2596118,3118,a
1772100602.2705941,3501,a
1772100602.285672,1156,a
1772100602.292613,2704,a
1772100602.30587,3489,a
1772100602.314483,1840,a
1772100602.32549,2262,a
1772100602.336511,3466,a
1772100602.3474948,2765,a
1772100602.3585029,1869,a
1772100602.369505,3422,a
1772100602.384845,3503,a
1772100602.3914602,1600,a
1772100602.405385,3418,a
1772100602.413482,3511,a
1772100602.424938,1111,a
1772100602.4355001,3410,a
1772100602.446476,3513,a
1772100602.457505,790,a
1772100602.468514,3406,a
1772100602.479507,3516,a
1772100602.4903932,366,a
1772100602.504734,3400,a
1772100602.512467,3509,a
1772100602.5239758,365,a
1772100602.5345001,3398,a
1772100602.545486,3511,a
1772100602.5563772,810,a
1772100602.5674932,3403,a
1772100602.5784729,3513,a
1772100602.589494,1187,a
1772100602.6048589,3410,a
1772100602.611475,3508,a
1772100602.624779,1618,a
1772100602.6335082,3410,a
1772100602.6446972,3515,a
1772100602.655497,1968,a
1772100602.666482,2565,a
1772100602.677474,3488,a
1772100602.688496,2623,a
1772100602.699499,1772,a
1772100602.7104719,3414,a
1772100602.7247958,3082,a
1772100602.732376,843,a
1772100602.744392,3404,a
1772100602.754449,3515,a
1772100602.765376,388,a
1772100602.776372,3016,a
1772100602.787356,3491,a
1772100602.798367,1344,a
1772100602.8093781,2441,a
1772100602.823919,3472,a
1772100602.831378,2008,a
1772100602.8448598,2169,a
1772100602.853353,3468,a
1772100602.86468,2887,a
1772100602.875377,1904,a
1772100602.886344,3418,a
1772100602.897387,3509,a
1772100602.908341,1502,a
1772100602.9242089,3412,a
1772100602.93037,3515,a
1772100602.944957,1123,a
1772100602.952356,3411,a
1772100602.96484,3505,a
1772100602.9742222,708,a
1772100602.985358,3408,a
1772100602.996368,3514,a
1772100603.007251,347,a
1772100603.018368,3403,a
1772100603.029366,3519,a
1772100603.044756,431,a
1772100603.051378,3404,a
1772100603.064255,3512,a
1772100603.073232,894,a
1772100603.084636,3409,a
1772100603.095365,3512,a
1772100603.106339,1281,a
1772100603.117366,3411,a
1772100603.1283698,3511,a
1772100603.139363,1777,a
1772100603.1504068,3199,a
1772100603.16462,3502,a
1772100603.172364,2109,a
1772100603.184421,2277,a
1772100603.1943731,3475,a
1772100603.20535,2705,a
1772100603.216369,1468,a
1772100603.2273731,3415,a
1772100603.2383769,3157,a
1772100603.249233,452,a
1772100603.264641,3335,a
1772100603.271332,3509,a
1772100603.284596,675,a
1772100603.293237,2854,a
1772100603.3042939,3486,a
1772100603.3152509,1686,a
1772100603.3262248,2554,a
1772100603.337216,3474,a
1772100603.348248,1970,a
1772100603.359253,2060,a
1772100603.370249,3462,a
1772100603.384195,3082,a
1772100603.392261,2181,a
1772100603.404735,3475,a
1772100603.4142458,3517,a
1772100603.42521,2265,a
1772100603.436248,3476,a
1772100603.447253,3515,a
1772100603.458216,1556,a
1772100603.469234,3415,a
1772100603.48427,3514,a
1772100603.4911969,849,a
1772100603.503804,3405,a
1772100603.5132082,3509,a
1772100603.524396,364,a
1772100603.535247,3407,a
1772100603.546266,3513,a
1772100603.5572412,640,a
1772100603.5682719,3401,a
1772100603.579247,3515,a
1772100603.590246,1152,a
1772100603.604387,3410,a
1772100603.612243,3517,a
1772100603.624361,1775,a
1772100603.634243,3413,a
1772100603.64521,3507,a
1772100603.6562371,2381,a
1772100603.6672409,2007,a
1772100603.678216,3418,a
1772100603.6892369,2969,a
1772100603.703915,390,a
1772100603.7112162,3404,a
1772100603.72368,3507,a
1772100603.733244,1474,a
1772100603.744373,3412,a
1772100603.7552571,3507,a
1772100603.766206,1510,a
1772100603.7772381,3415,a
1772100603.788203,3515,a
1772100603.799252,1547,a
1772100603.810238,3411,a
1772100603.824378,3512,a
1772100603.8322449,1649,a
1772100603.8443918,3410,a
1772100603.854202,3512,a
1772100603.865228,1829,a
1772100603.8762188,3411,a
1772100603.887241,3511,a
1772100603.898241,1981,a
1772100603.909199,3415,a
1772100603.924525,3514,a
1772100603.931239,1290,a
1772100603.9439518,3125,a
1772100603.9532402,3501,a
1772100603.96467,731,a
1772100603.9752378,2590,a
1772100603.986221,2662,a
1772100603.9971042,512,a
1772100604.008245,1945,a
1772100604.0192041,1115,a
1772100604.0300841,343,a
1772100604.044169,1522,a
1772100604.0518558,0,a
1772100604.064864,265,a
1772100604.074083,1147,a
1772100604.084853,9,a
1772100604.0960839,225,a
1772100604.1070971,682,a
1772100604.117904,0,a
1772100604.129079,196,a
1772100604.140109,413,a
1772100604.1508539,0,a
1772100604.1671832,173,a
1772100604.173084,294,a
1772100604.185229,0,a
1772100604.1949859,186,a
1772100604.205973,391,a
1772100604.2168572,0,a
1772100604.227974,203,a
1772100604.2391129,2513,a
1772100604.2499928,357,a
1772100604.264846,3402,a
1772100604.272079,3513,a
1772100604.284978,1770,a
1772100604.294087,3416,a
1772100604.305087,3511,a
1772100604.3159711,697,a
1772100604.32708,3360,a
1772100604.3380759,3505,a
1772100604.34908,1951,a
1772100604.360081,2395,a
1772100604.37107,3472,a
1772100604.3852139,2537,a
1772100604.393093,2069,a
1772100604.405535,3463,a
1772100604.415083,3514,a
1772100604.42608,1998,a
1772100604.4370801,3414,a
1772100604.448114,3514,a
1772100604.459084,1461,a
1772100604.470083,3415,a
1772100604.4849658,3515,a
1772100604.491958,962,a
1772100604.5047958,3409,a
1772100604.514092,3521,a
1772100604.5249631,454,a
1772100604.5360792,3404,a
1772100604.547091,3509,a
1772100604.557964,276,a
1772100604.56907,3402,a
1772100604.580079,3516,a
1772100604.590951,799,a
1772100604.60517,3406,a
1772100604.6130931,3514,a
1772100604.625491,1363,a
1772100604.635078,3411,a
1772100604.64608,3514,a
1772100604.657093,1804,a
1772100604.667975,3418,a
1772100604.678963,3517,a
1772100604.690002,2356,a
1772100604.705697,2959,a
1772100604.7120068,3493,a
1772100604.725769,2859,a
1772100604.733987,1959,a
1772100604.745315,3415,a
1772100604.7559638,3317,a
1772100604.766952,975,a
1772100604.7779682,3403,a
1772100604.7890291,3514,a
1772100604.799875,342,a
1772100604.8110158,3401,a
1772100604.824781,3512,a
1772100604.832986,1392,a
1772100604.844086,2957,a
1772100604.854989,3487,a
1772100604.8659651,2228,a
1772100604.876986,2555,a
1772100604.88798,3486,a
1772100604.898995,3187,a
1772100604.909983,1995,a
1772100604.9240708,3415,a
1772100604.931975,3510,a
1772100604.944875,1775,a
1772100604.9539819,3416,a
1772100604.964986,3518,a
1772100604.9759822,1197,a
1772100604.9869819,3411,a
1772100604.9979572,3519,a
1772100605.008859,691,a
1772100605.019983,3406,a
1772100605.030949,3511,a
1772100605.044495,339,a
1772100605.0529568,3401,a
1772100605.064044,3511,a
1772100605.074831,444,a
1772100605.08596,3403,a
1772100605.096949,3511,a
1772100605.107934,1011,a
1772100605.118955,3406,a
1772100605.129982,3515,a
1772100605.14401,1414,a
1772100605.151862,3409,a
1772100605.163657,3517,a
1772100605.173812,1932,a
1772100605.1848261,3409,a
1772100605.19587,3516,a
1772100605.206857,2465,a
1772100605.2178938,2540,a
1772100605.228863,3476,a
1772100605.24383,3088,a
1772100605.250859,1615,a
1772100605.2644649,3414,a
1772100605.272824,3507,a
1772100605.284384,651,a
1772100605.2948391,3410,a
1772100605.3058429,3507,a
1772100605.316753,682,a
1772100605.327827,3176,a
1772100605.33885,3502,a
1772100605.349914,1863,a
1772100605.364706,2754,a
1772100605.3718212,3487,a
1772100605.384802,2618,a
1772100605.3938591,2320,a
1772100605.4048269,3475,a
1772100605.4158568,3508,a
1772100605.4268548,1918,a
1772100605.437835,3421,a
1772100605.448854,3513,a
1772100605.464023,1583,a
1772100605.4708102,3415,a
1772100605.484499,3507,a
1772100605.4928489,1087,a
1772100605.503835,3409,a
1772100605.514855,3514,a
1772100605.525779,637,a
1772100605.536868,3402,a
1772100605.548461,3513,a
1772100605.558729,304,a
1772100605.569827,3405,a
1772100605.584487,3507,a
1772100605.591702,664,a
1772100605.604604,3405,a
1772100605.61385,3515,a
1772100605.62481,1255,a
1772100605.635839,3416,a
1772100605.6468558,3514,a
1772100605.657844,1687,a
1772100605.668857,3413,a
1772100605.683897,3507,a
1772100605.69069,2206,a
1772100605.704032,3163,a
1772100605.7127092,3509,a
1772100605.72444,2817,a
1772100605.734737,2307,a
1772100605.7457228,3471,a
1772100605.756727,3311,a
1772100605.767725,1303,a
1772100605.778741,3411,a
1772100605.789728,3508,a
1772100605.803711,450,a
1772100605.81172,3390,a
1772100605.823379,3506,a
1772100605.833733,1004,a
1772100605.844793,3102,a
1772100605.8557272,3505,a
1772100605.866733,1944,a
1772100605.877731,2628,a
1772100605.8887239,3480,a
1772100605.899719,2890,a
1772100605.91073,2271,a
1772100605.924269,3469,a
1772100605.932726,3513,a
1772100605.9437,1791,a
1772100605.9547222,3412,a
1772100605.965726,3507,a
1772100605.976717,1584,a
1772100605.987743,3413,a
1772100605.998703,3514,a
1772100606.009687,1147,a
1772100606.0236428,3412,a
1772100606.031719,3513,a
1772100606.043264,562,a
1772100606.0537019,3408,a
1772100606.0646908,3512,a
1772100606.075626,276,a
1772100606.086726,3399,a
1772100606.097698,3519,a
1772100606.1086001,740,a
1772100606.1233249,3411,a
1772100606.130698,3519,a
1772100606.144186,1293,a
1772100606.1527271,3411,a
1772100606.1637702,3515,a
1772100606.174699,1722,a
1772100606.185678,3407,a
1772100606.1966872,3512,a
1772100606.207721,2280,a
1772100606.2187252,3153,a
1772100606.229739,3501,a
1772100606.244189,2770,a
1772100606.251696,2231,a
1772100606.2641249,3481,a
1772100606.273715,3373,a
1772100606.284698,1242,a
1772100606.295694,3406,a
1772100606.306717,3508,a
1772100606.317597,387,a
1772100606.328715,3396,a
1772100606.3439622,3510,a
1772100606.3507142,1131,a
1772100606.36424,3190,a
1772100606.372724,3498,a
1772100606.385049,2148,a
1772100606.394691,2710,a
1772100606.4057002,3493,a
1772100606.4167008,2921,a
1772100606.427695,2185,a
1772100606.438696,3469,a
1772100606.44969,3513,a
1772100606.465018,1833,a
1772100606.47172,3416,a
1772100606.484782,3506,a
1772100606.493728,1498,a
1772100606.504699,3414,a
1772100606.515742,3511,a
1772100606.5265799,1020,a
1772100606.537559,3413,a
1772100606.548585,3516,a
1772100606.559566,441,a
1772100606.570573,3403,a
1772100606.584621,3522,a
1772100606.5925918,310,a
1772100606.6051,3403,a
1772100606.614572,3511,a
1772100606.6255648,755,a
1772100606.63658,3401,a
1772100606.647574,3515,a
1772100606.658571,1266,a
1772100606.6695712,3408,a
1772100606.685049,3511,a
1772100606.6915772,1783,a
1772100606.706444,3416,a
1772100606.713581,3510,a
1772100606.725162,2086,a
1772100606.735564,3076,a
1772100606.746562,3501,a
1772100606.7575831,2771,a
1772100606.768575,2118,a
1772100606.779596,3469,a
1772100606.790563,3348,a
1772100606.804796,1226,a
1772100606.812567,3407,a
1772100606.8254888,3512,a
1772100606.834469,323,a
1772100606.8455622,3399,a
1772100606.856564,3505,a
1772100606.867562,1487,a
1772100606.8785658,3394,a
1772100606.889566,3514,a
1772100606.905173,2456,a
1772100606.9115672,3081,a
1772100606.925285,3502,a
1772100606.933569,3513,a
1772100606.945415,3000,a
1772100606.95557,3502,a
1772100606.966572,3518,a
1772100606.9775648,2737,a
1772100606.9885619,3495,a
1772100607.004534,3519,a
1772100607.010571,2375,a
1772100607.024584,3478,a
1772100607.032588,3511,a
1772100607.045229,2218,a
1772100607.054562,3471,a
1772100607.065574,3357,a
1772100607.076566,1827,a
1772100607.0876002,3419,a
1772100607.09858,2798,a
1772100607.109607,1271,a
1772100607.1255648,3412,a
1772100607.1316302,1558,a
1772100607.1450791,1310,a
1772100607.153596,108,a
1772100607.164588,429,a
1772100607.17562,1088,a
1772100607.1864362,11,a
1772100607.197591,156,a
1772100607.208601,651,a
1772100607.219349,0,a
1772100607.2304409,36,a
1772100607.243876,294,a
1772100607.252347,0,a
1772100607.264666,0,a
1772100607.274477,64,a
1772100607.285439,0,a
1772100607.296432,0,a
1772100607.3074582,0,a
1772100607.318464,0,a
1772100607.329468,0,a
1772100607.343745,0,a
1772100607.351438,0,a
1772100607.364471,0,a
1772100607.3734279,0,a
1772100607.384428,0,a
1772100607.395465,0,a
1772100607.406444,0,a
1772100607.4174678,0,a
1772100607.4284549,0,a
1772100607.43942,0,a
1772100607.450463,0,a
1772100607.4637692,0,a
1772100607.4724312,0,a
1772100607.48417,0,a
1772100607.494464,0,a
1772100607.505433,0,a
1772100607.51647,0,a
1772100607.527462,0,a
1772100607.5384629,0,a
1772100607.549463,0,a
1772100607.563263,0,a
1772100607.5714638,0,a
1772100607.584071,0,a
1772100607.593488,0,a
1772100607.60444,0,a
1772100607.6154728,0,a
1772100607.626446,0,a
1772100607.637604,0,a
1772100607.6484501,0,a
1772100607.6600142,0,a
1772100607.67047,0,a
1772100607.684216,0,a
1772100607.692456,0,a
1772100607.7037811,0,a
1772100607.7145631,0,a
1772100607.725556,0,a
1772100607.736593,0,a
1772100607.7475898,0,a
1772100607.758595,0,a
1772100607.769589,0,a
1772100607.784123,0,a
1772100607.791574,0,a
1772100607.803052,0,a
1772100607.813586,0,a
1772100607.824553,0,a
1772100607.835585,0,a
1772100607.846551,0,a
1772100607.8575912,0,a
1772100607.868586,0,a
1772100607.879601,0,a
1772100607.890581,0,a
1772100607.904114,0,a
1772100607.9125602,0,a
1772100607.923966,0,a
1772100607.934567,0,a
1772100607.9455879,0,a
1772100607.956581,0,a
1772100607.967586,0,a
1772100607.978579,0,a
1772100607.989855,2314,a
1772100608.003654,229,a
1772100608.0118349,3394,a
1772100608.023583,3511,a
1772100608.033834,2208,a
1772100608.044807,2019,a
1772100608.0558238,3417,a
1772100608.066825,3507,a
1772100608.0778828,1407,a
1772100608.088827,3410,a
1772100608.1030972,3509,a
1772100608.1108322,1091,a
1772100608.123044,3411,a
1772100608.132821,3511,a
1772100608.143712,752,a
1772100608.1548002,3409,a
1772100608.165833,3513,a
1772100608.1767209,314,a
1772100608.187828,3400,a
1772100608.198835,3511,a
1772100608.209707,285,a
1772100608.2236328,3405,a
1772100608.23184,3513,a
1772100608.243646,826,a
1772100608.253825,3405,a
1772100608.264831,3511,a
1772100608.275837,1411,a
1772100608.286836,3411,a
1772100608.297836,3511,a
1772100608.308845,1916,a
1772100608.319835,3417,a
1772100608.330837,3521,a
1772100608.343133,2466,a
1772100608.352837,3259,a
1772100608.36383,3510,a
1772100608.3748028,3166,a
1772100608.385822,2270,a
1772100608.396802,3478,a
1772100608.4078138,3413,a
1772100608.418813,1099,a
1772100608.4298298,3403,a
1772100608.443279,3509,a
1772100608.4518132,389,a
1772100608.4640121,3402,a
1772100608.473799,3511,a
1772100608.4848351,1197,a
1772100608.495954,3172,a
1772100608.506954,3501,a
1772100608.5179698,2121,a
1772100608.528979,2906,a
1772100608.539949,3482,a
1772100608.550932,3124,a
1772100608.563769,2436,a
1772100608.572934,3481,a
1772100608.583955,3511,a
1772100608.594955,2010,a
1772100608.605976,3421,a
1772100608.616962,3512,a
1772100608.627962,1568,a
1772100608.6389492,3413,a
1772100608.64995,3509,a
1772100608.663502,971,a
1772100608.6719239,3407,a
1772100608.6836338,3514,a
1772100608.6938329,506,a
1772100608.7049239,3399,a
1772100608.715921,3507,a
1772100608.7268429,323,a
1772100608.737967,3402,a
1772100608.748945,3515,a
1772100608.763076,640,a
1772100608.7709062,3408,a
1772100608.783654,3515,a
1772100608.7929568,1244,a
1772100608.803911,3414,a
1772100608.814958,3511,a
1772100608.825922,1804,a
1772100608.836939,3415,a
1772100608.847928,3514,a
1772100608.859544,2225,a
1772100608.869955,3463,a
1772100608.88378,3515,a
1772100608.891911,2767,a
1772100608.9034932,2609,a
1772100608.913981,3485,a
1772100608.924909,3414,a
1772100608.935911,1752,a
1772100608.946948,3414,a
1772100608.957937,3515,a
1772100608.9688032,720,a
1772100608.9836118,3401,a
1772100608.990936,3508,a
1772100609.004045,700,a
1772100609.012932,3263,a
1772100609.0241039,3504,a
1772100609.03494,1714,a
1772100609.045999,2932,a
1772100609.056926,3489,a
1772100609.067926,2556,a
1772100609.0789278,2547,a
1772100609.089932,3480,a
1772100609.10423,3418,a
1772100609.1119308,2159,a
1772100609.12364,3465,a
1772100609.133939,3511,a
1772100609.144926,1703,a
1772100609.1559339,3421,a
1772100609.166935,3513,a
1772100609.17792,1174,a
1772100609.188954,3407,a
1772100609.199957,3515,a
1772100609.2108412,649,a
1772100609.2240698,3408,a
1772100609.23293,3507,a
1772100609.244419,292,a
1772100609.2549171,3401,a
1772100609.265918,3511,a
1772100609.2769039,429,a
1772100609.287922,3404,a
1772100609.298979,3518,a
1772100609.3098261,781,a
1772100609.3247921,3403,a
1772100609.3319309,3510,a
1772100609.3443751,1415,a
1772100609.353927,3405,a
1772100609.364931,3508,a
1772100609.3759308,1894,a
1772100609.386921,3413,a
1772100609.397933,3507,a
1772100609.4089332,2362,a
1772100609.419926,3199,a
1772100609.430926,3509,a
1772100609.4446368,2808,a
1772100609.4529312,2181,a
1772100609.4640052,3466,a
1772100609.474942,3504,a
1772100609.4859378,1141,a
1772100609.4969332,3410,a
1772100609.507929,3512,a
1772100609.518929,355,a
1772100609.5299351,3402,a
1772100609.5440981,3510,a
1772100609.551924,998,a
1772100609.56379,3293,a
1772100609.573917,3503,a
1772100609.584939,2153,a
1772100609.5959308,2849,a
1772100609.606926,3494,a
1772100609.617919,2997,a
1772100609.62894,2315,a
1772100609.6434119,3471,a
1772100609.6509209,3509,a
1772100609.66483,1974,a
1772100609.672954,3422,a
1772100609.684617,3511,a
1772100609.694941,1496,a
1772100609.705936,3413,a
1772100609.716922,3515,a
1772100609.727964,1011,a
1772100609.7389288,3408,a
1772100609.749962,3513,a
1772100609.764482,479,a
1772100609.771929,3409,a
1772100609.783787,3515,a
1772100609.793952,328,a
1772100609.80493,3405,a
1772100609.8159559,3512,a
1772100609.82692,629,a
1772100609.838036,3408,a
1772100609.849071,3510,a
1772100609.863688,1122,a
1772100609.8710241,3413,a
1772100609.884126,3509,a
1772100609.893069,1626,a
1772100609.904194,3411,a
1772100609.915068,3513,a
1772100609.926058,1967,a
1772100609.937068,3413,a
1772100609.948073,3519,a
1772100609.959071,2517,a
1772100609.9700701,2637,a
1772100609.983818,3483,a
1772100609.992064,3170,a
1772100610.003884,1784,a
1772100610.014045,3413,a
1772100610.025023,3506,a
1772100610.035916,843,a
1772100610.047036,3407,a
1772100610.058038,3508,a
1772100610.069029,1727,a
1772100610.080045,3408,a
1772100610.0910661,3515,a
1772100610.103006,2762,a
1772100610.113054,3488,a
1772100610.1240551,3511,a
1772100610.135071,3515,a
1772100610.146037,3513,a
1772100610.15711,3513,a
1772100610.168072,3339,a
1772100610.179069,3435,a
1772100610.190071,3519,a
1772100610.203056,2710,a
1772100610.211922,3048,a
1772100610.2232451,3498,a
1772100610.233951,1954,a
1772100610.2449422,2656,a
1772100610.255949,3493,a
1772100610.26695,1449,a
1772100610.2779489,2347,a
1772100610.2889469,3473,a
1772100610.299951,1130,a
1772100610.311092,1911,a
1772100610.323807,2531,a
1772100610.3329222,870,a
1772100610.344052,1663,a
1772100610.354914,272,a
1772100610.365916,639,a
1772100610.377099,1071,a
1772100610.3877802,54,a
1772100610.398945,476,a
1772100610.4099479,936,a
1772100610.4231849,0,a
1772100610.4316978,0,a
1772100610.4429061,0,a
1772100610.453679,0,a
1772100610.4647129,0,a
1772100610.475708,0,a
1772100610.486699,0,a
1772100610.497674,0,a
1772100610.508692,0,a
1772100610.5226262,0,a
1772100610.5306702,0,a
1772100610.543241,0,a
1772100610.552692,0,a
1772100610.563703,0,a
1772100610.574663,0,a
1772100610.585665,0,a
1772100610.5967,0,a
1772100610.6076748,0,a
1772100610.618701,0,a
1772100610.629656,0,a
1772100610.642714,0,a
1772100610.651694,0,a
1772100610.663601,0,a
1772100610.673706,0,a
1772100610.684682,0,a
1772100610.6957,0,a
1772100610.7066739,0,a
1772100610.7176719,0,a
1772100610.728697,0,a
1772100610.743096,0,a
1772100610.7507,0,a
1772100610.763399,0,a
1772100610.772704,0,a
1772100610.783665,0,a
1772100610.794674,0,a
1772100610.805712,0,a
1772100610.816693,0,a
1772100610.8276951,0,a
1772100610.8387032,0,a
1772100610.8496928,0,a
1772100610.8634932,0,a
1772100610.8716931,0,a
1772100610.8835342,0,a
1772100610.8943648,0,a
1772100610.9048,0,a
1772100610.915794,0,a
1772100610.926794,0,a
1772100610.937778,0,a
1772100610.948822,0,a
1772100610.959798,0,a
1772100610.9707851,0,a
1772100610.9835799,25,a
1772100610.99293,894,a
1772100611.003833,85,a
1772100611.015042,2421,a
1772100611.026048,2855,a
1772100611.03692,352,a
1772100611.048033,3400,a
1772100611.0590389,3509,a
1772100611.070032,1595,a
1772100611.0839171,3410,a
1772100611.0920498,3514,a
1772100611.103599,745,a
1772100611.114059,3404,a
1772100611.125056,3509,a
1772100611.135944,797,a
1772100611.147038,3221,a
1772100611.15803,3506,a
1772100611.169031,1788,a
1772100611.1800299,2669,a
1772100611.191041,3489,a
1772100611.203895,2998,a
1772100611.2130728,2634,a
1772100611.224023,3484,a
1772100611.23503,3513,a
1772100611.246037,2102,a
1772100611.257025,3466,a
1772100611.268029,3521,a
1772100611.278925,1595,a
1772100611.289902,3415,a
1772100611.30353,3512,a
1772100611.311938,1072,a
1772100611.323393,3407,a
1772100611.333913,3515,a
1772100611.344919,469,a
1772100611.355906,3405,a
1772100611.366923,3513,a
1772100611.3779159,247,a
1772100611.388923,3397,a
1772100611.40324,3518,a
1772100611.410909,740,a
1772100611.424167,3405,a
1772100611.4329321,3513,a
1772100611.4441228,1179,a
1772100611.454914,3411,a
1772100611.4659252,3511,a
1772100611.476921,1821,a
1772100611.487912,3414,a
1772100611.498914,3510,a
1772100611.509936,2318,a
1772100611.524145,3454,a
1772100611.531908,3515,a
1772100611.543544,2682,a
1772100611.553896,2465,a
1772100611.564905,3478,a
1772100611.575912,3375,a
1772100611.586897,1347,a
1772100611.597912,3409,a
1772100611.608932,3512,a
1772100611.623324,475,a
1772100611.630944,3398,a
1772100611.6435719,3510,a
1772100611.65293,1007,a
1772100611.663915,3243,a
1772100611.6787221,3509,a
1772100611.6903481,1995,a
1772100611.6974232,2807,a
1772100611.709943,3486,a
1772100611.718915,2732,a
1772100611.729915,2306,a
1772100611.742906,3477,a
1772100611.751907,3514,a
1772100611.763594,1976,a
1772100611.773941,3421,a
1772100611.784939,3512,a
1772100611.7959151,1667,a
1772100611.8069289,3415,a
1772100611.818893,3509,a
1772100611.830741,1264,a
1772100611.8399239,3414,a
1772100611.850904,3512,a
1772100611.89952,675,a
1772100611.899621,3408,a
1772100611.899681,3517,a
1772100611.899729,265,a
1772100611.906212,3401,a
1772100611.933229,3511,a
1772100611.933697,432,a
1772100611.938912,3400,a
1772100611.956905,3518,a
1772100611.9648378,1152,a
1772100611.985779,3412,a
1772100611.985835,3515,a
1772100611.996084,1713,a
1772100612.065624,3411,a
1772100612.066591,3514,a
1772100612.066647,2112,a
1772100612.068011,3465,a
1772100612.0680552,3513,a
1772100612.0680919,2648,a
1772100612.0722618,2670,a
1772100612.08553,3488,a
1772100612.096572,3117,a
1772100612.14637,1651,a
1772100612.14643,3414,a
1772100612.146467,3509,a
1772100612.146498,720,a
1772100612.202545,3403,a
1772100612.202602,3514,a
1772100612.202636,584,a
1772100612.2026722,3309,a
1772100612.202707,3513,a
1772100612.213026,1517,a
1772100612.225554,2941,a
1772100612.225752,3495,a
1772100612.2382588,2537,a
1772100612.2471838,2519,a
1772100612.267642,3485,a
1772100612.286405,3232,a
1772100612.2864761,2112,a
1772100612.295381,3472,a
1772100612.312673,3511,a
1772100612.313021,1791,a
1772100612.396636,3422,a
1772100612.396708,3512,a
1772100612.3967519,1319,a
1772100612.3967922,3411,a
1772100612.396832,3509,a
1772100612.396866,751,a
1772100612.396904,3415,a
1772100612.449183,3511,a
1772100612.4494421,293,a
1772100612.449492,3398,a
1772100612.449533,3512,a
1772100612.449567,442,a
1772100612.497931,3399,a
1772100612.4980412,3508,a
1772100612.498094,876,a
1772100612.498146,3406,a
1772100612.5095072,3517,a
1772100612.5111291,1708,a
1772100612.6123269,3412,a
1772100612.666743,3517,a
1772100612.729065,1833,a
1772100612.7291882,3423,a
1772100612.729249,3507,a
1772100612.729302,2046,a
1772100612.729354,2847,a
1772100612.729405,3487,a
1772100612.729455,2939,a
1772100612.729506,2166,a
1772100612.729557,3468,a
1772100612.7296672,3385,a
1772100612.7303848,1082,a
1772100612.7304451,3403,a
1772100612.730488,3507,a
1772100612.730535,405,a
1772100612.730627,3403,a
1772100612.730669,3511,a
1772100612.730708,2281,a
1772100612.735605,3469,a
1772100612.765664,3509,a
1772100612.76574,3512,a
1772100612.765787,3517,a
1772100612.778597,3518,a
1772100612.809462,3506,a
1772100612.80953,3516,a
1772100612.8095732,3520,a
1772100612.858849,2760,a
1772100612.858916,3483,a
1772100612.8589592,3515,a
1772100612.858999,2157,a
1772100612.890048,3221,a
1772100612.890528,3505,a
1772100612.8905752,1651,a
1772100612.896291,2917,a
1772100612.945816,3491,a
1772100612.945916,1255,a
1772100612.945982,2758,a
1772100612.9461162,2968,a
1772100613.0706692,674,a
1772100613.07074,327,a
1772100613.0707688,0,a
1772100613.0707939,0,a
1772100613.0708191,0,a
1772100613.070843,0,a
1772100613.0708659,0,a
1772100613.070889,0,a
1772100613.070912,0,a
1772100613.070935,0,a
1772100613.0709581,0,a
1772100613.071888,0,a
1772100613.085221,0,a
1772100613.095995,0,a
1772100613.105619,0,a
1772100613.119555,0,a
1772100613.1272671,0,a
1772100613.168698,0,a
1772100613.16877,0,a
1772100613.1688,0,a
1772100613.173604,0,a
1772100613.1865,0,a
1772100613.1955981,0,a
1772100613.213145,0,a
1772100613.237059,0,a
1772100613.245329,0,a
1772100613.245379,0,a
1772100613.252919,0,a
1772100613.267877,0,a
1772100613.293775,0,a
1772100613.293935,0,a
1772100613.293977,0,a
1772100613.3109398,0,a
1772100613.327431,0,a
1772100613.335874,0,a
1772100613.3359601,0,a
1772100613.3472881,0,a
1772100613.361941,0,a
1772100613.3964422,0,a
1772100613.396547,0,a
1772100613.396576,0,a
1772100613.427124,0,a
1772100613.427202,0,a
1772100613.427237,0,a
1772100613.45314,0,a
1772100613.453223,0,a
1772100613.467356,0,a
1772100613.467815,0,a
1772100613.478771,0,a
1772100613.4907131,0,a
1772100613.5061948,0,a
1772100613.511778,0,a
1772100613.524425,0,a
1772100613.53381,0,a
1772100613.544797,0,a
1772100613.555768,0,a
1772100613.5667698,0,a
1772100613.577771,0,a
1772100613.5889149,0,a
1772100613.599794,0,a
1772100613.610775,0,a
1772100613.6238499,0,a
1772100613.6328,0,a
1772100613.64379,0,a
1772100613.654777,0,a
1772100613.665776,0,a
1772100613.676878,0,a
1772100613.6877701,0,a
1772100613.698784,0,a
1772100613.7097979,0,a
1772100613.7234602,0,a
1772100613.731775,0,a
1772100613.744205,0,a
1772100613.75378,0,a
1772100613.764788,0,a
1772100613.775776,0,a
1772100613.786769,0,a
1772100613.797778,0,a
1772100613.808774,0,a
1772100613.819784,0,a
1772100613.830914,186,a
1772100613.8440561,1798,a
1772100613.852888,70,a
1772100613.864017,2779,a
1772100613.875017,3489,a
1772100613.886015,2036,a
1772100613.897015,2172,a
1772100613.908009,3470,a
1772100613.9190059,3508,a
1772100613.930018,1251,a
1772100613.9435651,3412,a
1772100613.9520278,3515,a
1772100613.963873,486,a
1772100613.974017,3399,a
1772100613.98503,3509,a
1772100613.995908,320,a
1772100614.007023,3400,a
1772100614.018021,3509,a
1772100614.028903,307,a
1772100614.0400362,3403,a
1772100614.051021,3508,a
1772100614.063645,709,a
1772100614.073025,3408,a
1772100614.084197,3510,a
1772100614.09503,1032,a
1772100614.1060202,3406,a
1772100614.1170251,3513,a
1772100614.128026,1602,a
1772100614.139018,3406,a
1772100614.150029,3510,a
1772100614.1636732,2034,a
1772100614.1720161,3412,a
1772100614.1836932,3512,a
1772100614.1940212,2535,a
1772100614.205028,2530,a
1772100614.216026,3480,a
1772100614.2270331,3040,a
1772100614.2380512,1428,a
1772100614.249058,3408,a
1772100614.263217,3513,a
1772100614.2710268,396,a
1772100614.2839,3398,a
1772100614.2930481,3509,a
1772100614.304002,938,a
1772100614.31505,3098,a
1772100614.326012,3500,a
1772100614.33704,1702,a
1772100614.348044,2769,a
1772100614.359055,3492,a
1772100614.3700411,2456,a
1772100614.383714,2315,a
1772100614.3920372,3475,a
1772100614.403649,3515,a
1772100614.414041,1983,a
1772100614.425002,3415,a
1772100614.436044,3518,a
1772100614.44703,1730,a
1772100614.4580019,3418,a
1772100614.46903,3512,a
1772100614.480014,1087,a
1772100614.491039,3409,a
1772100614.502935,3514,a
1772100614.5129988,758,a
1772100614.524014,3406,a
1772100614.535021,3511,a
1772100614.5458932,434,a
1772100614.557066,3401,a
1772100614.568043,3511,a
1772100614.5788858,578,a
1772100614.589997,3400,a
1772100614.602583,3513,a
1772100614.612044,1053,a
1772100614.6233962,3409,a
1772100614.634072,3512,a
1772100614.645025,1617,a
1772100614.656034,3411,a
1772100614.667039,3513,a
1772100614.6780381,2089,a
1772100614.689033,3458,a
1772100614.700001,3517,a
1772100614.711031,2556,a
1772100614.7233338,2660,a
1772100614.7329988,3489,a
1772100614.7440078,3048,a
1772100614.755033,1531,a
1772100614.766043,3407,a
1772100614.777038,3507,a
1772100614.787883,700,a
1772100614.799073,3402,a
1772100614.8100102,3512,a
1772100614.823376,561,a
1772100614.832017,3178,a
1772100614.8430321,3504,a
1772100614.854035,1580,a
1772100614.865057,2848,a
1772100614.876034,3487,a
1772100614.887038,2269,a
1772100614.8980339,2547,a
1772100614.909009,3477,a
1772100614.922464,3204,a
1772100614.931036,2183,a
1772100614.943212,3474,a
1772100614.9530082,3509,a
1772100614.964009,1761,a
1772100614.9749918,3411,a
1772100614.986041,3517,a
1772100614.997047,1373,a
1772100615.0080268,3416,a
1772100615.019003,3510,a
1772100615.030035,769,a
1772100615.04305,3404,a
1772100615.05201,3515,a
1772100615.063009,366,a
1772100615.074039,3398,a
1772100615.085651,3510,a
1772100615.0960362,400,a
1772100615.107035,3400,a
1772100615.118029,3512,a
1772100615.129088,801,a
1772100615.142714,3409,a
1772100615.15104,3513,a
1772100615.163338,1257,a
1772100615.173032,3408,a
1772100615.184016,3511,a
1772100615.19504,1831,a
1772100615.206038,3410,a
1772100615.2170382,3510,a
1772100615.228061,2278,a
1772100615.239033,3018,a
1772100615.250035,3498,a
1772100615.263212,2781,a
1772100615.272005,2124,a
1772100615.283202,3469,a
1772100615.294027,3251,a
1772100615.305043,1149,a
1772100615.316032,3409,a
1772100615.327013,3509,a
1772100615.338005,294,a
1772100615.3490372,3068,a
1772100615.360014,3494,a
1772100615.3710232,923,a
1772100615.383704,2648,a
1772100615.3930602,3486,a
1772100615.404047,1922,a
1772100615.4150379,2458,a
1772100615.426049,3476,a
1772100615.4370382,2617,a
1772100615.448045,2075,a
1772100615.459048,3468,a
1772100615.470037,3304,a
1772100615.482913,1757,a
1772100615.492008,3413,a
1772100615.503194,3505,a
1772100615.51404,1434,a
1772100615.524998,3413,a
1772100615.53603,3511,a
1772100615.547055,1086,a
1772100615.558005,3407,a
1772100615.569023,3515,a
1772100615.580058,902,a
1772100615.5909991,3410,a
1772100615.6032078,3514,a
1772100615.6129978,337,a
1772100615.623994,3405,a
1772100615.6350331,3513,a
1772100615.6459992,512,a
1772100615.657047,3403,a
1772100615.668043,3509,a
1772100615.678999,568,a
1772100615.69004,3402,a
1772100615.702841,3511,a
1772100615.712029,1440,a
1772100615.723218,3407,a
1772100615.734155,3511,a
1772100615.745118,2547,a
1772100615.756031,3481,a
1772100615.767166,3521,a
1772100615.778152,3062,a
1772100615.788998,480,a
1772100615.802667,3401,a
1772100615.811162,3492,a
1772100615.823467,1294,a
1772100615.833157,3416,a
1772100615.844137,3513,a
1772100615.855038,906,a
1772100615.866184,3405,a
1772100615.877128,3507,a
1772100615.888044,638,a
1772100615.899189,2362,a
1772100615.910175,3329,a
1772100615.923768,407,a
1772100615.932153,1469,a
1772100615.94359,1741,a
1772100615.953894,61,a
1772100615.9647932,0,a
1772100615.975787,0,a
1772100615.986791,0,a
1772100615.997757,0,a
1772100616.008769,0,a
1772100616.019786,0,a
1772100616.0307999,0,a
1772100616.042464,0,a
1772100616.052785,0,a
1772100616.063762,0,a
1772100616.074783,0,a
1772100616.085772,0,a
1772100616.096757,0,a
1772100616.1078908,0,a
1772100616.118877,0,a
1772100616.129868,0,a
1772100616.14336,0,a
1772100616.1518762,0,a
1772100616.163411,0,a
1772100616.173899,0,a
1772100616.1849039,0,a
1772100616.195858,0,a
1772100616.206903,0,a
1772100616.2179031,0,a
1772100616.228904,0,a
1772100616.242798,0,a
1772100616.250926,0,a
1772100616.2629251,0,a
1772100616.272904,0,a
1772100616.2838778,0,a
1772100616.294903,0,a
1772100616.3059042,0,a
1772100616.316875,0,a
1772100616.3278751,0,a
1772100616.338898,0,a
1772100616.349874,0,a
1772100616.3629,0,a
1772100616.371895,0,a
1772100616.38355,0,a
1772100616.393902,0,a
1772100616.4048698,0,a
1772100616.415903,0,a
1772100616.4268942,0,a
1772100616.437875,0,a
1772100616.4488692,0,a
1772100616.459875,0,a
1772100616.470877,0,a
1772100616.483733,0,a
1772100616.492886,0,a
1772100616.503863,0,a
1772100616.514878,0,a
1772100616.525929,0,a
1772100616.536926,0,a
1772100616.5478709,0,a
1772100616.558871,0,a
1772100616.569896,0,a
1772100616.583379,0,a
1772100616.591881,0,a
1772100616.6030989,0,a
1772100616.613909,0,a
1772100616.6248162,0,a
1772100616.635747,0,a
1772100616.64678,0,a
1772100616.6577458,0,a
1772100616.668757,0,a
1772100616.68299,0,a
1772100616.690746,0,a
1772100616.703943,0,a
1772100616.713017,654,a
1772100616.72408,2221,a
1772100616.735017,2375,a
1772100616.7460139,1575,a
1772100616.75704,3411,a
1772100616.7680042,3512,a
1772100616.779026,2487,a
1772100616.790007,3477,a
1772100616.803821,3519,a
1772100616.812124,2747,a
1772100616.823412,3492,a
1772100616.834152,3516,a
1772100616.84512,2892,a
1772100616.856129,3159,a
1772100616.867154,3503,a
1772100616.8781261,3512,a
1772100616.889117,1875,a
1772100616.903263,3412,a
1772100616.911114,3512,a
1772100616.923167,677,a
1772100616.933148,3405,a
1772100616.944155,3507,a
1772100616.954995,557,a
1772100616.966125,3279,a
1772100616.9771159,3505,a
1772100616.9881139,1621,a
1772100616.999001,3076,a
1772100617.010035,3503,a
1772100617.0240908,2592,a
1772100617.032011,2584,a
1772100617.043411,3484,a
1772100617.0540311,3515,a
1772100617.065032,2294,a
1772100617.076001,3470,a
1772100617.086997,3512,a
1772100617.097996,1823,a
1772100617.1090062,3420,a
1772100617.120003,3506,a
1772100617.13101,1343,a
1772100617.143577,3414,a
1772100617.1530418,3512,a
1772100617.1640131,837,a
1772100617.174999,3405,a
1772100617.1860049,3515,a
1772100617.196992,497,a
1772100617.2079942,3406,a
1772100617.219003,3517,a
1772100617.229988,328,a
1772100617.243488,3405,a
1772100617.252,3511,a
1772100617.264042,688,a
1772100617.273979,3402,a
1772100617.285017,3515,a
1772100617.29601,1122,a
1772100617.306987,3408,a
1772100617.318059,3514,a
1772100617.3290071,1562,a
1772100617.339995,3409,a
1772100617.3510132,3517,a
1772100617.3633769,2477,a
1772100617.3730218,3008,a
1772100617.38401,3500,a
1772100617.395025,3297,a
1772100617.405993,1768,a
1772100617.4170282,3415,a
1772100617.428022,3509,a
1772100617.4388711,715,a
1772100617.4500191,3402,a
1772100617.463203,3511,a
1772100617.471893,521,a
1772100617.4837,3394,a
1772100617.4940119,3515,a
1772100617.504983,1312,a
1772100617.516021,3001,a
1772100617.5273879,3493,a
1772100617.537976,1857,a
1772100617.5489962,2592,a
1772100617.562782,3480,a
1772100617.570986,2756,a
1772100617.583373,2385,a
1772100617.592979,3477,a
1772100617.6039839,3513,a
1772100617.614996,2027,a
1772100617.626036,3415,a
1772100617.636984,3507,a
1772100617.648018,1351,a
1772100617.659023,3413,a
1772100617.669986,3520,a
1772100617.6836731,887,a
1772100617.6920042,3411,a
1772100617.703137,3515,a
1772100617.713939,374,a
1772100617.7249868,3404,a
1772100617.736018,3514,a
1772100617.74686,423,a
1772100617.758018,3402,a
1772100617.7690098,3515,a
1772100617.7828631,811,a
1772100617.791003,3409,a
1772100617.802597,3513,a
1772100617.812983,1301,a
1772100617.8240142,3408,a
1772100617.8350039,3516,a
1772100617.846016,1695,a
1772100617.856887,3408,a
1772100617.867871,3512,a
1772100617.878877,2442,a
1772100617.889876,3008,a
1772100617.9033558,3492,a
1772100617.911961,3061,a
1772100617.9231071,1850,a
1772100617.933902,3410,a
1772100617.944886,3502,a
1772100617.955882,766,a
1772100617.96687,3401,a
1772100617.97788,3510,a
1772100617.988859,530,a
1772100617.999896,3395,a
1772100618.010895,3511,a
1772100618.023127,1371,a
1772100618.032902,3048,a
1772100618.043912,3491,a
1772100618.054893,2391,a
1772100618.0658948,2658,a
1772100618.076892,3492,a
1772100618.08789,3360,a
1772100618.098856,2308,a
1772100618.10989,3478,a
1772100618.122675,3507,a
1772100618.1318579,1899,a
1772100618.143389,3414,a
1772100618.153871,3519,a
1772100618.165401,1335,a
1772100618.1759,3409,a
1772100618.186871,3518,a
1772100618.197769,979,a
1772100618.2088692,3411,a
1772100618.219875,3513,a
1772100618.230747,617,a
1772100618.242303,3404,a
1772100618.252863,3513,a
1772100618.2642822,335,a
1772100618.2748601,3407,a
1772100618.2859,3515,a
1772100618.2967281,600,a
1772100618.307868,3404,a
1772100618.318858,3519,a
1772100618.3298619,1314,a
1772100618.3429499,3410,a
1772100618.351892,3514,a
1772100618.363251,1930,a
1772100618.3738508,3416,a
1772100618.384865,3513,a
1772100618.39589,2418,a
1772100618.406944,2938,a
1772100618.417889,3500,a
1772100618.428886,3048,a
1772100618.442533,1977,a
1772100618.450849,3417,a
1772100618.463514,3502,a
1772100618.4728901,1015,a
1772100618.483861,3404,a
1772100618.494862,3513,a
1772100618.505755,327,a
1772100618.517529,3396,a
1772100618.5278661,3510,a
1772100618.538763,835,a
1772100618.5498822,3019,a
1772100618.562721,3492,a
1772100618.571883,1819,a
1772100618.583114,2697,a
1772100618.5938811,3491,a
1772100618.604918,2641,a
1772100618.615891,2416,a
1772100618.626873,3475,a
1772100618.637878,3508,a
1772100618.6488872,2252,a
1772100618.6628559,3472,a
1772100618.670868,3518,a
1772100618.683525,1639,a
1772100618.692877,3416,a
1772100618.703836,3516,a
1772100618.714852,1124,a
1772100618.725897,3415,a
1772100618.7368782,3509,a
1772100618.747761,486,a
1772100618.758882,3403,a
1772100618.769892,3515,a
1772100618.783576,312,a
1772100618.7918642,3401,a
1772100618.802884,3511,a
1772100618.8138628,514,a
1772100618.8248398,3404,a
1772100618.835851,3509,a
1772100618.846731,931,a
1772100618.8578649,3403,a
1772100618.8688698,3511,a
1772100618.8798459,1353,a
1772100618.890858,3409,a
1772100618.903038,3511,a
1772100618.9129732,1747,a
1772100618.923884,3352,a
1772100618.9348512,3513,a
1772100618.945856,2299,a
1772100618.956851,2436,a
1772100618.9678578,3477,a
1772100618.978884,2843,a
1772100618.989892,1496,a
1772100619.002622,3413,a
1772100619.011904,3483,a
1772100619.024925,853,a
1772100619.03387,3337,a
1772100619.044876,3506,a
1772100619.055734,479,a
1772100619.066852,3035,a
1772100619.077853,3493,a
1772100619.088865,1378,a
1772100619.099852,2747,a
1772100619.110872,3489,a
1772100619.124385,2150,a
1772100619.132742,2411,a
1772100619.143849,3473,a
1772100619.1547341,3080,a
1772100619.1657321,2065,a
1772100619.176737,3466,a
1772100619.1877172,3515,a
1772100619.198734,1685,a
1772100619.209731,3412,a
1772100619.223918,3514,a
1772100619.23174,1311,a
1772100619.244468,3414,a
1772100619.2537138,3511,a
1772100619.2647412,936,a
1772100619.275753,3410,a
1772100619.2867332,3515,a
1772100619.297735,379,a
1772100619.308737,3405,a
1772100619.32368,3513,a
1772100619.330647,355,a
1772100619.344497,3407,a
1772100619.352745,3509,a
1772100619.364438,724,a
1772100619.374728,3407,a
1772100619.385719,3512,a
1772100619.396731,1166,a
1772100619.4077172,3406,a
1772100619.4187222,3514,a
1772100619.429725,1564,a
1772100619.444969,3304,a
1772100619.451724,3505,a
1772100619.4642859,2218,a
1772100619.473724,2637,a
1772100619.485022,3489,a
1772100619.495737,2628,a
1772100619.506757,1629,a
1772100619.517767,3410,a
1772100619.528745,3188,a
1772100619.5442529,700,a
1772100619.550737,3399,a
1772100619.564422,3505,a
1772100619.572605,447,a
1772100619.584353,3084,a
1772100619.594741,3505,a
1772100619.605718,1246,a
1772100619.616721,2722,a
1772100619.627722,3489,a
1772100619.638721,2078,a
1772100619.6497312,2527,a
1772100619.6648278,3477,a
1772100619.671725,3023,a
1772100619.685025,2112,a
1772100619.6937191,3465,a
1772100619.704722,3514,a
1772100619.715737,1635,a
1772100619.726751,3415,a
1772100619.737718,3508,a
1772100619.748718,1251,a
1772100619.759764,3410,a
1772100619.7707388,3511,a
1772100619.783655,906,a
1772100619.7927449,3411,a
1772100619.803714,3513,a
1772100619.814621,390,a
1772100619.8257558,3405,a
1772100619.836753,3510,a
1772100619.847628,255,a
1772100619.8587499,3403,a
1772100619.8697531,3516,a
1772100619.884326,538,a
1772100619.8917089,3410,a
1772100619.904274,3509,a
1772100619.9137359,1043,a
1772100619.92474,3406,a
1772100619.9357371,3513,a
1772100619.9467149,1584,a
1772100619.957738,3407,a
1772100619.968756,3514,a
1772100619.979638,2071,a
1772100619.9906619,2641,a
1772100620.0044029,3485,a
1772100620.012598,2530,a
1772100620.0236218,1694,a
1772100620.0346339,3413,a
1772100620.045654,3188,a
1772100620.056629,682,a
1772100620.067602,3404,a
1772100620.0785978,3508,a
1772100620.089508,436,a
1772100620.103874,3002,a
1772100620.111626,3491,a
1772100620.123413,1387,a
1772100620.1336288,2751,a
1772100620.144643,3485,a
1772100620.155623,2119,a
1772100620.166624,2362,a
1772100620.1776252,3471,a
1772100620.188638,2987,a
1772100620.203125,1982,a
1772100620.2106218,3415,a
1772100620.224253,3513,a
1772100620.2326322,1714,a
1772100620.2440681,3411,a
1772100620.2545888,3512,a
1772100620.2655969,1238,a
1772100620.276501,3416,a
1772100620.287484,3512,a
1772100620.2985,769,a
1772100620.3095,3406,a
1772100620.3241239,3510,a
1772100620.331488,256,a
1772100620.343662,3400,a
1772100620.3534741,3517,a
1772100620.364469,344,a
1772100620.375503,3407,a
1772100620.386476,3510,a
1772100620.397353,698,a
1772100620.408499,3407,a
1772100620.419499,3512,a
1772100620.4304929,1232,a
1772100620.443232,3410,a
1772100620.452489,3508,a
1772100620.464062,1623,a
1772100620.474493,3236,a
1772100620.48546,3504,a
1772100620.496458,2308,a
1772100620.5074959,2377,a
1772100620.518495,3478,a
1772100620.529577,2711,a
1772100620.545286,1415,a
1772100620.574443,3408,a
1772100620.574511,3353,a
1772100620.5745401,501,a
1772100620.584471,3170,a
1772100620.5953789,3505,a
1772100620.606365,723,a
1772100620.617375,2996,a
1772100620.628352,3491,a
1772100620.639369,1562,a
1772100620.6503758,2608,a
1772100620.6636832,3481,a
1772100620.67237,2355,a
1772100620.683373,2271,a
1772100620.694371,3471,a
1772100620.7053661,3314,a
1772100620.7163699,2014,a
1772100620.727395,3413,a
1772100620.738365,3510,a
1772100620.74937,1591,a
1772100620.763335,3413,a
1772100620.771339,3510,a
1772100620.7840881,1161,a
1772100620.793372,3413,a
1772100620.804323,3511,a
1772100620.815258,733,a
1772100620.826373,3405,a
1772100620.837354,3512,a
1772100620.848246,288,a
1772100620.8593762,3397,a
1772100620.870359,3513,a
1772100620.8840818,506,a
1772100620.8922791,3400,a
